,video_id,frame_seq,gap,time_seconds,m1,m3,m4,m5,m6,m7,m8,m9,m10,m11,m12,m13,m14,m15,m16,m17,e1,e2,e3,b1,b2,b3,m_0_16,m_1_15,m_2_14,m_3_13
0,8,205,1,6.840166666666675,5.0990195135927845,32.2490309931942,3.0,5.0990195135927845,8.06225774829855,9.055385138137417,8.06225774829855,21.213203435596427,16.1245154965971,13.5,14.0,10.0,4.0,9.0,4.0,2.0,3.0,3.0,3.0,8.0,13.0,10.198039027185569,78.5175139698144,78.31347265956222,76.16429609731846,72.11102550927978
1,8,206,0,6.8735333333333415,3.1622776601683795,30.14962686336267,4.0,6.0,8.06225774829855,9.055385138137417,6.324555320336759,19.235384061671343,13.341664064126334,11.5,14.0,11.0,6.5,6.5,0.5,3.5,4.0,4.0,4.0,9.0,12.0,11.045361017187261,75.4254598925323,73.24616030891995,70.178344238091,66.12110101926616
2,8,207,0,6.906900000000008,3.0,29.068883707497267,3.1622776601683795,5.0990195135927845,8.0,9.0,6.082762530298219,17.26267650163207,12.165525060596439,10.5,12.0,10.0,5.0,6.0,0.0,2.0,3.0,4.0,4.0,8.0,10.0,11.0,75.32595834106593,73.24616030891995,69.26037828369117,65.27633568147036
3,8,208,0,6.940266666666675,2.0,28.071337695236398,3.0,6.082762530298219,8.06225774829855,8.06225774829855,6.324555320336759,17.26267650163207,11.180339887498949,10.0,11.0,9.0,4.0,7.0,1.0,2.0,4.0,4.0,4.0,9.0,10.0,10.0,71.25307010929424,70.178344238091,67.1863081289633,64.1248781675256
4,8,209,0,6.973633333333342,2.0,27.073972741361768,3.0,5.0990195135927845,8.06225774829855,8.06225774829855,6.324555320336759,16.278820596099706,11.180339887498949,10.0,11.0,9.0,4.0,6.0,0.0,2.0,3.1622776601683795,3.0,3.0,9.0,9.0,9.055385138137417,69.18092222571191,68.18357573492314,65.19202405202648,62.12889826803627
5,8,210,0,7.0070000000000086,2.0,27.073972741361768,3.0,5.0,8.0,8.06225774829855,5.385164807134504,15.132745950421556,10.198039027185569,9.0,11.0,9.0,5.0,5.0,1.0,2.0,3.0,2.0,2.5,7.0,8.0,7.0710678118654755,67.1863081289633,65.12296062065974,63.198101237299845,61.29437168288782
6,8,211,0,7.040366666666675,2.0,25.019992006393608,3.0,4.0,7.0,7.0,5.0990195135927845,14.035668847618199,10.04987562112089,9.0,10.0,9.0,4.5,4.5,0.5,1.5,3.0,3.0,3.0,7.0,8.0,8.06225774829855,66.12110101926616,64.1248781675256,62.12889826803627,59.21148537234985
7,8,212,0,7.073733333333342,2.0,24.020824298928627,2.0,4.0,7.0,7.0,6.324555320336759,14.142135623730951,10.198039027185569,9.0,10.0,9.0,3.5,4.5,0.5,1.5,3.1622776601683795,3.0,3.0,7.0,8.0,8.0,63.198101237299845,61.1310068623117,59.21148537234985,56.22277118748239
8,8,213,0,7.107100000000009,2.0,24.020824298928627,3.0,4.123105625617661,7.0710678118654755,7.0,5.385164807134504,14.317821063276353,10.198039027185569,9.0,10.0,9.0,4.5,4.5,0.5,2.5,2.0,3.0,3.0,7.0,8.0,7.0710678118654755,62.39390995922599,60.29925372672534,58.42088667591412,55.326304774492215
9,8,214,0,7.140466666666676,2.0,24.020824298928627,3.0,4.123105625617661,6.082762530298219,7.0,5.385164807134504,14.317821063276353,10.198039027185569,9.0,10.0,9.0,4.5,4.5,0.5,2.5,3.0,3.0,3.0,7.0,8.0,7.0,61.204574992397426,59.21148537234985,56.22277118748239,54.3323108288245
10,8,215,0,7.173833333333342,2.0,23.08679276123039,2.0,4.123105625617661,6.0,7.0,5.385164807134504,13.341664064126334,9.219544457292887,8.0,10.0,8.0,4.0,4.0,0.0,2.0,3.1622776601683795,2.0,2.0,7.0,8.0,7.0,58.309518948453004,57.3149195236284,54.45181356024793,52.3450093132096
11,8,216,0,7.207200000000009,2.0,23.021728866442675,2.23606797749979,4.0,6.0,6.0,4.123105625617661,12.165525060596439,8.246211251235321,7.0,9.0,8.0,4.5,3.5,0.5,2.5,2.23606797749979,3.0,3.0,7.0,7.0,8.0,58.215118311311535,56.22277118748239,54.230987451824994,51.24451190127583
12,8,217,0,7.240566666666676,1.4142135623730951,22.02271554554524,3.1622776601683795,4.123105625617661,6.082762530298219,6.0,3.1622776601683795,11.180339887498949,7.0710678118654755,6.5,8.0,7.0,4.5,3.5,0.5,2.5,2.0,2.0,2.0,7.0,7.0,6.0,57.21887800367987,54.230987451824994,53.46026561849464,50.48762224545735
13,8,218,0,7.273933333333343,2.23606797749979,20.09975124224178,2.0,4.0,6.0,6.082762530298219,4.123105625617661,12.165525060596439,8.246211251235321,7.0,9.0,7.0,4.0,4.0,0.0,2.0,2.0,2.0,2.5,6.0,6.0,6.0,55.226805085936306,54.230987451824994,51.35172830587107,49.36598018878993
14,8,219,0,7.3073000000000095,2.0,20.024984394500787,2.0,4.123105625617661,6.0,6.0,4.123105625617661,12.165525060596439,8.06225774829855,7.0,9.0,8.0,4.5,3.5,0.5,2.5,3.1622776601683795,2.0,2.0,6.0,6.0,6.0,54.3323108288245,52.3450093132096,50.48762224545735,48.373546489791295
15,8,220,0,7.340666666666676,0.0,16.0312195418814,2.0,4.123105625617661,4.123105625617661,5.0990195135927845,6.324555320336759,12.36931687685298,8.246211251235321,8.0,11.0,10.0,4.5,1.5,2.5,3.5,2.0,2.23606797749979,2.0,6.0,6.0,6.0,52.23983154643591,51.35172830587107,49.36598018878993,48.507731342539614
16,8,354,1,11.811799999999922,4.123105625617661,40.311288741492746,5.0,9.055385138137417,11.180339887498949,12.041594578792296,10.198039027185569,28.284271247461902,19.235384061671343,17.0,14.0,9.0,1.5,16.5,7.5,1.5,1.0,2.8284271247461903,2.0,12.0,20.0,18.24828759089466,117.5457357797381,115.26057435220423,111.01801655587259,102.95630140987001
17,8,355,0,11.845166666666588,5.0990195135927845,37.33630940518894,4.123105625617661,9.055385138137417,10.04987562112089,10.04987562112089,10.198039027185569,28.442925306655784,19.4164878389476,16.5,14.0,9.0,1.5,16.5,7.5,1.5,2.23606797749979,2.23606797749979,1.0,11.0,19.0,18.24828759089466,111.6288493177279,111.30588483993108,106.21205204683694,99.14131328563285
18,8,356,0,11.878533333333252,6.0,38.2099463490856,3.1622776601683795,7.0710678118654755,9.055385138137417,11.045361017187261,10.198039027185569,26.30589287593181,19.235384061671343,16.0,12.0,8.0,0.0,16.0,8.0,2.0,1.0,2.23606797749979,1.5,11.0,19.0,18.110770276274835,110.3177229641729,107.35455276791944,103.9471019317037,95.75489543621255
19,8,357,0,11.91189999999992,4.123105625617661,35.22782990761707,4.0,8.06225774829855,9.055385138137417,11.045361017187261,10.198039027185569,26.30589287593181,18.24828759089466,16.0,13.0,9.0,1.0,15.0,7.0,2.0,2.23606797749979,2.23606797749979,2.0,10.0,18.0,18.110770276274835,105.38026380684383,105.22357150372724,100.12991560967181,93.90420650854784
20,8,358,0,11.945266666666583,4.0,32.38826948140329,4.123105625617661,7.0710678118654755,8.06225774829855,9.055385138137417,10.198039027185569,25.317977802344327,18.24828759089466,16.0,14.0,9.0,1.5,13.5,5.5,1.5,2.0,2.8284271247461903,2.0,10.0,17.0,17.11724276862369,102.42070103255493,100.2845950283492,97.01546268507923,89.94442728707543
21,8,359,0,11.978633333333253,4.123105625617661,34.23448553724738,3.0,7.0710678118654755,8.06225774829855,9.0,10.198039027185569,24.331050121192877,17.26267650163207,15.0,12.0,8.0,0.0,14.0,6.0,2.0,1.0,2.8284271247461903,2.0,10.0,17.0,16.1245154965971,100.12991560967181,98.00510190801293,93.90420650854784,87.82368700982668
22,8,360,0,12.011999999999915,3.0,30.265491900843113,4.123105625617661,7.0710678118654755,8.06225774829855,8.0,9.219544457292887,23.345235059857504,16.278820596099706,14.5,13.0,9.0,2.0,12.0,5.0,1.0,2.0,1.4142135623730951,1.5,9.0,16.0,16.1245154965971,96.33794683301072,94.04786015641186,89.94442728707543,83.86298349093002
23,8,361,0,12.045366666666585,4.0,25.495097567963924,3.1622776601683795,5.0990195135927845,7.280109889280518,8.246211251235321,2.0,14.142135623730951,9.055385138137417,7.0,0.0,5.0,0.5,11.5,5.5,2.5,2.23606797749979,1.4142135623730951,1.5,15.0,8.0,14.142135623730951,72.99315036357864,70.03570517957252,65.92419889539804,61.98386886924694
24,8,362,0,12.078733333333249,3.0,29.427877939124322,3.0,7.0710678118654755,8.06225774829855,9.055385138137417,9.219544457292887,22.20360331117452,15.132745950421556,13.5,12.0,7.0,0.5,12.5,5.5,1.5,1.4142135623730951,2.8284271247461903,2.0,9.0,16.0,15.297058540778355,89.10667763978185,87.96590248499699,85.0,78.77182237323191
25,8,363,0,12.112099999999916,3.0,29.274562336608895,3.1622776601683795,7.0710678118654755,7.0710678118654755,8.06225774829855,9.219544457292887,22.360679774997898,15.297058540778355,13.5,12.0,8.0,1.0,12.0,5.0,1.0,1.4142135623730951,2.23606797749979,1.0,9.0,15.0,14.317821063276353,86.97700845625813,85.98837130682264,81.88406438373708,75.8023746329889
26,8,364,0,12.14546666666658,4.0,30.14962686336267,3.0,6.082762530298219,8.06225774829855,8.0,8.246211251235321,21.213203435596427,15.132745950421556,13.0,10.0,7.0,0.5,12.5,5.5,1.5,1.0,1.4142135623730951,1.0,8.0,14.0,14.035668847618199,85.98837130682264,83.86298349093002,79.76214641043707,74.67261881037788
27,8,365,0,12.178833333333246,2.23606797749979,27.459060435491963,3.0,7.0,7.0710678118654755,7.0710678118654755,8.246211251235321,20.223748416156685,13.341664064126334,12.0,11.0,6.0,0.5,11.5,4.5,1.5,2.0,2.23606797749979,1.5,8.0,14.0,14.142135623730951,83.18653737234169,81.04936767180853,78.08969202141856,71.84705978674423
28,8,366,0,12.212199999999912,4.0,28.160255680657446,3.1622776601683795,6.082762530298219,7.0710678118654755,8.0,7.0710678118654755,20.223748416156685,14.142135623730951,12.0,9.0,6.0,0.5,12.5,6.5,1.5,1.0,1.4142135623730951,1.0,8.0,14.0,13.152946437965905,80.06247560499239,78.91767862779544,74.81310045707235,69.58448102845921
29,8,367,0,12.245566666666578,3.1622776601683795,27.294688127912362,3.0,6.082762530298219,7.0710678118654755,7.0710678118654755,7.280109889280518,19.4164878389476,13.341664064126334,11.5,10.0,6.0,1.0,11.0,5.0,1.0,1.0,2.23606797749979,2.0,8.0,13.0,14.142135623730951,77.78174593052023,77.92945527847606,74.67261881037788,68.73136110975832
30,8,368,0,12.278933333333244,4.123105625617661,29.274562336608895,3.0,5.0,8.0,8.06225774829855,7.0710678118654755,19.1049731745428,14.142135623730951,12.0,9.0,5.0,0.0,12.0,6.0,2.0,0.0,1.4142135623730951,1.0,8.0,14.0,13.152946437965905,77.10382610480494,75.95393340703298,72.99315036357864,66.75327707311455
31,8,369,0,12.31229999999991,3.0,25.179356624028344,2.0,6.082762530298219,6.0,8.06225774829855,8.246211251235321,19.235384061671343,13.152946437965905,11.5,9.0,6.0,0.5,11.5,5.5,2.5,2.23606797749979,2.23606797749979,1.0,7.0,13.0,12.041594578792296,74.81310045707235,73.68174807915459,70.71067811865476,65.62011886609167
32,8,370,0,12.345666666666576,3.0,24.186773244895647,2.23606797749979,6.082762530298219,6.0,7.0710678118654755,7.0710678118654755,18.24828759089466,12.165525060596439,10.5,9.0,6.0,0.5,10.5,4.5,1.5,1.4142135623730951,1.4142135623730951,1.0,7.0,12.0,12.165525060596439,72.83543093852057,71.84705978674423,68.73136110975832,63.63961030678928
33,8,371,0,12.379033333333242,3.0,24.186773244895647,3.0,5.0990195135927845,6.082762530298219,7.0,7.0710678118654755,18.110770276274835,13.038404810405298,11.5,9.0,6.0,0.5,10.5,5.5,1.5,1.0,1.4142135623730951,1.0,7.0,12.0,12.041594578792296,70.8590149522275,69.87131027825369,68.73136110975832,62.80127387243033
34,8,372,0,12.412399999999908,3.0,23.194827009486403,2.0,5.0990195135927845,6.0,7.0710678118654755,7.0710678118654755,17.11724276862369,12.041594578792296,10.5,9.0,6.0,0.5,9.5,4.5,1.5,1.0,1.4142135623730951,1.0,7.0,12.0,11.045361017187261,69.87131027825369,68.73136110975832,66.75327707311455,61.814237842102365
35,8,386,1,12.87953333333323,1.0,48.16637831516918,4.123105625617661,8.0,13.038404810405298,14.035668847618199,16.1245154965971,28.284271247461902,20.396078054371138,20.0,15.0,19.0,1.0,11.0,2.0,2.0,3.0,4.0,4.0,11.0,7.0,14.0,104.12012293500234,103.07764064044152,100.07996802557443,95.04735661763561
36,8,387,0,12.912899999999896,1.0,46.17358552246078,4.123105625617661,7.0,13.038404810405298,13.038404810405298,14.142135623730951,25.317977802344327,18.439088914585774,18.0,13.0,17.0,1.0,10.0,2.0,2.0,4.0,4.0,4.0,12.0,9.0,16.0312195418814,97.082439194738,97.04638066409278,95.04735661763561,90.0222194794152
37,8,388,0,12.946266666666562,1.0,42.190046219457976,3.1622776601683795,7.0710678118654755,12.041594578792296,12.0,13.152946437965905,24.331050121192877,17.26267650163207,16.5,12.0,16.0,1.0,10.0,2.0,2.0,3.1622776601683795,3.0,2.5,10.0,6.0,12.0,94.26027795418386,94.13288479590966,93.08598175880189,89.08984229416954
38,8,389,0,12.979633333333227,1.0,41.10960958218893,3.0,7.0,11.045361017187261,11.045361017187261,13.152946437965905,23.194827009486403,16.278820596099706,16.0,12.0,15.0,0.5,9.5,1.5,2.5,3.0,2.23606797749979,2.5,11.0,11.0,9.055385138137417,85.0,86.00581375697809,86.0,82.00609733428362
39,8,390,0,13.012999999999892,1.4142135623730951,40.11234224026316,3.0,6.0,11.045361017187261,12.041594578792296,12.041594578792296,22.090722034374522,16.1245154965971,15.5,11.0,14.0,0.5,9.5,1.5,2.5,2.0,2.0,2.5,9.0,7.0,10.04987562112089,84.02380615040002,86.00581375697809,84.02380615040002,79.02531240052139
40,8,391,0,13.04636666666656,0.0,21.0,3.0,3.0,6.0,7.0,5.0,11.0,8.0,8.0,8.0,8.0,3.0,3.0,0.0,1.0,3.0,3.0,3.0,7.0,7.0,9.0,60.0,60.0,59.00847396772772,57.0350769263968
41,8,392,0,13.079733333333223,1.0,35.12833614050059,3.1622776601683795,5.0990195135927845,10.04987562112089,10.04987562112089,10.04987562112089,19.235384061671343,14.142135623730951,13.5,10.0,13.0,1.5,7.5,1.5,1.5,2.23606797749979,2.0,2.0,9.0,5.0,12.041594578792296,78.31347265956222,79.30952023559341,76.16429609731846,73.17103251970687
42,8,393,0,13.113099999999893,1.0,20.0,2.0,2.0,5.0,6.0,5.0,10.0,8.0,7.5,8.0,8.0,3.0,2.0,0.0,1.0,3.0,2.0,2.0,7.0,7.0,9.0,56.0,55.0,55.00909015790027,52.009614495783374
43,8,394,0,13.146466666666557,1.4142135623730951,32.14031735997639,3.0,4.0,10.04987562112089,10.0,10.04987562112089,18.110770276274835,14.142135623730951,13.5,10.0,13.0,1.5,6.5,1.5,1.5,2.0,2.0,2.0,8.0,6.0,6.0,73.00684899377592,71.00704190430693,70.00714249274856,65.03076195155643
44,8,395,0,13.179833333333224,0.0,31.144823004794873,3.1622776601683795,5.0,9.055385138137417,9.055385138137417,9.055385138137417,17.11724276862369,12.165525060596439,12.0,9.0,12.0,1.5,6.5,0.5,1.5,2.0,2.0,2.0,8.0,4.0,10.198039027185569,69.35416353759881,70.178344238091,69.1158447825099,65.12296062065974
45,8,396,0,13.213199999999889,1.4142135623730951,31.144823004794873,2.0,4.0,9.0,9.055385138137417,10.198039027185569,17.26267650163207,13.341664064126334,12.5,9.0,12.0,0.5,6.5,1.5,1.5,2.0,2.0,2.0,7.0,4.0,8.06225774829855,65.12296062065974,66.06814663663572,65.03076195155643,63.0317380372777
46,8,397,0,13.246566666666554,1.0,29.154759474226502,2.23606797749979,4.123105625617661,9.055385138137417,9.055385138137417,10.04987562112089,17.26267650163207,13.152946437965905,12.5,9.0,12.0,0.5,6.5,1.5,1.5,1.0,2.0,2.0,7.0,3.0,10.198039027185569,64.38167441127949,65.19202405202648,63.12685640834652,60.07495318350236
47,8,398,0,13.27993333333322,0.0,28.071337695236398,3.1622776601683795,4.0,9.0,9.0,8.06225774829855,15.132745950421556,11.180339887498949,11.0,8.0,10.0,1.0,6.0,1.0,1.0,1.0,2.0,2.0,8.0,6.0,5.0,60.00833275470999,61.0,61.0,58.008620049092706
48,8,399,0,13.313299999999886,0.0,27.16615541441225,2.23606797749979,5.0,8.0,9.0,9.055385138137417,16.1245154965971,11.180339887498949,11.0,8.0,11.0,0.5,6.5,1.5,1.5,1.0,2.0,2.0,7.0,3.0,9.055385138137417,59.30430001273095,60.13318551349163,58.137767414994535,57.07889277132134
49,8,400,0,13.346666666666552,1.4142135623730951,26.1725046566048,2.0,4.0,8.0,8.0,8.06225774829855,15.132745950421556,11.180339887498949,10.5,7.0,10.0,0.5,6.5,1.5,1.5,1.0,1.0,1.0,7.0,4.0,7.0,58.077534382926416,58.034472514187634,57.0350769263968,55.0
50,8,401,0,13.380033333333218,0.0,25.179356624028344,2.23606797749979,4.123105625617661,8.06225774829855,8.06225774829855,9.055385138137417,15.297058540778355,11.180339887498949,11.0,8.0,11.0,0.5,5.5,0.5,1.5,2.0,1.0,1.0,7.0,4.0,7.0710678118654755,57.3149195236284,57.14017850864661,56.142675390472796,53.08483775994799
51,8,402,0,13.413399999999884,0.0,23.08679276123039,2.0,4.123105625617661,6.0,7.0,7.0710678118654755,13.152946437965905,9.055385138137417,9.0,7.0,9.0,1.0,5.0,1.0,1.0,1.0,1.4142135623730951,1.0,6.0,4.0,8.0,55.08175741568164,57.0350769263968,57.0350769263968,54.00925846556311
52,8,403,0,13.44676666666655,0.0,20.024984394500787,2.0,4.123105625617661,6.082762530298219,6.0,7.615773105863909,13.601470508735444,9.486832980505138,9.0,8.0,9.0,1.5,4.5,0.5,0.5,1.0,2.0,2.0,8.0,4.0,4.123105625617661,55.731499172371095,55.326304774492215,54.147945482723536,51.0098029794274
53,8,461,1,15.38203333333317,11.40175425099138,97.52948272189288,9.486832980505138,16.15549442140351,25.0,27.892651361962706,23.08679276123039,60.08327554319921,43.965895873961216,36.5,20.0,46.0,11.0,24.0,4.0,1.0,9.486832980505138,10.44030650891055,9.5,50.0,20.0,29.410882339705484,224.17850030723287,223.86156436512275,220.9660607423683,209.88091861815357
54,8,462,0,15.415399999999837,5.0,94.92101980067429,10.198039027185569,15.811388300841896,23.08679276123039,25.0,25.0,55.02726596879042,39.21734310225516,35.5,22.0,49.0,11.5,16.5,2.5,0.5,8.246211251235321,9.486832980505138,9.0,46.0,23.0,31.78049716414141,229.20078533896867,227.50164834567684,225.08887133752305,216.390850083824
55,8,463,0,15.448766666666502,4.242640687119285,90.80198235721508,9.219544457292887,13.92838827718412,23.08679276123039,24.351591323771842,25.0,51.86520991955976,37.94733192202055,34.5,24.0,50.0,13.0,12.0,6.0,1.0,6.082762530298219,7.615773105863909,6.5,45.0,24.0,30.805843601498726,236.48467180770933,235.28068344001383,232.13142829009604,224.8599564173221
56,8,464,0,15.482133333333168,5.0,84.75848040166836,9.219544457292887,13.92838827718412,21.540659228538015,22.47220505424423,22.80350850198276,50.59644256269407,36.68787265568828,33.0,25.0,53.0,17.0,9.0,9.0,4.0,5.0990195135927845,8.94427190999916,7.0,47.0,26.0,30.59411708155671,242.05164738129753,240.8422720371156,236.71924298628534,228.00877176108818
57,8,465,0,15.515499999999834,4.242640687119285,78.54934754662193,9.219544457292887,13.92838827718412,19.697715603592208,20.615528128088304,23.53720459187964,50.28916384272063,36.40054944640259,33.5,29.0,58.0,20.5,4.5,12.5,7.5,4.47213595499958,8.602325267042627,6.5,46.0,23.0,32.7566787083184,247.8790027412568,244.2642012248213,237.507894605632,228.0350850198276
58,8,466,0,15.5488666666665,3.605551275463989,76.89603370785778,10.198039027185569,14.866068747318506,19.313207915827967,19.697715603592208,23.53720459187964,51.24451190127583,36.40054944640259,34.0,31.0,58.0,21.5,4.5,13.5,8.5,5.385164807134504,8.06225774829855,6.5,47.0,24.0,32.984845004941285,245.2305038122297,241.6298822579691,235.8495283014151,225.41073621280776
59,8,467,0,15.582233333333166,5.0,78.77182237323191,9.219544457292887,14.866068747318506,17.08800749063506,19.697715603592208,22.80350850198276,51.54609587543949,36.68787265568828,33.0,27.0,54.0,18.5,8.5,9.5,6.5,4.47213595499958,8.602325267042627,6.5,46.0,24.0,34.36568055487916,243.55902775302746,240.9336008115099,236.1228493814184,226.92069099136816
60,8,468,0,15.615599999999832,5.385164807134504,82.21921916437786,10.44030650891055,17.08800749063506,19.924858845171276,21.18962010041709,21.840329667841555,54.70831746635972,37.64306044943742,33.5,28.0,54.0,20.0,11.0,8.0,7.0,4.47213595499958,7.810249675906654,5.5,45.0,23.0,34.713109915419565,242.59431155738173,240.52026941611388,235.72229423624742,225.28204544525957
61,8,469,0,15.648966666666498,6.324555320336759,83.5224520712844,9.486832980505138,16.76305461424021,19.924858845171276,21.18962010041709,21.587033144922902,54.120236510939236,37.36308338453881,33.0,28.0,52.0,19.0,12.0,7.0,7.0,5.385164807134504,8.602325267042627,6.5,44.0,23.0,33.734255586866,230.4951192541829,230.9328906847182,227.1079038695043,216.6679487141557
62,8,470,0,15.682333333333164,6.324555320336759,85.44003745317531,8.54400374531753,14.866068747318506,20.615528128088304,22.135943621178654,22.561028345356956,52.20153254455275,37.36308338453881,33.0,28.0,52.0,18.0,10.0,7.0,7.0,6.324555320336759,8.602325267042627,6.5,46.0,22.0,33.734255586866,227.6071176391459,228.35936591258962,225.80079716422614,218.22007240398395
63,8,471,0,15.71569999999983,5.0,84.48076704197234,9.219544457292887,15.811388300841896,20.8806130178211,23.08679276123039,22.360679774997898,51.92301994298868,36.138621999185304,33.0,28.0,52.0,18.0,10.0,8.0,6.0,5.385164807134504,8.602325267042627,6.5,46.0,21.0,34.713109915419565,229.9652147608416,231.32012450281968,229.40139493908924,223.0807028857494
64,8,472,0,15.749066666666495,3.605551275463989,85.44003745317531,9.219544457292887,12.649110640673518,20.248456731316587,21.18962010041709,24.331050121192877,49.47726750741192,36.87817782917155,34.5,28.0,52.0,16.0,8.0,8.0,4.0,6.708203932499369,8.06225774829855,6.5,47.0,20.0,36.40054944640259,247.38633753705963,242.78797334299736,237.69728648009425,227.51703232945002
65,8,473,0,15.78243333333316,3.605551275463989,86.02325267042627,8.246211251235321,13.601470508735444,20.8806130178211,22.135943621178654,23.345235059857504,48.507731342539614,34.92849839314596,32.5,25.0,51.0,15.0,9.0,8.0,4.0,6.324555320336759,8.602325267042627,6.5,46.0,19.0,35.17101079013795,246.9088900789115,242.53865671269807,236.7298037848213,227.0704736419951
66,8,474,0,15.815799999999829,2.8284271247461903,86.68333173107735,8.54400374531753,12.649110640673518,20.248456731316587,21.540659228538015,24.186773244895647,47.53945729601885,34.92849839314596,33.0,26.0,51.0,14.5,7.5,7.5,3.5,6.324555320336759,8.06225774829855,6.5,47.0,20.0,36.87817782917155,248.39484696748443,245.20399670478457,241.32343441945292,231.8641843838759
67,8,475,0,15.849166666666491,2.8284271247461903,86.68333173107735,8.246211251235321,11.704699910719626,20.248456731316587,22.47220505424423,23.345235059857504,45.60701700396552,33.95585369269929,32.0,25.0,50.0,14.5,6.5,7.5,3.5,6.324555320336759,9.433981132056603,6.5,46.0,19.0,35.17101079013795,242.32416305436814,241.32343441945292,238.41560351621283,229.20078533896867
68,8,476,0,15.88253333333316,4.242640687119285,87.36131867136622,7.280109889280518,14.560219778561036,21.18962010041709,23.08679276123039,25.179356624028344,50.44799302251776,35.90264614203248,33.5,26.0,50.0,13.0,11.0,6.0,3.0,6.324555320336759,8.602325267042627,6.5,47.0,20.0,34.92849839314596,245.93698379869588,244.00819658363937,240.85265205099984,230.67292862405853
69,8,477,0,15.915899999999825,2.23606797749979,87.64131445842195,7.615773105863909,12.649110640673518,20.8806130178211,21.18962010041709,26.30589287593181,47.80167361086848,35.17101079013795,33.5,26.0,51.0,12.5,7.5,7.5,3.5,6.324555320336759,8.06225774829855,6.0,47.0,19.0,39.05124837953327,246.1747346906258,244.00819658363937,241.82018112638985,233.57439928211312
70,8,478,0,15.94926666666649,3.605551275463989,88.60022573334675,7.280109889280518,11.180339887498949,18.973665961010276,20.615528128088304,25.179356624028344,45.880278987817846,34.92849839314596,33.0,26.0,51.0,13.5,5.5,7.5,3.5,6.708203932499369,8.06225774829855,6.0,46.0,19.0,41.0,247.64894508154077,244.47699278255203,240.35390573069537,231.1384866265244
71,8,479,0,15.982633333333157,3.605551275463989,87.64131445842195,7.280109889280518,11.704699910719626,20.8806130178211,22.135943621178654,25.317977802344327,46.84015371452148,35.17101079013795,33.0,25.0,50.0,12.5,7.5,6.5,3.5,6.324555320336759,7.211102550927978,5.5,47.0,18.0,41.773197148410844,242.32416305436814,241.32343441945292,238.66503723838562,230.41918322917473
72,8,480,0,16.015999999999824,3.605551275463989,87.36131867136622,7.280109889280518,12.649110640673518,20.615528128088304,21.18962010041709,25.317977802344327,47.80167361086848,35.17101079013795,33.0,26.0,50.0,13.0,8.0,7.0,4.0,6.324555320336759,7.211102550927978,5.5,45.0,18.0,39.81205847478876,240.60756430336932,237.24459951703852,235.3146829248018,229.0
73,8,481,0,16.04936666666649,2.23606797749979,89.98888820293314,7.280109889280518,11.704699910719626,21.840329667841555,22.80350850198276,25.317977802344327,45.60701700396552,33.95585369269929,32.5,26.0,49.0,12.5,6.5,7.5,3.5,6.324555320336759,7.211102550927978,5.5,46.0,18.0,33.95585369269929,246.22144504490262,243.26323191144198,241.32343441945292,232.35533133543547
74,8,482,0,16.082733333333156,3.605551275463989,88.05679985100527,7.280109889280518,11.704699910719626,19.924858845171276,22.135943621178654,25.179356624028344,46.57252408878007,34.92849839314596,33.0,26.0,49.0,12.5,7.5,7.5,2.5,7.280109889280518,8.602325267042627,6.0,46.0,18.0,35.90264614203248,244.0491753725056,241.81397809059757,241.0808992848666,232.1077336066164
75,8,483,0,16.116099999999822,4.242640687119285,89.98888820293314,6.324555320336759,10.770329614269007,22.135943621178654,23.08679276123039,25.079872407968907,45.35416188179427,34.713109915419565,32.5,25.0,48.0,11.5,7.5,5.5,2.5,6.324555320336759,7.211102550927978,5.5,47.0,19.0,35.17101079013795,244.49948875202173,242.29321080046796,239.38462774372127,231.38712150852302
76,8,484,0,16.149466666666488,2.8284271247461903,90.95603333479313,6.324555320336759,10.770329614269007,21.18962010041709,21.840329667841555,26.1725046566048,45.35416188179427,34.713109915419565,33.0,25.0,48.0,10.5,7.5,5.5,1.5,5.385164807134504,7.810249675906654,5.5,45.0,17.0,38.07886552931954,246.0,242.78591392418136,240.8422720371156,231.62469643800938
77,8,485,0,16.182833333333154,4.242640687119285,90.95603333479313,6.324555320336759,9.848857801796104,21.840329667841555,22.135943621178654,26.076809620810597,45.35416188179427,35.6931365951495,33.5,24.0,47.0,9.5,8.5,4.5,1.5,6.324555320336759,7.211102550927978,5.5,45.0,17.0,39.05124837953327,247.52373623553763,243.29817097545143,240.3767875648562,232.13142829009604
78,8,486,0,16.21619999999982,2.8284271247461903,89.98888820293314,7.615773105863909,10.770329614269007,21.18962010041709,23.08679276123039,25.079872407968907,45.35416188179427,34.713109915419565,33.0,25.0,48.0,11.5,7.5,6.5,1.5,6.324555320336759,8.602325267042627,6.0,46.0,18.0,40.024992192379,242.099153240981,240.11039127867832,238.41560351621283,230.89391503458899
79,8,487,0,16.249566666666485,3.605551275463989,89.73850901368932,7.280109889280518,10.44030650891055,20.8806130178211,21.18962010041709,26.076809620810597,46.09772228646444,35.6931365951495,34.0,26.0,48.0,11.0,8.0,5.0,2.0,5.385164807134504,7.810249675906654,5.5,45.0,17.0,38.8329756778952,246.22144504490262,244.23349483639626,240.35390573069537,230.89391503458899
80,8,488,0,16.28293333333315,4.242640687119285,88.76936408468859,8.246211251235321,11.40175425099138,20.615528128088304,23.08679276123039,25.179356624028344,48.27007354458868,36.87817782917155,34.5,26.0,48.0,12.0,10.0,4.0,3.0,6.324555320336759,8.06225774829855,6.0,47.0,19.0,37.107950630558946,245.78242410717655,242.55308697272852,238.4302833114955,229.21169254643183
81,8,489,0,16.316299999999817,4.47213595499958,88.76936408468859,7.280109889280518,11.704699910719626,20.8806130178211,22.135943621178654,25.179356624028344,48.27007354458868,36.6742416417845,34.0,26.0,48.0,12.0,10.0,4.0,2.0,7.280109889280518,8.06225774829855,6.5,47.0,19.0,38.3275357934736,245.47301277329856,243.26323191144198,240.11039127867832,229.92390045404153
82,8,490,0,16.349666666666483,5.385164807134504,89.73850901368932,7.280109889280518,11.704699910719626,22.80350850198276,23.08679276123039,25.179356624028344,49.24428900898052,37.656340767525464,34.5,26.0,48.0,12.0,11.0,4.0,3.0,5.385164807134504,7.810249675906654,5.5,45.0,17.0,39.05124837953327,243.29817097545143,242.53865671269807,240.85265205099984,230.93072554339753
83,8,491,0,16.38303333333315,4.47213595499958,89.02246907382428,8.246211251235321,11.704699910719626,21.840329667841555,22.135943621178654,25.179356624028344,49.24428900898052,37.656340767525464,35.0,27.0,50.0,13.5,9.5,5.5,3.5,6.082762530298219,8.06225774829855,6.5,46.0,20.0,40.024992192379,243.0740627874558,242.05164738129753,238.17010727629108,229.20078533896867
84,8,492,0,16.416399999999815,5.0,88.76936408468859,8.246211251235321,12.649110640673518,20.8806130178211,22.135943621178654,25.079872407968907,50.21951811795888,37.656340767525464,35.0,27.0,49.0,13.0,11.0,4.0,3.0,6.324555320336759,7.615773105863909,6.5,47.0,20.0,37.107950630558946,242.32416305436814,241.0808992848666,239.14012628582432,230.6534196581529
85,8,493,0,16.44976666666648,4.47213595499958,88.05679985100527,7.615773105863909,12.36931687685298,20.8806130178211,23.08679276123039,26.1725046566048,50.21951811795888,37.8549864614954,35.0,27.0,50.0,12.5,10.5,4.5,2.5,6.324555320336759,8.06225774829855,6.0,46.0,18.0,38.07886552931954,244.49948875202173,242.29321080046796,239.38462774372127,230.41918322917473
86,8,494,0,16.483133333333146,5.0,89.73850901368932,7.280109889280518,12.649110640673518,20.8806130178211,22.135943621178654,25.079872407968907,49.24428900898052,36.6742416417845,34.0,27.0,49.0,13.0,10.0,5.0,3.0,5.385164807134504,7.211102550927978,5.5,44.0,17.0,37.8549864614954,232.83470531688354,232.15727427758966,230.76611536358627,223.48601745970598
87,8,495,0,16.516499999999812,5.656854249492381,89.02246907382428,7.280109889280518,13.601470508735444,20.8806130178211,22.135943621178654,26.076809620810597,51.419840528729765,37.8549864614954,35.0,27.0,50.0,12.5,11.5,4.5,2.5,5.0990195135927845,7.211102550927978,5.0,46.0,18.0,40.024992192379,234.04700382615454,233.3859464492239,230.76611536358627,222.25210910135362
88,8,496,0,16.549866666666478,5.0,89.73850901368932,9.219544457292887,12.649110640673518,20.8806130178211,22.135943621178654,25.019992006393608,50.99019513592785,38.47076812334269,36.0,28.0,50.0,14.0,11.0,4.0,3.0,6.082762530298219,8.06225774829855,6.0,45.0,18.0,41.97618372363071,232.36178687555318,233.1222855069845,231.19256043393784,223.91292950609173
89,8,497,0,16.583233333333144,5.385164807134504,89.73850901368932,8.54400374531753,14.560219778561036,20.615528128088304,23.08679276123039,25.019992006393608,52.952809179494906,38.47076812334269,35.5,28.0,50.0,14.0,13.0,4.0,4.0,5.0990195135927845,7.810249675906654,5.0,44.0,16.0,40.024992192379,235.01702066020664,233.65358974344906,232.0021551624036,223.76103324752503
90,8,498,0,16.61659999999981,5.385164807134504,87.80091115700337,7.280109889280518,13.601470508735444,19.924858845171276,21.18962010041709,26.30589287593181,52.392747589718944,38.8329756778952,35.5,28.0,50.0,13.0,12.0,4.0,3.0,6.324555320336759,8.06225774829855,6.0,46.0,18.0,41.0,239.92707225321615,237.44683615495913,234.79565583715555,226.80828909014767
91,8,499,0,16.649966666666476,4.47213595499958,87.80091115700337,7.280109889280518,12.649110640673518,20.8806130178211,21.840329667841555,26.076809620810597,50.00999900019995,37.48332962798263,35.0,28.0,50.0,13.0,10.0,5.0,3.0,6.324555320336759,7.810249675906654,5.0,45.0,19.0,35.90264614203248,247.19627828913605,243.9938523815713,241.0808992848666,232.83470531688354
92,8,500,0,16.68333333333314,5.0,87.80091115700337,7.280109889280518,12.649110640673518,19.924858845171276,21.18962010041709,25.079872407968907,49.24428900898052,36.6742416417845,34.0,27.0,49.0,13.0,10.0,5.0,3.0,5.0990195135927845,7.211102550927978,5.0,44.0,18.0,37.8549864614954,249.47945807220282,247.42069436488129,243.7580767892625,232.59621665022843
93,8,501,0,16.716699999999808,4.242640687119285,88.05679985100527,7.280109889280518,11.704699910719626,19.924858845171276,21.18962010041709,25.179356624028344,47.53945729601885,35.90264614203248,33.5,27.0,50.0,13.5,7.5,6.5,3.5,5.385164807134504,6.708203932499369,5.5,46.0,22.0,40.792156108742276,243.19539469323837,244.2723889431632,241.81397809059757,234.77648945326703
94,8,502,0,16.750066666666473,4.47213595499958,86.83317338436964,7.280109889280518,11.704699910719626,19.924858845171276,22.135943621178654,24.186773244895647,47.29693436154187,35.6931365951495,33.0,26.0,48.0,13.0,9.0,6.0,4.0,5.385164807134504,7.211102550927978,5.5,43.0,18.0,33.95585369269929,245.47301277329856,244.23349483639626,242.05164738129753,233.0772404161333
95,8,503,0,16.78343333333314,4.47213595499958,86.83317338436964,8.246211251235321,12.36931687685298,19.924858845171276,21.840329667841555,21.213203435596427,46.09772228646444,33.734255586866,31.0,25.0,47.0,15.0,9.0,6.0,4.0,5.385164807134504,7.211102550927978,5.0,42.0,17.0,32.01562118716424,245.0244885720609,243.7580767892625,242.78591392418136,232.59621665022843
96,8,504,0,16.816799999999805,4.47213595499958,84.8999411071645,8.246211251235321,14.317821063276353,19.6468827043885,20.8806130178211,23.345235059857504,50.21951811795888,35.90264614203248,33.0,28.0,50.0,16.0,10.0,7.0,6.0,4.47213595499958,6.4031242374328485,4.0,41.0,17.0,33.734255586866,247.52373623553763,245.0244885720609,242.32416305436814,233.10512649875378
97,8,505,0,16.85016666666647,7.280109889280518,79.07591289387686,8.06225774829855,13.341664064126334,20.615528128088304,21.840329667841555,21.37755832643195,50.00999900019995,36.6742416417845,32.5,30.0,48.0,18.0,10.0,6.0,8.0,7.0710678118654755,8.06225774829855,6.0,41.0,16.0,31.78049716414141,246.22144504490262,240.60756430336932,237.22773868163057,228.98253208487324
98,8,506,0,16.883533333333137,7.280109889280518,84.40379138403677,8.246211251235321,16.278820596099706,20.615528128088304,22.561028345356956,20.396078054371138,52.172789842982326,35.90264614203248,31.5,29.0,49.0,19.0,12.0,7.0,8.0,7.280109889280518,8.54400374531753,7.5,41.0,17.0,31.575306807693888,250.3437636531016,245.70307283385773,241.58021442162848,231.62469643800938
99,8,507,0,16.916899999999803,6.082762530298219,78.84795495128583,9.219544457292887,15.524174696260024,21.587033144922902,22.80350850198276,21.587033144922902,52.392747589718944,36.87817782917155,33.0,32.0,53.0,21.5,8.5,9.5,10.5,7.0710678118654755,8.94427190999916,7.5,40.0,16.0,33.54101966249684,243.82985871299684,240.3767875648562,236.48467180770933,227.03523955544875
100,8,508,0,16.95026666666647,6.324555320336759,78.85429601486528,10.04987562112089,15.297058540778355,20.615528128088304,21.587033144922902,19.6468827043885,51.19570294468082,35.90264614203248,32.0,31.0,48.0,20.5,10.5,6.5,8.5,9.055385138137417,9.848857801796104,8.0,39.0,15.0,34.52535300326414,247.42069436488129,243.02263269086689,238.89956048515452,230.41701326073994
101,8,509,0,16.983633333333135,5.385164807134504,81.49233092751734,9.219544457292887,16.492422502470642,20.615528128088304,21.587033144922902,21.587033144922902,52.630789467763066,36.138621999185304,32.5,30.0,50.0,19.0,11.0,7.0,8.0,9.219544457292887,9.486832980505138,8.5,39.0,16.0,35.510561809129406,247.14570601165622,242.78797334299736,239.17566765873153,229.7063342618135
102,8,510,0,17.0169999999998,5.385164807134504,81.25269226308751,8.06225774829855,16.492422502470642,20.396078054371138,22.561028345356956,22.561028345356956,52.392747589718944,35.90264614203248,32.5,32.0,51.0,19.5,9.5,8.5,9.5,9.055385138137417,11.40175425099138,10.0,40.0,16.0,33.734255586866,244.7304639802736,241.32343441945292,238.17010727629108,229.92390045404153
103,8,511,0,17.050366666666466,5.0990195135927845,82.22530024268686,9.219544457292887,14.560219778561036,19.4164878389476,20.8806130178211,22.561028345356956,51.419840528729765,36.87817782917155,33.5,31.0,50.0,18.5,9.5,7.5,8.5,9.219544457292887,10.770329614269007,9.0,38.0,15.0,34.52535300326414,245.246814454337,239.87079855622275,236.47832881682837,228.23233776132602
104,8,512,0,17.083733333333132,4.123105625617661,80.2807573457052,9.219544457292887,15.524174696260024,17.46424919657298,19.4164878389476,22.561028345356956,51.419840528729765,35.90264614203248,33.0,33.0,52.0,20.5,7.5,9.5,9.5,9.219544457292887,9.848857801796104,9.0,38.0,16.0,35.35533905932738,248.1713117989265,243.52617929085162,238.66294224282078,228.47319317591726
105,8,513,0,17.117099999999798,2.23606797749979,80.8084154033477,9.219544457292887,15.297058540778355,18.24828759089466,18.681541692269406,24.331050121192877,50.99019513592785,35.6931365951495,34.0,32.0,49.0,16.5,9.5,7.5,6.5,10.198039027185569,11.40175425099138,10.0,37.0,16.0,36.49657518178932,247.52373623553763,244.0491753725056,238.9518780005715,229.95651762887695
106,8,514,0,17.150466666666464,2.23606797749979,80.049984384758,9.219544457292887,15.297058540778355,17.26267650163207,18.681541692269406,24.515301344262525,50.44799302251776,35.17101079013795,33.5,31.0,49.0,16.0,9.0,8.0,6.0,10.04987562112089,11.704699910719626,10.0,37.0,15.0,36.49657518178932,240.68444071023785,237.69097584889502,235.01702066020664,227.26416347501865
107,8,515,0,17.18383333333313,2.0,76.90253571892151,9.219544457292887,15.524174696260024,18.439088914585774,19.4164878389476,23.345235059857504,48.507731342539614,32.984845004941285,32.0,32.0,49.0,17.5,6.5,10.5,7.5,9.055385138137417,10.770329614269007,9.0,37.0,16.0,35.510561809129406,246.0,242.78591392418136,237.69097584889502,228.7116088002531
108,8,516,0,17.217199999999796,2.0,77.87810988975015,10.04987562112089,16.492422502470642,19.4164878389476,19.4164878389476,24.515301344262525,51.419840528729765,34.92849839314596,34.0,34.0,51.0,18.5,7.5,10.5,7.5,10.04987562112089,9.486832980505138,9.0,37.0,17.0,36.345563690772494,244.1741182025646,240.9024698918631,237.69097584889502,227.98464860599717
109,8,517,0,17.25056666666646,4.242640687119285,74.95331880577403,10.198039027185569,15.297058540778355,17.46424919657298,18.439088914585774,22.360679774997898,51.419840528729765,36.138621999185304,33.5,34.0,51.0,20.5,7.5,10.5,8.5,10.198039027185569,11.704699910719626,10.0,36.0,17.0,34.23448553724738,244.95101551126504,241.8780684559888,237.22773868163057,227.50164834567684
110,8,518,0,17.283933333333128,4.242640687119285,73.97972695272672,10.04987562112089,16.278820596099706,18.24828759089466,19.6468827043885,23.769728648009426,53.600373133029585,37.36308338453881,34.5,37.0,54.0,22.5,6.5,11.5,11.5,10.198039027185569,11.40175425099138,10.0,35.0,16.0,32.38826948140329,246.33716731342025,242.099153240981,235.28068344001383,226.53035116734358
111,8,519,0,17.317299999999793,4.242640687119285,69.12307863514182,11.045361017187261,17.46424919657298,18.439088914585774,19.6468827043885,23.769728648009426,55.78530272392541,38.3275357934736,35.5,40.0,57.0,25.5,5.5,13.5,12.5,8.246211251235321,9.486832980505138,8.5,34.0,15.0,35.22782990761707,248.67649667791284,245.15301344262525,239.49321493520438,228.98253208487324
112,8,520,0,17.35066666666646,5.0,68.65857557508748,12.041594578792296,16.278820596099706,17.46424919657298,18.439088914585774,21.840329667841555,54.57105459856901,38.3275357934736,35.0,41.0,56.0,27.5,4.5,13.5,13.5,10.198039027185569,12.36931687685298,10.5,35.0,17.0,37.21558813185679,238.0966190436143,234.8297255459794,230.6534196581529,221.92341021172146
113,8,521,0,17.384033333333125,4.47213595499958,69.42621983083913,12.165525060596439,16.278820596099706,18.24828759089466,19.235384061671343,22.80350850198276,55.54277630799526,39.293765408777,36.0,44.0,58.0,29.0,3.0,15.0,16.0,11.045361017187261,12.36931687685298,11.0,35.0,17.0,35.35533905932738,238.8723508487326,233.85465571589546,229.21169254643183,219.25555865245468
114,8,522,0,17.41739999999979,6.324555320336759,66.48308055437865,12.165525060596439,16.278820596099706,17.26267650163207,17.46424919657298,22.561028345356956,57.271284253105414,41.0,37.0,43.0,61.0,30.0,4.0,15.0,17.0,12.041594578792296,13.341664064126334,12.0,32.0,15.0,37.21558813185679,239.8520377232597,235.05318547086316,230.41701326073994,219.73848092675985
115,8,523,0,17.450766666666457,5.385164807134504,68.8839603971781,11.045361017187261,16.278820596099706,18.24828759089466,18.439088914585774,21.840329667841555,54.3415126767741,38.07886552931954,34.5,40.0,56.0,27.0,5.0,13.0,15.0,12.041594578792296,13.341664064126334,12.0,34.0,18.0,36.345563690772494,248.2982078066614,242.21684499637922,235.58650216003463,225.61028345356956
116,8,524,0,17.484133333333123,5.0,67.68308503607086,10.04987562112089,16.278820596099706,17.26267650163207,18.439088914585774,22.561028345356956,53.36665625650534,37.107950630558946,34.0,40.0,55.0,25.5,4.5,13.5,14.5,12.041594578792296,12.165525060596439,11.0,35.0,18.0,36.124783736376884,247.50353532828578,241.61539686038222,236.32393023136697,227.1079038695043
117,8,525,0,17.51749999999979,3.1622776601683795,66.49060083951716,11.180339887498949,17.26267650163207,17.26267650163207,18.24828759089466,23.345235059857504,54.91812087098393,37.656340767525464,35.5,44.0,58.0,28.0,3.0,16.0,16.0,13.038404810405298,12.36931687685298,11.5,37.0,20.0,32.2490309931942,246.3331078032346,241.2343259156955,235.15314159075146,224.770994570029
118,8,526,0,17.550866666666455,3.605551275463989,66.49060083951716,10.04987562112089,18.24828759089466,18.439088914585774,19.4164878389476,23.345235059857504,54.91812087098393,36.6742416417845,34.5,43.0,57.0,27.0,4.0,16.0,15.0,13.038404810405298,13.341664064126334,12.5,37.0,18.0,35.22782990761707,245.73359558676546,239.26972228010797,232.81967270830015,223.2576986354558
119,8,527,0,17.58423333333312,3.1622776601683795,68.8839603971781,10.198039027185569,17.26267650163207,19.235384061671343,20.396078054371138,24.331050121192877,54.91812087098393,37.656340767525464,35.5,40.0,56.0,24.0,6.0,13.0,13.0,12.165525060596439,13.341664064126334,12.0,39.0,19.0,34.23448553724738,244.1741182025646,237.89283301520456,231.6139028642279,221.0271476538572
120,8,528,0,17.617599999999786,4.47213595499958,69.85699678629192,10.04987562112089,17.26267650163207,18.24828759089466,20.396078054371138,24.515301344262525,56.089214649520635,38.8329756778952,36.0,39.0,55.0,23.0,8.0,12.0,12.0,12.041594578792296,12.36931687685298,11.5,39.0,20.0,34.23448553724738,248.2982078066614,242.404620418011,235.34230388946224,225.33752461585266
121,8,529,0,17.650966666666452,4.123105625617661,74.73285756613352,9.055385138137417,16.278820596099706,18.24828759089466,20.615528128088304,24.331050121192877,53.75872022286245,37.48332962798263,35.0,33.0,49.0,17.0,12.0,6.0,7.0,13.152946437965905,13.341664064126334,12.5,40.0,20.0,33.54101966249684,245.3507693079441,240.44126101815388,235.53555994796199,225.53491969094276
122,8,530,0,17.684333333333118,5.385164807134504,79.83107164506812,8.246211251235321,15.524174696260024,18.439088914585774,20.8806130178211,27.16615541441225,56.089214649520635,40.607881008493905,37.5,33.0,50.0,14.5,13.5,4.5,5.5,12.165525060596439,13.341664064126334,12.0,40.0,20.0,37.48332962798263,242.66231681083076,237.73935307390738,232.01939574095957,222.80484734403782
123,8,531,0,17.717699999999784,4.47213595499958,81.78630692236935,9.219544457292887,15.132745950421556,19.4164878389476,19.6468827043885,25.079872407968907,53.600373133029585,38.47076812334269,36.0,31.0,48.0,14.5,13.5,3.5,4.5,14.142135623730951,14.142135623730951,13.5,41.0,20.0,37.48332962798263,243.82165613415063,239.08366736354034,235.95126615468712,225.93804460515275
124,8,532,0,17.75106666666645,4.47213595499958,81.39410298049853,8.06225774829855,16.278820596099706,18.439088914585774,20.615528128088304,26.076809620810597,54.589376255824725,38.3275357934736,36.0,31.0,46.0,12.5,15.5,3.5,3.5,13.152946437965905,13.341664064126334,12.5,42.0,22.0,35.22782990761707,244.80604567698077,240.06665740997852,235.95126615468712,224.95555116511352
125,8,533,0,17.784433333333116,4.123105625617661,84.72307831990054,7.280109889280518,15.524174696260024,19.6468827043885,20.615528128088304,25.019992006393608,51.62363799656123,36.22154055254967,34.0,28.0,45.0,11.5,14.5,3.5,2.5,14.035668847618199,14.142135623730951,13.0,42.0,22.0,30.59411708155671,245.44856895080892,239.88538930080756,235.95126615468712,225.93804460515275
126,8,534,0,17.81779999999978,3.1622776601683795,84.72307831990054,7.0710678118654755,15.524174696260024,20.615528128088304,21.37755832643195,25.079872407968907,50.635955604688654,35.22782990761707,33.5,26.0,43.0,9.5,15.5,2.5,1.5,15.297058540778355,14.142135623730951,13.5,43.0,23.0,31.400636936215164,245.44856895080892,240.8692591427972,237.11811402758752,226.12607103118384
127,8,535,0,17.851166666666447,3.1622776601683795,84.52810183601665,8.246211251235321,15.297058540778355,19.6468827043885,20.615528128088304,25.019992006393608,51.478150704935004,36.22154055254967,34.5,27.0,43.0,10.0,16.0,2.0,1.0,15.132745950421556,15.132745950421556,14.5,41.0,23.0,32.2490309931942,246.27017683836587,241.67747102284898,237.73935307390738,226.73773395709856
128,8,536,0,17.884533333333113,3.605551275463989,83.74365647617735,7.0710678118654755,16.1245154965971,20.396078054371138,21.587033144922902,25.079872407968907,51.478150704935004,35.35533905932738,33.5,25.0,42.0,8.5,17.5,1.5,0.5,16.1245154965971,15.132745950421556,15.0,42.0,24.0,33.24154027718932,244.8121728999602,240.3518254559345,236.75514777930383,225.93804460515275
129,8,537,0,17.91789999999978,7.0710678118654755,73.7563556583431,11.0,19.235384061671343,22.561028345356956,24.73863375370596,46.0,69.1158447825099,50.00999900019995,53.5,52.0,68.0,14.0,9.0,15.0,2.0,14.317821063276353,15.132745950421556,14.0,40.0,23.0,32.38826948140329,261.0823624835657,260.049995193232,251.26878039263056,237.77510382712484
130,8,538,0,17.951266666666445,2.8284271247461903,82.22530024268686,8.06225774829855,15.132745950421556,20.396078054371138,21.587033144922902,24.186773244895647,49.64876634922564,34.52535300326414,33.0,25.0,44.0,10.5,14.5,4.5,1.5,16.1245154965971,16.1245154965971,15.5,42.0,24.0,35.22782990761707,241.13274352522097,239.87079855622275,235.42302351299458,226.73773395709856
131,8,539,0,17.98463333333311,3.1622776601683795,82.76472678623425,7.280109889280518,15.297058540778355,19.4164878389476,20.615528128088304,25.079872407968907,50.635955604688654,35.35533905932738,33.5,25.0,42.0,8.5,16.5,2.5,0.5,15.297058540778355,15.132745950421556,14.5,41.0,25.0,35.22782990761707,239.88330496305906,238.43657437566074,235.9194777885031,228.02192877001983
132,8,540,0,18.017999999999777,2.8284271247461903,81.58431221748455,7.0710678118654755,15.132745950421556,19.4164878389476,20.396078054371138,25.019992006393608,49.36598018878993,34.23448553724738,33.0,25.0,41.0,8.0,16.0,2.0,0.0,16.278820596099706,16.1245154965971,15.5,41.0,24.0,35.22782990761707,245.0979396078229,242.6849809938802,239.3658288060349,229.68892006363737
133,8,541,0,18.051366666666443,1.4142135623730951,82.76472678623425,7.0710678118654755,15.297058540778355,19.4164878389476,21.840329667841555,25.019992006393608,48.373546489791295,33.13608305156178,32.5,23.0,40.0,6.5,16.5,2.5,0.5,15.132745950421556,16.1245154965971,15.5,39.0,23.0,35.22782990761707,235.33168082517068,235.32530675641326,232.29722340140012,223.9732126840172
134,8,542,0,18.08473333333311,2.23606797749979,81.78630692236935,6.324555320336759,14.317821063276353,19.4164878389476,20.615528128088304,25.0,47.38143096192854,33.13608305156178,32.0,22.0,39.0,5.5,16.5,1.5,1.5,15.132745950421556,14.142135623730951,14.0,39.0,24.0,33.24154027718932,239.30942313247925,238.43657437566074,236.24140195994434,227.90348834539589
135,8,543,0,18.11809999999977,2.8284271247461903,81.58431221748455,7.0710678118654755,13.152946437965905,19.4164878389476,20.615528128088304,24.0,46.2709412050371,33.13608305156178,32.0,22.0,38.0,6.0,16.0,1.0,1.0,15.297058540778355,14.142135623730951,14.0,41.0,25.0,32.2490309931942,248.81519246219673,246.49746449000241,242.98971171636055,233.62576912660984
136,8,544,0,18.15146666666644,3.1622776601683795,83.54639429682169,5.0990195135927845,13.152946437965905,19.4164878389476,21.587033144922902,25.019992006393608,46.2709412050371,33.13608305156178,31.5,21.0,37.0,4.0,17.0,0.0,2.0,14.142135623730951,14.142135623730951,14.0,41.0,25.0,33.13608305156178,248.58197842965205,247.34793308212625,243.82370680473218,234.43762496664223
137,8,545,0,18.184833333333103,2.23606797749979,84.52810183601665,6.082762530298219,14.317821063276353,19.6468827043885,20.615528128088304,25.019992006393608,47.38143096192854,33.13608305156178,32.0,20.0,36.0,3.0,19.0,1.0,5.0,15.297058540778355,15.033296378372908,15.0,41.0,24.0,33.24154027718932,251.67637950352037,248.33847869389874,243.82370680473218,235.42302351299458
138,8,546,0,18.21819999999977,1.4142135623730951,85.5102333057278,7.280109889280518,14.317821063276353,20.615528128088304,21.840329667841555,24.020824298928627,46.2709412050371,32.0624390837628,31.5,20.0,36.0,4.0,18.0,0.0,4.0,15.297058540778355,15.033296378372908,15.0,42.0,25.0,34.36568055487916,253.03161857759991,248.91765706755317,244.46267608778237,234.17087777945403
139,8,547,0,18.25156666666644,2.23606797749979,85.90692637965812,6.082762530298219,14.142135623730951,20.615528128088304,20.8806130178211,25.019992006393608,47.265209192385896,33.13608305156178,32.0,19.0,37.0,3.0,19.0,1.0,4.0,15.297058540778355,15.132745950421556,15.0,41.0,23.0,33.37663853655727,250.68306683938587,246.64144015148793,241.50569351466643,234.17087777945403
140,8,548,0,18.284933333333104,2.23606797749979,87.66413177577246,5.0990195135927845,14.317821063276353,19.6468827043885,21.587033144922902,24.0,45.27692569068709,31.064449134018133,30.0,18.0,35.0,2.5,18.5,0.5,4.5,15.297058540778355,14.035668847618199,14.0,41.0,24.0,33.24154027718932,252.30140705116966,249.07227866625382,245.6175889467202,235.15314159075146
141,8,549,0,18.31829999999977,2.23606797749979,86.88498144098322,7.0710678118654755,12.165525060596439,20.615528128088304,21.840329667841555,24.08318915758459,45.39823785126467,33.24154027718932,32.0,20.0,38.0,5.0,16.0,0.0,3.0,15.297058540778355,15.033296378372908,15.0,41.0,22.0,32.2490309931942,251.17722826721374,247.25695136840946,243.0164603478538,234.75306174787156
142,8,550,0,18.35166666666644,3.1622776601683795,88.64536084872124,5.0990195135927845,13.341664064126334,20.396078054371138,21.587033144922902,25.019992006393608,46.389654018972806,33.13608305156178,31.5,20.0,37.0,3.5,17.5,0.5,2.5,16.278820596099706,16.1245154965971,15.5,41.0,23.0,34.23448553724738,247.08095839218367,244.8121728999602,242.16110340019515,232.6413548791358
143,8,551,0,18.3850333333331,2.0,88.64536084872124,6.324555320336759,14.142135623730951,20.615528128088304,21.587033144922902,24.020824298928627,46.2709412050371,32.14031735997639,31.0,20.0,37.0,4.5,17.5,0.5,3.5,15.297058540778355,15.033296378372908,14.5,41.0,23.0,31.25699921617557,250.59928172283335,246.7752013472991,242.99176940793694,236.78048906107108
144,8,552,0,18.418399999999767,1.4142135623730951,87.86353054595519,6.324555320336759,13.341664064126334,20.615528128088304,21.840329667841555,24.0,44.40720662234904,31.144823004794873,30.5,18.0,36.0,3.0,17.0,1.0,4.0,16.278820596099706,16.1245154965971,15.5,41.0,21.0,33.37663853655727,253.4284909002932,248.4069242191127,243.19950657844683,234.75306174787156
145,8,553,0,18.45176666666644,2.8284271247461903,86.12200647918046,5.0990195135927845,10.198039027185569,20.615528128088304,21.587033144922902,25.019992006393608,42.42640687119285,32.2490309931942,31.0,19.0,38.0,3.5,13.5,0.5,3.5,14.317821063276353,14.142135623730951,14.0,41.0,21.0,39.6232255123179,251.88290930509754,247.93547547698776,243.57750306627253,236.56288804459587
146,8,554,0,18.4851333333331,2.23606797749979,85.72630868059116,9.055385138137417,13.601470508735444,25.0,25.632011235952593,24.0,45.5411901469428,32.14031735997639,32.5,21.0,46.0,9.5,11.5,6.5,1.5,14.317821063276353,15.033296378372908,14.5,35.0,16.0,33.54101966249684,254.16726775885206,252.21022976873877,247.14570601165622,240.9336008115099
147,8,555,0,18.518499999999765,1.4142135623730951,87.0976463516667,5.385164807134504,13.601470508735444,19.6468827043885,20.8806130178211,25.019992006393608,44.721359549995796,31.25699921617557,30.5,19.0,38.0,3.5,15.5,0.5,3.5,15.297058540778355,16.278820596099706,15.0,42.0,21.0,33.37663853655727,252.03571175529868,248.2982078066614,242.99176940793694,234.39496581624786
148,8,556,0,18.55186666666643,1.4142135623730951,86.12200647918046,6.082762530298219,12.36931687685298,19.6468827043885,20.8806130178211,24.186773244895647,43.73785545725808,31.400636936215164,30.5,19.0,38.0,4.5,14.5,1.5,2.5,15.132745950421556,15.132745950421556,14.5,43.0,22.0,33.37663853655727,250.89440009693323,247.93547547698776,243.97130978867168,236.02754076590298
149,8,557,0,18.585233333333097,2.23606797749979,86.88498144098322,6.082762530298219,12.36931687685298,19.6468827043885,21.840329667841555,24.08318915758459,43.73785545725808,31.400636936215164,30.5,19.0,37.0,4.0,15.0,0.0,4.0,15.132745950421556,15.297058540778355,15.0,43.0,21.0,32.7566787083184,253.4284909002932,249.7298540423231,244.36857408431223,236.34931774811622
150,8,558,0,18.618599999999763,2.23606797749979,88.84255736976509,5.0990195135927845,12.36931687685298,20.615528128088304,21.18962010041709,27.018512172212592,45.5411901469428,33.24154027718932,32.5,20.0,38.0,2.0,16.0,1.0,4.0,16.278820596099706,15.132745950421556,15.0,43.0,22.0,33.37663853655727,246.1097316239242,243.82165613415063,242.21684499637922,232.39836488237177
151,8,559,0,18.65196666666643,3.1622776601683795,89.49860334105779,4.47213595499958,11.704699910719626,19.6468827043885,21.18962010041709,26.1725046566048,45.12205669071391,33.54101966249684,31.5,18.0,39.0,2.5,15.5,0.5,3.5,16.278820596099706,15.132745950421556,15.0,44.0,22.0,35.510561809129406,245.9532475898621,245.16525039246488,243.77243486497812,236.56288804459587
152,8,560,0,18.68533333333309,2.23606797749979,89.26925562588724,6.082762530298219,12.36931687685298,19.924858845171276,21.18962010041709,25.079872407968907,44.721359549995796,32.38826948140329,31.5,19.0,39.0,4.0,15.0,1.0,4.0,16.492422502470642,16.0312195418814,15.5,43.0,21.0,34.713109915419565,248.2438317461282,246.3331078032346,242.79209212822397,234.18368858654523
153,8,561,0,18.71869999999976,2.23606797749979,89.05054744357274,6.324555320336759,12.36931687685298,20.615528128088304,20.8806130178211,25.019992006393608,44.721359549995796,32.38826948140329,31.5,19.0,38.0,3.5,15.5,0.5,4.5,17.26267650163207,17.029386365926403,16.5,43.0,21.0,35.510561809129406,246.27017683836587,244.1823089414956,241.61539686038222,233.97649454592656
154,8,562,0,18.752066666666423,2.8284271247461903,89.49860334105779,5.0990195135927845,11.40175425099138,18.973665961010276,20.8806130178211,26.1725046566048,44.91102314577124,33.54101966249684,32.0,18.0,39.0,2.5,15.5,0.5,4.5,15.297058540778355,16.0312195418814,15.5,44.0,21.0,37.48332962798263,242.83533515532702,242.8373941550189,240.8318915758459,235.80500418778223
155,8,563,0,18.78543333333309,2.0,85.37564055396598,6.082762530298219,12.36931687685298,18.681541692269406,19.924858845171276,24.020824298928627,42.579337712087536,30.265491900843113,30.0,17.0,37.0,3.0,15.0,0.0,4.0,16.492422502470642,16.278820596099706,15.5,44.0,21.0,32.7566787083184,253.71243564319033,250.26386075500395,245.93088459971838,236.78048906107108
156,8,564,0,18.81879999999976,1.0,87.32124598286491,6.324555320336759,12.649110640673518,20.615528128088304,21.840329667841555,25.079872407968907,43.93176527297759,31.400636936215164,31.0,18.0,38.0,3.0,15.0,1.0,4.0,17.46424919657298,17.11724276862369,16.5,44.0,22.0,33.54101966249684,246.27017683836587,245.3507693079441,243.19539469323837,233.85465571589546
157,8,565,0,18.852166666666424,5.385164807134504,84.20213774008353,10.198039027185569,13.341664064126334,21.840329667841555,22.135943621178654,25.019992006393608,43.73785545725808,30.4138126514911,32.5,23.0,46.0,9.5,8.5,8.5,2.5,15.297058540778355,15.132745950421556,14.5,42.0,20.0,35.510561809129406,252.3529274646918,250.63918289046507,245.56872765073325,238.20159529272678
158,8,566,0,18.88553333333309,1.4142135623730951,86.12200647918046,6.324555320336759,11.704699910719626,18.681541692269406,19.924858845171276,25.019992006393608,43.73785545725808,32.2490309931942,31.5,18.0,37.0,2.5,15.5,0.5,4.5,15.297058540778355,15.132745950421556,15.0,43.0,21.0,33.54101966249684,256.14253844295365,252.23005372080465,248.09070921741508,238.73206738936435
159,8,567,0,18.91889999999976,2.0,91.67878707749138,9.219544457292887,16.492422502470642,21.840329667841555,23.40939982143925,25.0,50.635955604688654,34.23448553724738,34.0,19.0,41.0,5.0,20.0,1.0,5.0,14.317821063276353,14.035668847618199,13.5,40.0,19.0,33.734255586866,251.88290930509754,249.28096598015662,245.35892076710803,238.66294224282078
160,8,568,0,18.95226666666642,2.23606797749979,88.29496021857646,6.082762530298219,11.180339887498949,19.924858845171276,20.8806130178211,24.186773244895647,43.56604182158393,32.38826948140329,31.0,19.0,39.0,5.0,14.0,1.0,3.0,16.278820596099706,17.029386365926403,16.0,42.0,22.0,36.345563690772494,255.47602627252522,250.63918289046507,246.5461417260469,239.17566765873153
161,8,569,0,18.985633333333087,1.4142135623730951,92.44457799135652,10.04987562112089,15.297058540778355,25.0,26.248809496813376,22.02271554554524,46.389654018972806,31.144823004794873,31.5,17.0,42.0,7.5,16.5,4.5,3.5,14.142135623730951,14.035668847618199,13.5,39.0,24.0,35.22782990761707,251.3662666309861,251.0298786997277,248.39484696748443,241.0808992848666
162,8,570,0,19.01899999999976,2.8284271247461903,93.00537618869137,9.219544457292887,13.601470508735444,23.769728648009426,26.570660511172846,23.021728866442675,47.853944456021594,34.36568055487916,33.0,19.0,46.0,9.5,14.5,4.5,0.5,14.317821063276353,16.1245154965971,15.5,41.0,25.0,37.12142238654117,247.13154391942766,249.3692041933005,246.19707553096563,238.60008382228202
163,8,571,0,19.05236666666642,4.47213595499958,86.40023148117139,6.324555320336759,15.297058540778355,21.18962010041709,23.40939982143925,22.20360331117452,48.05205510693585,32.7566787083184,30.0,18.0,42.0,8.0,17.0,3.0,1.0,12.36931687685298,14.142135623730951,13.0,47.0,34.0,41.10960958218893,251.88290930509754,248.114892741246,245.15301344262525,235.05318547086316
164,8,572,0,19.085733333333085,6.708203932499369,86.40023148117139,7.280109889280518,16.278820596099706,22.80350850198276,24.041630560342615,20.223748416156685,50.21951811795888,33.95585369269929,30.0,18.0,42.0,10.0,19.0,2.0,1.0,7.280109889280518,8.54400374531753,7.5,49.0,28.0,40.44749683231337,245.6175889467202,244.36857408431223,242.79209212822397,232.99785406737118
165,8,573,0,19.11909999999975,5.385164807134504,86.33075929238663,8.246211251235321,16.492422502470642,23.08679276123039,25.298221281347036,21.37755832643195,51.419840528729765,34.92849839314596,31.5,20.0,47.0,12.5,16.5,4.5,2.5,5.0990195135927845,6.708203932499369,5.5,52.0,22.0,36.87817782917155,241.04978738841484,241.23847122712414,241.12444919584576,232.59621665022843
166,8,574,0,19.152466666666417,8.246211251235321,85.72630868059116,8.246211251235321,16.492422502470642,22.80350850198276,24.041630560342615,19.4164878389476,52.392747589718944,35.90264614203248,31.0,19.0,44.0,12.5,19.5,1.5,2.5,4.47213595499958,7.211102550927978,5.5,51.0,23.0,37.656340767525464,239.459808736247,240.26027553467927,239.49321493520438,229.73245308401684
167,8,575,0,19.185833333333083,8.54400374531753,87.36131867136622,8.246211251235321,17.46424919657298,23.08679276123039,25.298221281347036,20.396078054371138,54.57105459856901,37.107950630558946,32.0,21.0,45.0,13.0,20.0,2.0,2.0,5.0990195135927845,8.06225774829855,6.5,51.0,33.0,42.190046219457976,244.36857408431223,242.21684499637922,239.92707225321615,232.59621665022843
168,8,576,0,19.21919999999975,5.830951894845301,87.36131867136622,8.246211251235321,17.46424919657298,23.08679276123039,24.351591323771842,20.396078054371138,51.66236541235796,34.20526275297414,30.5,20.0,44.0,12.0,18.0,3.0,1.0,3.1622776601683795,6.4031242374328485,4.5,52.0,31.0,43.289721643826724,242.21684499637922,242.01239637671455,239.07530194480566,230.27375013231534
169,8,577,0,19.25256666666641,3.605551275463989,86.83317338436964,9.219544457292887,18.439088914585774,22.80350850198276,24.041630560342615,20.396078054371138,51.419840528729765,32.984845004941285,30.5,22.0,44.0,13.0,17.0,4.0,2.0,6.082762530298219,8.94427190999916,7.5,50.0,29.0,42.2965719651132,241.61539686038222,241.4477169078225,238.51624682608102,229.2967509582288
170,8,578,0,19.28593333333308,5.0,89.98888820293314,10.198039027185569,18.439088914585774,24.73863375370596,24.73863375370596,20.396078054371138,53.600373133029585,35.17101079013795,32.0,22.0,45.0,13.5,18.5,3.5,1.5,6.324555320336759,9.486832980505138,8.0,48.0,29.0,41.43669871020132,236.7129062810053,237.9768896342668,238.4302833114955,231.62469643800938
171,8,579,0,19.319299999999743,5.385164807134504,90.52071586106685,11.40175425099138,18.681541692269406,23.769728648009426,25.96150997149434,21.37755832643195,56.753854494650845,38.07886552931954,34.5,21.0,46.0,12.5,21.5,0.5,0.5,6.324555320336759,8.54400374531753,8.0,46.0,30.0,47.16990566028302,237.53947040439405,238.4302833114955,235.9872877932199,229.20078533896867
172,8,580,0,19.35266666666641,11.40175425099138,88.32326986700618,10.198039027185569,18.439088914585774,21.840329667841555,24.041630560342615,21.587033144922902,61.61168720299745,43.174066289845804,36.5,25.0,49.0,16.0,23.0,1.0,3.0,11.180339887498949,12.36931687685298,11.0,45.0,27.0,42.190046219457976,243.402958075698,240.9024698918631,238.20159529272678,228.23890991677996
173,8,581,0,19.38603333333308,13.152946437965905,88.60022573334675,10.44030650891055,17.72004514666935,23.08679276123039,25.0,21.587033144922902,62.81719509815764,45.12205669071391,37.5,26.0,51.0,17.5,22.5,1.5,4.5,11.40175425099138,12.36931687685298,11.5,44.0,23.0,39.319206502675,243.82985871299684,241.3503677229434,238.66294224282078,227.74108105478027
174,8,582,0,19.419399999999744,14.317821063276353,89.56003573022959,9.219544457292887,17.72004514666935,22.80350850198276,24.041630560342615,22.561028345356956,63.788713735268246,46.09772228646444,38.0,27.0,52.0,17.5,22.5,1.5,5.5,12.36931687685298,12.36931687685298,11.5,44.0,20.0,39.45883931389772,244.23349483639626,243.04114877937852,238.91839611047115,229.0
175,8,583,0,19.45276666666641,10.44030650891055,90.13878188659973,8.54400374531753,16.76305461424021,23.08679276123039,25.298221281347036,23.345235059857504,58.9406481131655,42.20189569201838,36.0,25.0,52.0,15.5,18.5,1.5,3.5,9.219544457292887,10.44030650891055,10.0,42.0,17.0,35.6931365951495,245.20399670478457,244.2642012248213,238.20999139414786,230.4951192541829
176,8,584,0,19.48613333333308,5.0,91.09335870413386,9.486832980505138,16.76305461424021,23.08679276123039,25.298221281347036,23.345235059857504,54.120236510939236,37.36308338453881,34.0,25.0,52.0,15.5,13.5,6.5,3.5,12.36931687685298,12.36931687685298,11.5,45.0,17.0,36.87817782917155,249.35316320431951,246.5623653358314,241.76021178018522,233.52087701102872
177,8,585,0,19.51949999999974,4.242640687119285,92.04890004774636,8.54400374531753,14.866068747318506,23.40939982143925,23.40939982143925,23.345235059857504,50.28916384272063,35.4400902933387,32.5,23.0,50.0,13.5,11.5,6.5,1.5,11.180339887498949,12.36931687685298,11.5,44.0,15.0,34.713109915419565,246.19707553096563,244.36448187083164,239.5600133578223,229.40139493908924
178,8,586,0,19.552866666666407,3.1622776601683795,88.88756943465155,7.280109889280518,13.0,20.248456731316587,21.540659228538015,24.331050121192877,46.17358552246078,33.24154027718932,31.5,24.0,50.0,13.0,7.0,9.0,3.0,10.44030650891055,12.649110640673518,11.0,44.0,15.0,32.984845004941285,247.52373623553763,245.4913440429214,241.37315509393335,231.89006015782564
179,8,587,0,19.58623333333308,3.605551275463989,90.13878188659973,7.615773105863909,13.0,20.8806130178211,21.540659228538015,23.194827009486403,46.17358552246078,33.24154027718932,31.0,22.0,49.0,12.5,8.5,7.5,2.5,12.36931687685298,13.601470508735444,12.5,43.0,13.0,33.95585369269929,247.1639132235934,245.0550958458118,239.70189819857498,230.4951192541829
180,8,588,0,19.61959999999974,3.0,93.00537618869137,7.280109889280518,13.0,23.08679276123039,23.40939982143925,24.331050121192877,45.221676218380054,32.28002478313795,31.0,21.0,48.0,10.5,8.5,7.5,0.5,13.341664064126334,12.36931687685298,11.5,45.0,15.0,35.17101079013795,244.36448187083164,243.57750306627253,239.1693960355296,230.36058690670154
181,8,589,0,19.652966666666405,4.242640687119285,92.72000862812729,6.324555320336759,12.649110640673518,23.08679276123039,23.40939982143925,24.331050121192877,46.84015371452148,34.20526275297414,31.5,21.0,47.0,10.0,11.0,6.0,1.0,13.341664064126334,12.36931687685298,12.0,45.0,14.0,38.07886552931954,243.29817097545143,242.59431155738173,237.95167576632025,228.74002710500844
182,8,590,0,19.68633333333307,2.8284271247461903,90.80198235721508,6.324555320336759,13.0,23.08679276123039,23.40939982143925,23.345235059857504,44.9221548904324,32.01562118716424,30.0,19.0,45.0,9.0,11.0,5.0,0.0,12.36931687685298,12.36931687685298,11.5,46.0,16.0,38.07886552931954,247.1639132235934,244.5240274492468,241.10785968109792,230.93072554339753
183,8,591,0,19.719699999999737,5.0,92.04890004774636,6.324555320336759,12.083045973594572,23.08679276123039,23.769728648009426,22.561028345356956,45.5411901469428,33.52610922848042,30.0,17.0,44.0,8.5,12.5,3.5,0.5,11.180339887498949,11.40175425099138,11.0,46.0,16.0,34.92849839314596,246.661711661944,244.00819658363937,239.17566765873153,229.7063342618135
184,8,592,0,19.753066666666403,3.605551275463989,93.96275858019496,7.615773105863909,14.866068747318506,24.351591323771842,25.632011235952593,23.194827009486403,48.08326112068523,33.24154027718932,31.0,16.0,43.0,6.5,16.5,2.5,3.5,12.649110640673518,12.649110640673518,11.5,46.0,14.0,36.87817782917155,242.0743687382041,240.9336008115099,235.8495283014151,224.8777445635739
185,8,593,0,19.78643333333307,3.1622776601683795,93.30058949438637,7.280109889280518,12.649110640673518,23.40939982143925,25.079872407968907,23.194827009486403,44.64302857109943,32.01562118716424,30.5,15.0,43.0,6.0,14.0,3.0,4.0,12.649110640673518,12.649110640673518,12.0,46.0,15.0,37.36308338453881,241.56986567036876,242.1672975444868,238.32121181296472,230.6447484769597
186,8,594,0,19.81979999999973,3.0,93.60555539069249,7.280109889280518,12.083045973594572,23.40939982143925,25.632011235952593,23.53720459187964,43.657759905886145,31.622776601683793,30.0,13.0,42.0,4.5,13.5,2.5,5.5,11.704699910719626,12.649110640673518,11.0,45.0,14.0,36.138621999185304,245.69289774024807,244.5240274492468,241.6298822579691,234.88720697390056
187,8,595,0,19.8531666666664,2.0,95.50916186418976,8.246211251235321,11.704699910719626,23.08679276123039,24.698178070456937,22.80350850198276,43.32435804486894,31.622776601683793,30.0,12.0,41.0,4.5,14.5,1.5,5.5,11.40175425099138,12.36931687685298,11.0,47.0,15.0,35.90264614203248,246.45486402179202,245.3263133053607,243.00205760445732,236.29853998702575
188,8,596,0,19.886533333333063,3.0,96.76776322722355,7.280109889280518,11.704699910719626,22.47220505424423,25.079872407968907,22.360679774997898,42.05948168962618,30.364452901377952,29.0,10.0,40.0,3.0,15.0,1.0,7.0,14.317821063276353,14.317821063276353,13.5,48.0,15.0,34.92849839314596,244.47699278255203,242.59431155738173,239.0083680543424,232.69078194032525
189,8,597,0,19.91989999999973,2.0,95.81753492967766,6.324555320336759,11.704699910719626,23.40939982143925,24.698178070456937,22.360679774997898,40.80441152620633,29.120439557122072,28.0,9.0,39.0,2.0,15.0,2.0,7.0,12.36931687685298,13.341664064126334,12.0,45.0,13.0,35.17101079013795,244.36448187083164,244.53425117966603,241.66505746590673,235.9364321167886
190,8,598,0,19.9532666666664,3.0,98.97979591815695,6.324555320336759,11.704699910719626,23.40939982143925,24.698178070456937,21.37755832643195,40.162171256046406,28.460498941515414,27.0,7.0,38.0,1.5,15.5,0.5,7.5,13.341664064126334,13.152946437965905,12.5,47.0,14.0,33.95585369269929,243.29817097545143,242.0433845408711,240.7093683262037,233.72847494475295
191,8,599,0,19.986633333333064,2.23606797749979,98.03060746521976,6.324555320336759,13.92838827718412,23.40939982143925,26.0,21.213203435596427,40.80441152620633,26.92582403567252,26.5,7.0,38.0,1.5,16.5,1.5,7.5,12.36931687685298,12.36931687685298,11.5,47.0,14.0,34.20526275297414,242.78591392418136,242.59431155738173,241.48084810187328,234.0939982143925
192,8,600,0,20.01999999999973,2.23606797749979,97.71898484941399,6.708203932499369,13.0,22.47220505424423,24.698178070456937,20.223748416156685,39.21734310225516,26.248809496813376,25.5,6.0,36.0,1.0,16.0,1.0,8.0,12.649110640673518,14.317821063276353,13.5,48.0,16.0,35.4400902933387,240.14995315427402,240.85265205099984,240.24362634625712,234.76371099469355
193,8,601,0,20.053366666666395,3.1622776601683795,97.71898484941399,4.47213595499958,11.180339887498949,23.769728648009426,25.079872407968907,21.213203435596427,36.40054944640259,25.298221281347036,24.5,6.0,36.0,0.0,13.0,2.0,8.0,11.40175425099138,12.165525060596439,11.5,46.0,15.0,38.07886552931954,241.0808992848666,242.72000329597887,242.26019070412704,236.22235287965447
194,8,602,0,20.08673333333306,3.605551275463989,99.62429422585637,5.385164807134504,12.083045973594572,23.769728648009426,25.079872407968907,21.213203435596427,37.33630940518894,25.298221281347036,25.0,5.0,35.0,1.0,15.0,1.0,9.0,12.649110640673518,13.152946437965905,12.0,46.0,14.0,34.92849839314596,239.14012628582432,242.1672975444868,242.33035303073365,235.5949914577982
195,8,603,0,20.120099999999727,3.1622776601683795,97.71898484941399,4.47213595499958,12.083045973594572,22.47220505424423,25.079872407968907,22.090722034374522,37.94733192202055,25.96150997149434,25.5,6.0,36.0,1.0,15.0,1.0,8.0,11.704699910719626,12.165525060596439,11.5,45.0,14.0,37.107950630558946,237.92856070678022,239.97083156083784,240.41630560342617,235.28705871764387
196,8,604,0,20.1534666666664,3.1622776601683795,97.71898484941399,5.830951894845301,11.704699910719626,23.769728648009426,25.079872407968907,21.213203435596427,38.27531841800928,26.570660511172846,25.5,6.0,36.0,0.0,15.0,1.0,9.0,11.704699910719626,12.36931687685298,12.0,45.0,14.0,41.0,237.44683615495913,240.12704970494266,240.6595105122588,235.5949914577982
197,8,605,0,20.18683333333306,2.8284271247461903,96.76776322722355,6.708203932499369,13.0,22.135943621178654,23.769728648009426,21.213203435596427,39.21734310225516,26.248809496813376,26.0,7.0,37.0,1.0,15.0,2.0,7.0,14.560219778561036,14.317821063276353,13.5,46.0,13.0,34.48187929913333,237.44683615495913,240.52026941611388,239.75404063331237,234.64441182350797
198,8,606,0,20.220199999999725,2.8284271247461903,94.86832980505137,5.0,12.529964086141668,22.47220505424423,24.166091947189145,23.194827009486403,38.62641583165593,26.248809496813376,26.0,9.0,39.0,1.0,12.0,4.0,6.0,11.704699910719626,13.341664064126334,12.0,46.0,15.0,37.36308338453881,234.54210709380095,236.00847442411893,236.8564966387876,231.81242417092315
199,8,607,0,20.25356666666639,3.605551275463989,96.76776322722355,6.324555320336759,12.083045973594572,22.47220505424423,24.166091947189145,21.213203435596427,38.27531841800928,26.248809496813376,26.0,7.0,37.0,1.0,14.0,2.0,8.0,11.704699910719626,13.152946437965905,12.5,46.0,15.0,38.3275357934736,239.38462774372127,239.841614404173,239.40133667128927,234.64867355261143
200,8,608,0,20.286933333333057,2.23606797749979,96.46242791885346,5.385164807134504,13.92838827718412,22.47220505424423,24.166091947189145,23.194827009486403,41.7612260356422,27.892651361962706,27.5,10.0,39.0,1.5,15.5,1.5,6.5,14.560219778561036,14.317821063276353,13.5,47.0,15.0,38.07886552931954,238.17010727629108,239.0083680543424,238.5036687348855,231.82105167564055
201,8,609,0,20.32029999999972,3.1622776601683795,96.16652224137046,5.385164807134504,12.649110640673518,23.08679276123039,23.40939982143925,24.186773244895647,41.7612260356422,29.120439557122072,28.5,11.0,39.0,1.0,15.0,2.0,6.0,14.560219778561036,14.142135623730951,13.5,47.0,14.0,36.40054944640259,243.04114877937852,242.44174558025273,238.88281646028875,231.89006015782564
202,8,610,0,20.35366666666639,1.0,95.2102935611481,5.830951894845301,12.649110640673518,22.47220505424423,23.769728648009426,24.08318915758459,42.20189569201838,29.614185789921695,29.0,11.0,39.0,1.0,16.0,1.0,7.0,14.560219778561036,14.142135623730951,13.5,47.0,14.0,35.4400902933387,246.9109151090733,245.75190741884384,244.09219569662608,234.88720697390056
203,8,611,0,20.38703333333305,2.23606797749979,96.76776322722355,5.385164807134504,11.704699910719626,23.08679276123039,24.698178070456937,23.345235059857504,39.84971769034255,28.160255680657446,27.5,9.0,39.0,1.0,14.0,2.0,6.0,14.560219778561036,15.297058540778355,14.5,46.0,14.0,36.138621999185304,240.14162487998618,241.48084810187328,239.1693960355296,232.47580519271247
204,8,612,0,20.42039999999972,3.0,94.25497334358543,4.47213595499958,11.704699910719626,22.135943621178654,24.698178070456937,24.08318915758459,40.52159917870962,28.861739379323623,28.0,11.0,39.0,1.0,14.0,2.0,6.0,15.524174696260024,15.132745950421556,14.5,47.0,15.0,36.138621999185304,238.91839611047115,240.24362634625712,238.60008382228202,230.6447484769597
205,8,613,0,20.453766666666382,3.0,96.16652224137046,4.47213595499958,11.40175425099138,23.40939982143925,24.351591323771842,24.331050121192877,40.80441152620633,29.410882339705484,28.0,11.0,39.0,1.0,14.0,2.0,6.0,14.560219778561036,14.317821063276353,13.5,46.0,14.0,35.17101079013795,237.24459951703852,237.36048533822978,235.44001359157284,229.6867431960321
206,8,614,0,20.48713333333305,2.23606797749979,95.2102935611481,5.385164807134504,12.649110640673518,22.135943621178654,24.698178070456937,23.194827009486403,40.52159917870962,27.892651361962706,27.5,11.0,39.0,2.0,14.0,3.0,6.0,16.278820596099706,15.297058540778355,14.5,48.0,15.0,37.107950630558946,237.95167576632025,238.04621400055913,236.40008460235373,229.12005586591496
207,8,615,0,20.52049999999972,3.605551275463989,95.2102935611481,5.385164807134504,11.704699910719626,23.40939982143925,23.769728648009426,23.194827009486403,38.897300677553446,27.202941017470888,27.0,11.0,39.0,2.0,12.0,3.0,6.0,15.297058540778355,15.132745950421556,14.0,46.0,14.0,35.17101079013795,239.14012628582432,238.73835050112916,235.44001359157284,227.771815640127
208,8,616,0,20.553866666666384,3.0,95.50916186418976,4.47213595499958,11.704699910719626,22.135943621178654,23.769728648009426,23.08679276123039,39.56008088970496,27.892651361962706,27.0,10.0,39.0,1.5,13.5,2.5,5.5,15.297058540778355,16.278820596099706,15.0,48.0,16.0,36.138621999185304,237.24459951703852,237.36048533822978,234.88720697390056,227.6071176391459
209,8,617,0,20.58723333333305,2.23606797749979,96.46242791885346,5.385164807134504,11.704699910719626,22.135943621178654,23.769728648009426,23.194827009486403,39.56008088970496,27.892651361962706,27.5,10.0,39.0,1.5,13.5,3.5,6.5,15.524174696260024,15.132745950421556,14.5,47.0,15.0,35.90264614203248,238.32121181296472,239.459808736247,238.79907872519107,230.5666931714119
210,8,618,0,20.620599999999715,2.23606797749979,92.65527507918802,4.47213595499958,11.704699910719626,22.135943621178654,23.769728648009426,23.53720459187964,41.10960958218893,29.410882339705484,27.5,12.0,41.0,3.5,12.5,3.5,3.5,15.524174696260024,15.132745950421556,14.5,46.0,14.0,36.87817782917155,239.28226010300054,238.88281646028875,235.72229423624742,228.72909740564273
211,8,619,0,20.65396666666638,2.0,88.86506625215557,6.708203932499369,13.92838827718412,23.40939982143925,25.079872407968907,24.515301344262525,45.5411901469428,31.622776601683793,30.0,15.0,44.0,5.5,13.5,4.5,3.5,14.560219778561036,14.560219778561036,13.5,46.0,15.0,34.92849839314596,241.36694056974744,239.5600133578223,235.0510582830888,228.06358762415363
212,8,620,0,20.687333333333047,2.8284271247461903,85.09406559801923,7.615773105863909,15.811388300841896,22.47220505424423,23.769728648009426,24.515301344262525,50.28916384272063,34.48187929913333,32.0,18.0,47.0,8.5,15.5,5.5,1.5,15.524174696260024,16.278820596099706,15.5,48.0,16.0,36.138621999185304,241.82018112638985,240.40174708183798,236.81216184985095,228.56946427727394
213,8,621,0,20.72069999999972,3.605551275463989,83.21658488546619,7.280109889280518,16.15549442140351,22.47220505424423,23.769728648009426,24.73863375370596,50.92150822589606,34.785054261852174,32.0,21.0,50.0,11.5,12.5,7.5,1.5,14.317821063276353,15.524174696260024,14.0,47.0,15.0,37.107950630558946,240.85265205099984,238.32121181296472,234.0939982143925,225.1976909295475
214,8,622,0,20.75406666666638,4.242640687119285,77.62087348130012,8.246211251235321,16.492422502470642,20.248456731316587,21.540659228538015,22.360679774997898,50.695167422546305,34.20526275297414,31.5,24.0,53.0,16.5,10.5,10.5,5.5,16.278820596099706,16.278820596099706,15.0,47.0,16.0,29.832867780352597,252.76866894455097,246.28844877500853,240.24362634625712,227.3367546174617
215,8,623,0,20.787433333333045,2.8284271247461903,77.25283166331187,9.219544457292887,16.76305461424021,21.540659228538015,22.847319317591726,22.360679774997898,50.695167422546305,33.95585369269929,32.0,28.0,56.0,20.0,7.0,13.0,8.0,15.297058540778355,15.297058540778355,14.0,46.0,15.0,32.01562118716424,251.54323684011064,246.71643642043796,239.17566765873153,227.26416347501865
216,8,624,0,20.82079999999971,3.605551275463989,77.83315488916018,9.219544457292887,16.76305461424021,21.18962010041709,22.47220505424423,22.360679774997898,50.96076922496363,34.20526275297414,32.0,29.0,56.0,20.5,6.5,14.5,8.5,16.278820596099706,16.278820596099706,15.5,44.0,14.0,34.92849839314596,244.47699278255203,240.66574330386118,235.58013498595335,223.6515146382872
217,8,625,0,20.854166666666377,3.605551275463989,77.25283166331187,9.486832980505138,17.72004514666935,20.615528128088304,21.540659228538015,21.587033144922902,52.20153254455275,34.48187929913333,31.5,29.0,57.0,22.0,7.0,14.0,9.0,13.341664064126334,13.601470508735444,12.5,44.0,14.0,35.90264614203248,244.5240274492468,240.24362634625712,234.2007685726074,224.17850030723287
218,8,626,0,20.88753333333304,5.0,76.89603370785778,9.219544457292887,16.76305461424021,20.248456731316587,20.615528128088304,22.561028345356956,52.49761899362675,35.73513677041127,32.5,30.0,57.0,21.5,6.5,13.5,9.5,13.341664064126334,13.601470508735444,12.5,43.0,13.0,36.87817782917155,248.21361767638777,242.0433845408711,236.68122020980033,226.645097012929
219,8,627,0,20.92089999999971,6.708203932499369,75.96051605933177,10.44030650891055,17.72004514666935,20.248456731316587,22.135943621178654,20.396078054371138,55.08175741568164,37.36308338453881,33.0,32.0,59.0,25.5,7.5,13.5,12.5,13.341664064126334,14.560219778561036,13.0,45.0,14.0,32.7566787083184,247.1214276423637,245.4913440429214,241.76021178018522,229.804264538324
220,8,628,0,20.95426666666637,5.0,76.55063683601855,11.180339887498949,18.681541692269406,21.18962010041709,22.135943621178654,21.840329667841555,56.32051136131489,37.64306044943742,34.0,31.0,57.0,23.0,10.0,12.0,9.0,12.36931687685298,13.0,11.0,45.0,14.0,33.734255586866,251.14935795259362,247.0323865407125,243.00205760445732,232.28000344411913
221,8,629,0,20.98763333333304,6.324555320336759,82.21921916437786,9.486832980505138,14.866068747318506,18.384776310850235,21.18962010041709,25.0,55.65968020030299,40.80441152620633,36.0,32.0,58.0,21.0,8.0,9.0,8.0,11.40175425099138,13.0,11.5,46.0,12.0,32.01562118716424,244.24577785501228,242.0433845408711,240.52026941611388,233.65358974344906
222,8,630,0,21.020999999999702,7.615773105863909,81.60882305241266,10.198039027185569,13.92838827718412,20.8806130178211,22.47220505424423,24.041630560342615,55.65968020030299,41.7612260356422,36.5,33.0,57.0,22.0,8.0,8.0,9.0,9.486832980505138,10.770329614269007,10.0,45.0,11.0,36.138621999185304,240.65119987234635,240.0270818053663,237.48894711122873,230.8462691922917
223,8,631,0,21.05436666666637,10.44030650891055,81.27115109311545,9.486832980505138,13.92838827718412,20.8806130178211,21.18962010041709,23.769728648009426,57.56735185849702,43.68065933568311,37.0,32.0,58.0,22.0,10.0,6.0,10.0,11.40175425099138,12.083045973594572,10.5,47.0,10.0,36.40054944640259,244.13520843991347,243.1810025474852,240.35390573069537,231.22499864850255
224,8,632,0,21.08773333333304,6.708203932499369,84.43340571124678,10.44030650891055,16.15549442140351,20.8806130178211,23.08679276123039,22.80350850198276,55.97320787662612,39.84971769034255,35.0,30.0,57.0,21.5,9.5,8.5,8.5,9.486832980505138,11.180339887498949,10.0,47.0,11.0,36.40054944640259,237.71621736852538,239.0083680543424,237.94537188186703,230.25637884757938
225,8,633,0,21.121099999999704,4.242640687119285,87.92041856133307,9.486832980505138,15.231546211727817,20.248456731316587,21.540659228538015,24.73863375370596,53.14132102234569,37.94733192202055,34.5,29.0,58.0,19.5,6.5,10.5,7.5,12.36931687685298,12.649110640673518,11.5,49.0,9.0,40.52159917870962,233.15445524372893,231.27689032845456,226.83253734859116,219.82947936980608
226,8,634,0,21.15446666666637,3.1622776601683795,86.97700845625813,9.486832980505138,14.317821063276353,21.840329667841555,22.47220505424423,23.769728648009426,49.39635614091387,35.11409973215888,32.5,27.0,56.0,18.5,4.5,11.5,6.5,7.615773105863909,10.0,7.5,46.0,10.0,34.20526275297414,238.8053600738476,237.69728648009425,234.71898091121648,228.23890991677996
227,8,635,0,21.187833333333035,4.123105625617661,87.92041856133307,9.219544457292887,12.083045973594572,21.18962010041709,22.135943621178654,23.769728648009426,47.16990566028302,35.11409973215888,32.5,26.0,55.0,17.5,3.5,10.5,5.5,8.54400374531753,11.180339887498949,9.5,46.0,9.0,36.40054944640259,234.92339176846565,235.96821819897696,235.5674001214939,229.3926764306132
228,8,636,0,21.2211999999997,3.1622776601683795,85.70297544426332,9.486832980505138,12.529964086141668,21.540659228538015,22.47220505424423,22.80350850198276,46.61544808322666,34.17601498127012,31.5,25.0,53.0,17.0,4.0,10.0,4.0,7.615773105863909,9.848857801796104,9.0,47.0,10.0,35.17101079013795,235.84740829612693,236.08896628178115,234.77648945326703,227.55438910291315
229,8,637,0,21.254566666666367,3.1622776601683795,89.5377015563835,9.486832980505138,14.317821063276353,21.540659228538015,23.769728648009426,24.041630560342615,49.76946855251722,35.4682957019364,32.5,25.0,56.0,17.5,5.5,10.5,4.5,11.40175425099138,11.180339887498949,10.0,47.0,8.0,37.94733192202055,241.6278129686233,238.79907872519107,234.64867355261143,226.73552875542023
230,8,638,0,21.28793333333304,3.605551275463989,87.66413177577246,9.486832980505138,14.317821063276353,21.540659228538015,22.47220505424423,25.0,51.62363799656123,37.33630940518894,34.0,26.0,57.0,17.5,6.5,9.5,4.5,7.615773105863909,9.848857801796104,8.5,47.0,11.0,36.40054944640259,231.7584949899356,229.7063342618135,228.0350850198276,222.49719099350446
231,8,639,0,21.3212999999997,4.242640687119285,86.37708029332781,9.486832980505138,14.317821063276353,21.540659228538015,23.769728648009426,24.73863375370596,52.20153254455275,37.94733192202055,34.5,26.0,56.0,17.0,8.0,9.0,4.0,8.06225774829855,10.770329614269007,9.0,47.0,10.0,36.40054944640259,233.2659426491574,230.63390904201404,226.73773395709856,220.05681084665386
232,8,640,0,21.354666666666365,4.242640687119285,82.28000972289685,8.246211251235321,13.92838827718412,18.384776310850235,20.12461179749811,25.298221281347036,51.264022471905186,37.33630940518894,33.5,25.0,54.0,15.5,8.5,7.5,4.5,11.704699910719626,11.704699910719626,10.0,48.0,8.0,34.48187929913333,256.49366463910957,253.00197627686626,247.6065427245411,235.9364321167886
233,8,641,0,21.38803333333303,2.8284271247461903,81.70679286326198,8.54400374531753,16.15549442140351,18.788294228055936,21.02379604162864,25.0,52.20153254455275,36.05551275463989,33.0,25.0,55.0,16.0,9.0,10.0,5.0,12.36931687685298,12.083045973594572,11.0,48.0,9.0,37.0,244.4606307772276,241.29857024027308,237.48894711122873,228.96287908741888
234,8,642,0,21.421399999999696,2.8284271247461903,79.47955712005447,9.486832980505138,16.76305461424021,17.88854381999832,19.697715603592208,24.041630560342615,52.81098370604357,36.05551275463989,33.0,25.0,54.0,16.5,10.5,9.5,4.5,9.486832980505138,11.180339887498949,9.5,47.0,10.0,33.52610922848042,255.2116768488464,250.49151682242655,245.78242410717655,236.1228493814184
235,8,643,0,21.45476666666636,2.8284271247461903,73.53910524340094,10.44030650891055,18.027756377319946,17.46424919657298,20.615528128088304,24.351591323771842,55.362442142665635,37.33630940518894,34.0,30.0,58.0,21.0,8.0,14.0,8.0,11.40175425099138,12.649110640673518,11.0,49.0,11.0,35.73513677041127,253.9310930154084,249.19470299346253,243.87086746883074,232.28000344411913
236,8,644,0,21.488133333333028,5.0,76.15773105863909,11.180339887498949,18.973665961010276,18.384776310850235,20.615528128088304,22.47220505424423,57.245087125446844,38.27531841800928,34.0,28.0,58.0,22.0,11.0,11.0,8.0,10.44030650891055,10.770329614269007,9.5,50.0,12.0,35.4400902933387,254.9078264785136,251.14935795259362,246.16254792311523,232.69078194032525
237,8,645,0,21.52149999999969,4.47213595499958,75.39230729988306,11.40175425099138,19.924858845171276,20.615528128088304,21.540659228538015,22.47220505424423,58.18934610390462,38.27531841800928,34.0,32.0,60.0,25.0,9.0,14.0,10.0,12.649110640673518,12.649110640673518,11.0,49.0,12.0,34.48187929913333,256.2225595063791,250.96015620014265,244.787663087828,232.35533133543547
238,8,646,0,21.55486666666636,3.605551275463989,75.76938695805846,10.44030650891055,18.973665961010276,18.788294228055936,21.93171219946131,24.351591323771842,56.64803615307419,37.69615364994153,34.0,29.0,58.0,20.5,9.5,13.5,7.5,10.44030650891055,11.704699910719626,10.5,50.0,12.0,35.4400902933387,250.76881783826315,247.63077353188558,242.33035303073365,231.7282891664287
239,8,647,0,21.588233333333022,3.605551275463989,74.32361670424818,11.40175425099138,20.8806130178211,19.697715603592208,21.540659228538015,23.40939982143925,58.52349955359813,37.69615364994153,34.0,31.0,61.0,24.0,9.0,15.0,10.0,11.40175425099138,13.0,11.0,52.0,13.0,32.28002478313795,249.83994876720575,246.6576574931336,241.00622398602076,230.08042072284204
240,8,648,0,21.62159999999969,3.605551275463989,74.73285756613352,10.44030650891055,19.924858845171276,17.88854381999832,21.02379604162864,24.351591323771842,57.584720195551874,37.69615364994153,34.0,30.0,61.0,22.5,8.5,14.5,8.5,10.44030650891055,11.704699910719626,10.5,51.0,12.0,33.83784863137726,255.8378392654222,250.45558488482544,245.4913440429214,232.96351645697658
241,8,649,0,21.65496666666636,5.0,75.23961722390672,11.40175425099138,19.924858845171276,19.697715603592208,21.93171219946131,24.351591323771842,60.40695324215582,40.496913462633174,36.0,33.0,63.0,25.0,9.0,14.0,10.0,12.36931687685298,12.083045973594572,10.5,51.0,10.0,31.953090617340916,254.24791051255465,249.83994876720575,244.53425117966603,232.96351645697658
242,8,650,0,21.688333333333023,5.0,75.64390259630977,10.44030650891055,20.8806130178211,18.788294228055936,20.615528128088304,25.298221281347036,61.35144660071187,40.496913462633174,36.0,31.0,62.0,22.5,11.5,12.5,8.5,9.219544457292887,11.180339887498949,9.5,50.0,10.0,28.792360097775937,255.51516589040267,252.66776604861965,247.329739416836,237.6404847663798
243,8,651,0,21.72169999999969,6.708203932499369,70.66116330771806,10.44030650891055,18.973665961010276,17.88854381999832,21.02379604162864,23.769728648009426,59.80802621722272,40.85339643163099,35.0,34.0,66.0,28.0,6.0,15.0,13.0,10.44030650891055,12.083045973594572,10.5,50.0,7.0,31.38470965295043,258.3815008858026,255.51516589040267,249.19470299346253,237.84448700779257
244,8,652,0,21.755066666666355,8.54400374531753,70.32780389006896,11.40175425099138,19.924858845171276,19.235384061671343,20.591260281974,22.847319317591726,62.625873247404705,42.720018726587654,36.0,33.0,68.0,29.5,8.5,14.5,13.5,12.649110640673518,13.0,11.5,50.0,7.0,33.83784863137726,258.54400012377005,255.9707014484275,250.84058682757063,239.74152748324602
245,8,653,0,21.78843333333302,9.219544457292887,66.88796603276258,12.649110640673518,19.313207915827967,19.235384061671343,21.02379604162864,23.769728648009426,64.8459713474939,45.5411901469428,38.5,39.0,74.0,34.5,4.5,19.5,18.5,12.649110640673518,12.529964086141668,10.5,48.0,4.0,36.68787265568828,250.87447060233131,248.46730167166865,243.26117651610582,232.69078194032525
246,8,654,0,21.821799999999687,10.44030650891055,71.19691004531025,11.40175425099138,18.973665961010276,20.12461179749811,22.360679774997898,21.93171219946131,62.625873247404705,43.657759905886145,36.0,35.0,70.0,32.5,6.5,15.5,16.5,12.649110640673518,12.083045973594572,11.0,47.0,3.0,37.33630940518894,241.2343259156955,239.17566765873153,235.0914715594762,225.80744009000236
247,8,655,0,21.85516666666636,8.54400374531753,70.83078426785913,11.40175425099138,18.973665961010276,18.788294228055936,21.470910553583888,22.47220505424423,61.35144660071187,42.37924020083418,36.0,35.0,71.0,32.0,5.0,18.0,17.0,10.770329614269007,11.661903789690601,10.0,47.0,5.0,32.89376840679705,244.19049940568942,242.00206610688264,235.30830839560255,226.38462845343543
248,8,656,0,21.88853333333302,5.0,75.58438992278762,11.180339887498949,15.811388300841896,20.12461179749811,21.02379604162864,21.540659228538015,53.14132102234569,37.33630940518894,33.0,33.0,66.0,29.5,0.5,19.5,13.5,10.44030650891055,12.083045973594572,10.5,42.0,2.0,32.89376840679705,250.50349298961882,250.5873101336139,247.19425559668656,239.8207664069148
249,8,657,0,21.921899999999685,7.211102550927978,74.24284477308234,9.219544457292887,15.811388300841896,18.384776310850235,18.788294228055936,20.615528128088304,52.55473337388365,36.76955262170047,31.0,28.0,62.0,26.0,4.0,15.0,13.0,9.848857801796104,12.083045973594572,10.0,44.0,9.0,30.675723300355934,219.31256233968907,222.46348014898985,220.0840748441377,212.42645786248002
250,8,658,0,21.95526666666635,3.605551275463989,75.23961722390672,9.219544457292887,14.866068747318506,18.788294228055936,19.697715603592208,22.47220505424423,49.39635614091387,34.539832078341085,31.0,27.0,57.0,21.0,4.0,14.0,8.0,8.94427190999916,12.083045973594572,10.0,44.0,9.0,33.95585369269929,222.0923231451281,222.05629916757596,221.472345903501,212.47352776287215
251,8,659,0,21.988633333333016,3.605551275463989,72.09022125087424,8.54400374531753,13.92838827718412,19.697715603592208,20.615528128088304,20.8806130178211,46.238512086787566,32.31098884280702,29.0,28.0,57.0,22.5,0.5,16.5,10.5,8.54400374531753,10.295630140987,9.0,43.0,8.0,29.410882339705484,224.51057881534223,224.0089283934906,220.73740054644117,209.88091861815357
252,8,660,0,22.02199999999968,4.123105625617661,79.47955712005447,9.219544457292887,15.811388300841896,20.615528128088304,20.615528128088304,22.135943621178654,49.39635614091387,33.61547262794322,30.5,27.0,56.0,20.5,4.5,13.5,7.5,9.848857801796104,11.180339887498949,9.5,45.0,9.0,36.40054944640259,225.80744009000236,226.24102192131292,222.97085011274456,213.85976713725282
253,8,661,0,22.055366666666348,3.1622776601683795,75.96051605933177,8.246211251235321,14.317821063276353,20.248456731316587,22.47220505424423,21.840329667841555,46.238512086787566,31.953090617340916,29.5,26.0,53.0,18.5,3.5,13.5,7.5,8.94427190999916,10.770329614269007,9.0,47.0,10.0,33.95585369269929,239.0083680543424,239.54957733212555,236.01906702637396,227.1057022621845
254,8,662,0,22.08873333333301,2.23606797749979,87.5956619930462,9.486832980505138,16.15549442140351,21.18962010041709,22.847319317591726,24.73863375370596,51.86520991955976,35.73513677041127,33.5,27.0,55.0,17.0,8.0,11.0,5.0,13.601470508735444,12.649110640673518,11.5,49.0,8.0,36.68787265568828,240.07707095847366,237.8570999570961,235.63743335896356,226.10838109190027
255,8,663,0,22.12209999999968,3.605551275463989,85.70297544426332,9.486832980505138,16.15549442140351,21.18962010041709,23.40939982143925,24.73863375370596,53.75872022286245,37.64306044943742,34.5,26.0,54.0,16.0,11.0,8.0,4.0,9.486832980505138,9.848857801796104,8.5,49.0,9.0,36.40054944640259,248.2438317461282,242.5633937757303,238.5036687348855,228.16003155680005
256,8,664,0,22.155466666666342,5.0,86.97700845625813,8.54400374531753,14.866068747318506,21.18962010041709,22.847319317591726,25.495097567963924,53.45091205957107,38.600518131237564,35.0,27.0,56.0,16.5,9.5,8.5,5.5,7.615773105863909,9.219544457292887,7.0,51.0,11.0,40.80441152620633,244.13520843991347,239.70398411373975,235.5949914577982,227.771815640127
257,8,665,0,22.18883333333301,4.242640687119285,86.64871608973787,8.246211251235321,15.231546211727817,20.248456731316587,22.47220505424423,26.68332812825267,53.75872022286245,38.600518131237564,35.5,27.0,55.0,15.0,10.0,7.0,4.0,6.708203932499369,7.810249675906654,6.0,52.0,12.0,38.897300677553446,237.00843866833097,235.97457490161943,233.70280272174745,227.0594635772753
258,8,666,0,22.22219999999968,5.0,88.25531145489205,8.246211251235321,13.0,20.615528128088304,21.540659228538015,26.68332812825267,52.49761899362675,39.56008088970496,36.0,25.0,55.0,14.0,10.0,7.0,3.0,6.324555320336759,7.810249675906654,6.0,51.0,11.0,37.0,249.19069003476034,244.77336456403913,241.76021178018522,233.82899734635137
259,8,667,0,22.255566666666343,4.242640687119285,90.47651629014017,7.615773105863909,13.0,20.248456731316587,22.47220505424423,26.68332812825267,50.92150822589606,37.94733192202055,34.5,23.0,54.0,12.5,9.5,7.5,2.5,3.605551275463989,6.4031242374328485,4.5,51.0,13.0,36.05551275463989,244.77336456403913,242.0433845408711,239.43683927081898,232.83470531688354
260,8,668,0,22.28893333333301,4.242640687119285,89.5377015563835,6.708203932499369,13.0,21.540659228538015,22.47220505424423,26.92582403567252,50.32891812864648,37.33630940518894,33.5,20.0,51.0,9.5,11.5,5.5,0.5,5.830951894845301,7.211102550927978,5.5,52.0,13.0,35.73513677041127,241.91940806805889,239.5600133578223,236.47832881682837,229.95651762887695
261,8,669,0,22.322299999999675,4.242640687119285,89.19641248391103,6.708203932499369,12.083045973594572,19.313207915827967,21.02379604162864,26.68332812825267,49.040799340956916,37.0,33.5,20.0,50.0,9.0,11.0,5.0,0.0,6.708203932499369,7.211102550927978,6.0,52.0,14.0,34.785054261852174,239.70815588961506,238.88281646028875,235.51008470976353,228.53664913969487
262,8,670,0,22.35566666666634,4.47213595499958,91.4166286842826,6.708203932499369,12.083045973594572,20.615528128088304,21.540659228538015,26.92582403567252,48.84669896727925,36.76955262170047,33.0,19.0,50.0,8.5,10.5,5.5,0.5,6.708203932499369,7.810249675906654,5.5,52.0,13.0,34.785054261852174,248.65236777477105,246.01829200285087,243.26323191144198,236.02754076590298
263,8,671,0,22.389033333333007,2.8284271247461903,91.4166286842826,9.486832980505138,14.866068747318506,19.697715603592208,20.615528128088304,25.96150997149434,52.81098370604357,37.94733192202055,35.0,20.0,51.0,10.5,14.5,3.5,1.5,7.615773105863909,9.433981132056603,8.0,51.0,14.0,32.89376840679705,248.08063205337092,244.2642012248213,243.52617929085162,236.13978910806202
264,8,672,0,22.42239999999968,4.242640687119285,88.86506625215557,8.54400374531753,14.866068747318506,20.615528128088304,21.93171219946131,25.709920264364882,52.81098370604357,37.94733192202055,34.5,21.0,50.0,10.5,14.5,3.5,0.5,7.615773105863909,8.94427190999916,8.0,54.0,16.0,34.785054261852174,250.19392478635447,248.4854120466632,244.97550897997945,237.45736459415193
265,8,673,0,22.45576666666634,5.830951894845301,84.15461959987698,8.54400374531753,14.866068747318506,19.313207915827967,21.93171219946131,25.709920264364882,54.70831746635972,39.84971769034255,35.5,21.0,50.0,10.5,16.5,2.5,0.5,7.615773105863909,8.06225774829855,7.0,51.0,14.0,33.52610922848042,251.81342299408902,248.76092940813675,244.97550897997945,233.33452380648689
266,8,674,0,22.489133333333005,2.23606797749979,86.7294644281861,8.54400374531753,15.811388300841896,19.697715603592208,21.470910553583888,26.92582403567252,52.81098370604357,37.0,34.5,20.0,51.0,9.5,14.5,5.5,1.5,7.615773105863909,8.602325267042627,7.0,51.0,12.0,37.64306044943742,256.47027118167125,252.10513679812237,248.76092940813675,240.14162487998618
267,8,675,0,22.52249999999967,3.1622776601683795,82.63776376451628,8.246211251235321,16.76305461424021,17.88854381999832,20.12461179749811,25.96150997149434,52.81098370604357,36.05551275463989,33.5,20.0,50.0,10.0,15.0,6.0,1.0,7.211102550927978,8.06225774829855,6.5,51.0,12.0,35.73513677041127,259.67864756271354,256.2225595063791,251.9206224190469,240.40174708183798
268,8,676,0,22.555866666666336,3.605551275463989,78.39005038906404,8.54400374531753,17.08800749063506,18.788294228055936,20.591260281974,25.0,53.48831648126533,36.40054944640259,33.0,24.0,55.0,15.5,10.5,10.5,3.5,10.770329614269007,10.770329614269007,10.0,50.0,12.0,37.0,257.0933682536366,251.7180962902747,245.72545655670274,234.0939982143925
269,8,677,0,22.589233333333,4.242640687119285,79.7057087039567,9.486832980505138,16.15549442140351,19.235384061671343,21.02379604162864,25.0,54.42425929675111,38.27531841800928,34.5,25.0,57.0,17.0,10.0,10.0,4.0,10.44030650891055,11.180339887498949,9.5,48.0,9.0,34.785054261852174,256.1640099623677,251.7300141024109,245.70917768776974,235.28705871764387
270,8,678,0,22.622599999999668,4.242640687119285,79.7057087039567,8.54400374531753,18.681541692269406,19.697715603592208,21.470910553583888,24.041630560342615,55.02726596879042,36.40054944640259,32.5,25.0,57.0,18.0,11.0,11.0,6.0,11.704699910719626,13.0,11.5,49.0,10.0,32.57299494980466,256.1640099623677,249.19069003476034,244.76110802167898,232.7745690577044
271,8,679,0,22.65596666666633,5.0,79.7057087039567,8.54400374531753,18.027756377319946,20.615528128088304,21.93171219946131,25.0,56.302753041036986,38.27531841800928,34.0,26.0,58.0,18.0,11.0,11.0,6.0,11.704699910719626,12.649110640673518,11.5,49.0,11.0,35.73513677041127,253.62176562747922,247.2973918180295,240.65119987234635,229.91520175925731
272,8,680,0,22.689333333333,3.605551275463989,82.46211251235322,9.219544457292887,17.72004514666935,20.615528128088304,22.847319317591726,24.041630560342615,53.75872022286245,36.05551275463989,33.0,24.0,56.0,17.0,11.0,11.0,5.0,12.649110640673518,12.649110640673518,12.0,50.0,11.0,34.48187929913333,258.0426321366297,250.45558488482544,244.77336456403913,232.18096390531244
273,8,681,0,22.722699999999666,3.605551275463989,84.15461959987698,8.246211251235321,16.76305461424021,20.248456731316587,21.540659228538015,25.709920264364882,53.45091205957107,36.68787265568828,34.0,25.0,54.0,14.5,11.5,9.5,3.5,13.601470508735444,12.649110640673518,12.0,51.0,12.0,33.52610922848042,255.51516589040267,251.08564275959708,245.3935614477283,233.43093196918014
274,8,682,0,22.75606666666633,4.242640687119285,85.70297544426332,9.219544457292887,16.15549442140351,20.248456731316587,21.540659228538015,24.73863375370596,53.75872022286245,37.64306044943742,34.5,24.0,52.0,14.0,13.0,7.0,2.0,13.601470508735444,13.92838827718412,12.0,51.0,13.0,34.48187929913333,261.5893728728291,255.266527378738,249.6096953245206,236.81216184985095
275,8,683,0,22.789433333333,5.830951894845301,85.70297544426332,8.246211251235321,15.231546211727817,20.615528128088304,21.540659228538015,25.709920264364882,54.70831746635972,39.56008088970496,35.5,25.0,53.0,14.0,13.0,5.0,2.0,12.649110640673518,12.649110640673518,12.0,50.0,13.0,36.68787265568828,255.86129054626454,251.14935795259362,244.92039523077696,232.15727427758966
276,8,684,0,22.822799999999663,6.708203932499369,87.92041856133307,8.54400374531753,14.866068747318506,20.248456731316587,21.540659228538015,26.30589287593181,56.04462507680822,41.23105625617661,37.0,26.0,55.0,14.5,13.5,4.5,3.5,13.341664064126334,12.649110640673518,12.0,50.0,13.0,36.40054944640259,255.266527378738,249.899979991996,244.92039523077696,232.15727427758966
277,8,685,0,22.85616666666633,6.708203932499369,88.86506625215557,8.246211251235321,13.92838827718412,20.248456731316587,21.93171219946131,26.476404589747453,55.08175741568164,41.23105625617661,37.0,26.0,55.0,14.5,12.5,5.5,3.5,12.36931687685298,13.0,11.5,50.0,13.0,33.83784863137726,261.8854711510358,256.2225595063791,249.32308356828895,236.54386485385749
278,8,686,0,22.889533333332995,6.324555320336759,88.54377448471462,8.54400374531753,14.317821063276353,20.248456731316587,21.540659228538015,26.68332812825267,55.65968020030299,41.48493702538308,37.0,27.0,55.0,15.0,12.0,5.0,4.0,13.601470508735444,12.649110640673518,12.0,49.0,13.0,36.40054944640259,254.31083343027288,249.899979991996,244.92039523077696,233.1222855069845
279,8,687,0,22.92289999999966,7.280109889280518,86.64871608973787,8.54400374531753,15.811388300841896,21.18962010041709,22.47220505424423,25.495097567963924,57.0087712549569,41.23105625617661,36.5,26.0,54.0,15.0,15.0,4.0,4.0,11.40175425099138,12.083045973594572,10.5,49.0,13.0,35.4400902933387,249.51352668743232,246.6779276708802,242.24367896810023,232.12496634356245
280,8,688,0,22.956266666666327,6.708203932499369,87.5956619930462,8.54400374531753,13.92838827718412,19.697715603592208,21.540659228538015,25.495097567963924,54.405882034941776,40.52159917870962,36.0,27.0,55.0,16.0,11.0,7.0,4.0,13.341664064126334,14.560219778561036,13.0,50.0,12.0,36.40054944640259,248.55582873873627,243.82165613415063,238.79907872519107,230.08042072284204
281,8,689,0,22.989633333333,6.708203932499369,87.5956619930462,8.54400374531753,14.317821063276353,20.248456731316587,22.47220505424423,25.495097567963924,54.70831746635972,40.52159917870962,36.0,27.0,55.0,16.0,11.0,6.0,5.0,10.44030650891055,12.649110640673518,11.0,49.0,13.0,34.20526275297414,249.81993515330197,243.81345327934633,239.70815588961506,230.5666931714119
282,8,690,0,23.02299999999966,6.4031242374328485,86.64871608973787,8.246211251235321,13.92838827718412,20.248456731316587,21.540659228538015,26.68332812825267,54.70831746635972,40.80441152620633,36.5,29.0,57.0,17.0,9.0,7.0,6.0,12.36931687685298,13.92838827718412,12.0,46.0,11.0,32.28002478313795,244.76110802167898,243.4953798329652,237.80664414603726,229.31419493786248
283,8,691,0,23.056366666666325,5.0,88.25531145489205,8.246211251235321,13.92838827718412,19.697715603592208,20.615528128088304,26.68332812825267,53.45091205957107,39.56008088970496,36.0,27.0,57.0,16.0,9.0,8.0,4.0,12.36931687685298,12.649110640673518,11.5,48.0,11.0,35.4400902933387,250.14595739287893,247.93547547698776,245.42208539575245,236.29853998702575
284,8,692,0,23.08973333333299,5.0,86.64871608973787,8.246211251235321,14.317821063276353,19.697715603592208,20.615528128088304,24.73863375370596,51.86520991955976,37.64306044943742,34.0,27.0,55.0,17.0,8.0,9.0,5.0,14.317821063276353,13.601470508735444,12.5,47.0,11.0,35.4400902933387,245.42208539575245,242.26019070412704,240.7093683262037,231.60310878742538
285,8,693,0,23.123099999999656,3.605551275463989,87.28115489611719,8.246211251235321,13.92838827718412,19.924858845171276,21.540659228538015,23.53720459187964,48.38388161361178,34.48187929913333,32.0,25.0,52.0,15.5,7.5,8.5,4.5,14.317821063276353,14.560219778561036,13.0,48.0,12.0,33.95585369269929,248.58398983039916,247.63077353188558,246.73872821265817,237.36048533822978
286,8,694,0,23.15646666666632,3.1622776601683795,86.02325267042627,8.246211251235321,13.0,18.973665961010276,21.540659228538015,23.769728648009426,46.8187996428785,33.83784863137726,31.5,26.0,52.0,16.0,5.0,10.0,5.0,8.54400374531753,10.770329614269007,9.5,44.0,13.0,33.734255586866,236.86494041964082,239.0815760362977,241.2819926973416,233.0772404161333
287,8,695,0,23.189833333332988,2.23606797749979,86.97700845625813,8.246211251235321,14.317821063276353,21.540659228538015,21.540659228538015,23.769728648009426,47.75981574503821,33.52610922848042,31.5,26.0,52.0,16.0,6.0,11.0,4.0,10.44030650891055,12.083045973594572,10.0,46.0,13.0,34.713109915419565,237.19190542680835,237.52263050075882,237.81084920583416,230.21728866442677
288,8,696,0,23.22319999999965,3.0,86.33075929238663,10.198039027185569,15.811388300841896,21.18962010041709,21.540659228538015,23.53720459187964,50.28916384272063,34.48187929913333,33.0,27.0,54.0,17.5,7.5,10.5,4.5,12.165525060596439,13.601470508735444,12.5,46.0,13.0,32.984845004941285,245.08161905781512,244.76110802167898,243.4953798329652,234.64441182350797
289,8,697,0,23.25656666666632,2.23606797749979,84.11896337925236,10.44030650891055,14.866068747318506,21.18962010041709,22.47220505424423,21.587033144922902,48.38388161361178,33.52610922848042,31.5,26.0,52.0,18.0,7.0,10.0,5.0,9.219544457292887,11.704699910719626,10.5,43.0,12.0,34.52535300326414,236.86494041964082,236.9155967850154,234.6955474652214,228.37250272307304
290,8,698,0,23.289933333332986,4.242640687119285,85.44003745317531,9.219544457292887,14.866068747318506,21.840329667841555,23.08679276123039,23.769728648009426,51.54609587543949,36.68787265568828,33.5,28.0,52.0,17.0,9.0,9.0,5.0,9.486832980505138,11.180339887498949,9.5,43.0,13.0,35.510561809129406,239.70815588961506,238.43657437566074,238.1197177891827,230.53199344125753
291,8,699,0,23.32329999999965,6.324555320336759,85.16454661418682,9.219544457292887,13.92838827718412,19.924858845171276,21.18962010041709,23.53720459187964,52.88667128870941,39.05124837953327,35.0,32.0,55.0,20.5,7.5,8.5,8.5,13.152946437965905,13.601470508735444,12.0,42.0,12.0,32.7566787083184,248.08063205337092,244.92039523077696,241.76021178018522,232.0021551624036
292,8,700,0,23.35666666666632,6.324555320336759,86.83317338436964,9.219544457292887,13.92838827718412,18.681541692269406,20.8806130178211,24.515301344262525,53.85164807134504,40.024992192379,36.0,34.0,56.0,21.0,7.0,9.0,9.0,13.152946437965905,13.601470508735444,12.5,43.0,14.0,35.6931365951495,242.1672975444868,240.41630560342617,239.75404063331237,232.47580519271247
293,8,701,0,23.390033333332983,2.8284271247461903,86.34813257969161,10.198039027185569,14.560219778561036,19.4164878389476,20.615528128088304,23.53720459187964,50.695167422546305,36.138621999185304,34.0,34.0,54.0,21.0,5.0,10.0,9.0,12.165525060596439,13.601470508735444,12.0,41.0,13.0,34.52535300326414,237.36048533822978,236.29853998702575,234.0939982143925,227.1079038695043
294,8,702,0,23.42339999999965,2.23606797749979,88.07383266328314,10.198039027185569,14.317821063276353,19.6468827043885,20.615528128088304,23.53720459187964,49.47726750741192,35.17101079013795,33.5,34.0,53.0,20.5,4.5,11.5,8.5,12.165525060596439,12.649110640673518,11.5,39.0,14.0,34.52535300326414,244.23349483639626,242.53865671269807,239.88538930080756,230.93072554339753
295,8,703,0,23.456766666666315,2.23606797749979,89.62700485902673,9.219544457292887,11.704699910719626,18.439088914585774,20.396078054371138,23.53720459187964,45.880278987817846,34.20526275297414,32.5,34.0,51.0,19.5,1.5,10.5,7.5,12.165525060596439,12.649110640673518,11.0,37.0,14.0,35.22782990761707,232.83470531688354,231.89652865017192,229.7063342618135,223.6515146382872
296,8,704,0,23.49013333333298,1.0,89.44271909999159,9.219544457292887,11.704699910719626,18.439088914585774,20.396078054371138,22.360679774997898,43.41658669218482,31.78049716414141,31.0,32.0,48.0,18.0,2.0,10.0,7.0,11.180339887498949,12.36931687685298,11.0,33.0,14.0,35.510561809129406,237.7561776274173,236.71924298628534,233.33452380648689,227.03523955544875
297,8,705,0,23.523499999999647,3.1622776601683795,89.10667763978185,9.055385138137417,10.44030650891055,20.396078054371138,21.37755832643195,21.37755832643195,42.44997055358225,32.01562118716424,30.5,33.0,47.0,19.0,1.0,10.0,8.0,11.045361017187261,12.36931687685298,11.5,31.0,15.0,34.36568055487916,238.9016534057477,237.89283301520456,235.16164653276266,228.31995094603536
298,8,706,0,23.55686666666632,36.0,98.49365461794989,18.110770276274835,30.0,24.73863375370596,28.861739379323623,39.05124837953327,123.0,93.0,75.0,61.0,87.0,35.0,49.0,13.0,14.0,22.02271554554524,20.09975124224178,18.5,77.0,53.0,45.27692569068709,301.53275112332324,308.13146544940844,307.08467887538774,289.1660422663768
299,8,707,0,23.59023333333298,33.015148038438355,99.68951800465283,17.029386365926403,27.0,23.769728648009426,29.410882339705484,36.05551275463989,113.01769772916099,86.02325267042627,69.5,53.0,76.0,28.5,48.5,14.5,9.5,20.0,19.1049731745428,18.0,70.0,51.0,46.010868281309364,289.26285623978754,296.42030969554025,297.3566881709574,277.33373397406956
300,8,708,0,23.623599999999644,36.0,112.44998888394787,18.027756377319946,26.019223662515376,23.53720459187964,29.832867780352597,35.014282800023196,115.03912377969506,89.02246907382428,71.0,51.0,69.0,25.0,55.0,23.0,5.0,18.027756377319946,16.0,15.0,53.0,40.0,59.0,303.7268509697488,311.57824057530075,312.8721783732136,288.90309794116087
301,8,709,0,23.65696666666631,40.049968789001575,103.0970416646375,14.0,23.021728866442675,24.08318915758459,27.459060435491963,38.2099463490856,115.03912377969506,92.02173656261873,72.0,58.0,73.0,27.5,49.5,22.5,11.5,12.041594578792296,13.0,12.0,46.0,37.0,33.13608305156178,282.81619472724685,288.5307609250702,285.7708872506085,267.5070092539633
302,8,710,0,23.690333333332976,37.013511046643494,84.38009243891595,16.0,24.020824298928627,18.027756377319946,23.021728866442675,44.181444068749045,121.06609764917675,97.12878049270464,78.5,71.0,79.0,31.0,46.0,19.0,14.0,16.0312195418814,15.0,14.5,44.0,38.0,34.058772731852805,275.86228448267445,276.76163028859327,268.15294143454776,247.759964481754
303,8,711,0,23.72369999999964,38.05259518088089,87.46427842267951,17.0,24.020824298928627,23.021728866442675,27.294688127912362,43.0,122.00409829181969,98.02040603874276,79.0,74.0,83.0,35.5,43.5,15.5,16.5,14.0,14.0,13.5,42.0,33.0,33.06055050963308,269.7869529832753,274.54872063078346,272.20947815974375,256.1952380509833
304,8,712,0,23.757066666666308,37.12142238654117,85.15867542417507,13.0,21.02379604162864,22.20360331117452,25.495097567963924,41.012193308819754,112.04017136723775,91.08786966440702,72.5,64.0,78.0,30.0,41.0,15.0,16.0,14.0,15.033296378372908,14.5,46.0,39.0,35.12833614050059,273.99452549275503,277.5103601669675,272.40594707164524,257.8410362994999
305,8,713,0,23.79043333333297,4.123105625617661,80.15609770940699,14.035668847618199,18.0,22.090722034374522,25.019992006393608,45.0,81.02468759581859,63.0317380372777,61.0,77.0,82.0,34.5,1.5,17.5,19.5,11.045361017187261,13.038404810405298,12.5,33.0,32.0,29.017236257093817,256.0703028466987,258.49564793241683,257.21780653757236,246.22144504490262
306,8,714,0,23.82379999999964,3.1622776601683795,75.0066663703967,9.0,14.035668847618199,17.0,18.027756377319946,26.076809620810597,52.15361924162119,38.118237105091836,36.5,41.0,42.0,15.5,10.5,4.5,6.5,12.0,13.038404810405298,12.5,27.0,29.0,35.05709628591621,244.6630335788388,242.99794237811975,240.4100663449848,233.80547470065795
307,8,715,0,23.857166666666306,3.1622776601683795,80.02499609497022,11.0,16.0312195418814,18.027756377319946,19.0,23.08679276123039,53.150729063673246,37.12142238654117,35.5,40.0,42.0,18.0,12.0,4.0,8.0,12.0,13.038404810405298,12.5,29.0,31.0,34.058772731852805,247.29132617218906,244.73863609981976,241.19701490690136,230.82894099310857
308,8,716,0,23.89053333333297,6.082762530298219,81.00617260431454,11.045361017187261,17.029386365926403,17.0,18.0,22.090722034374522,56.08029957123981,39.05124837953327,36.0,41.0,42.0,19.5,14.5,2.5,8.5,12.041594578792296,14.035668847618199,13.5,28.0,33.0,34.132096331752024,250.1619475459847,245.52189311749777,242.99794237811975,233.45235059857504
309,8,717,0,23.92389999999964,10.04987562112089,65.00769185258002,9.055385138137417,16.0,19.0,20.09975124224178,25.019992006393608,60.00833275470999,44.01136216933077,39.0,47.0,48.0,22.5,12.5,3.5,13.5,12.165525060596439,14.035668847618199,12.5,26.0,34.0,34.058772731852805,222.08106627986098,215.11392330576837,204.70710783946902,190.77997798511248
310,8,718,0,23.957266666666303,9.055385138137417,80.02499609497022,9.055385138137417,16.0,19.026297590440446,20.024984394500787,24.0,58.0,42.0,37.5,43.0,41.0,18.0,16.0,1.0,9.0,13.038404810405298,14.035668847618199,13.0,27.0,34.0,32.38826948140329,250.01799935204664,245.34465553584002,239.75404063331237,229.2596780945136
311,8,719,0,23.99063333333297,11.0,83.02409288875127,10.04987562112089,16.0312195418814,18.027756377319946,19.1049731745428,20.024984394500787,57.07889277132134,41.048751503547585,35.5,38.0,36.0,17.0,20.0,4.0,8.0,13.152946437965905,15.033296378372908,14.0,28.0,36.0,36.22154055254967,253.03161857759991,250.12796724876648,244.59149617270018,228.37250272307304
312,8,720,0,24.023999999999635,9.219544457292887,85.09406559801923,10.198039027185569,17.029386365926403,19.1049731745428,21.095023109728988,20.0,56.22277118748239,39.20459156782532,34.5,37.0,33.0,15.0,21.0,4.0,6.0,12.041594578792296,13.038404810405298,12.0,28.0,37.0,34.23448553724738,228.1074308302998,228.21919288263203,224.18296099391677,209.45882650296693
313,8,721,0,24.0573666666663,8.06225774829855,85.09406559801923,10.04987562112089,16.0,19.026297590440446,20.09975124224178,23.021728866442675,57.0087712549569,41.012193308819754,37.0,40.0,36.0,15.0,19.0,3.0,6.0,12.165525060596439,13.0,12.5,29.0,39.0,32.38826948140329,248.20153101864622,247.0,245.09997960016236,234.48027635602958
314,8,722,0,24.090733333332967,8.06225774829855,85.09406559801923,9.055385138137417,18.0,18.027756377319946,19.026297590440446,23.0,58.0,40.0,36.0,40.0,36.0,15.0,20.0,2.0,7.0,13.152946437965905,13.0,12.5,28.0,39.0,34.36568055487916,252.04959829366916,248.0020161208372,243.13165157996193,231.48650068632512
315,8,723,0,24.12409999999964,9.219544457292887,84.0535543567314,9.219544457292887,17.029386365926403,18.027756377319946,20.024984394500787,23.0,58.008620049092706,41.0,36.5,40.0,37.0,15.5,19.5,3.5,7.5,12.165525060596439,13.0,12.5,29.0,39.0,34.36568055487916,251.16130275183716,248.0181444975347,245.01836665850175,234.17301296263838
316,8,724,0,24.1574666666663,9.0,85.14693182963201,10.04987562112089,16.0312195418814,19.026297590440446,21.095023109728988,24.020824298928627,59.07622195096772,43.04648650006177,38.5,43.0,38.0,16.5,18.5,2.5,7.5,14.142135623730951,14.035668847618199,13.5,29.0,39.0,33.24154027718932,246.07315985291854,245.00204080782675,243.10080213771406,233.30880823492285
317,8,725,0,24.190833333332964,8.06225774829855,83.05419917138447,10.04987562112089,18.027756377319946,18.027756377319946,20.024984394500787,24.0,60.00833275470999,42.0,38.0,41.0,38.0,15.5,20.5,2.5,5.5,13.152946437965905,13.038404810405298,13.0,26.0,38.0,34.36568055487916,247.0323865407125,244.0184419260151,241.2073796549351,227.49505489130968
318,8,726,0,24.22419999999963,8.06225774829855,82.05485969764375,10.198039027185569,17.029386365926403,18.0,19.026297590440446,24.08318915758459,59.0,42.01190307520001,38.0,42.0,39.0,16.5,18.5,1.5,6.5,12.165525060596439,14.0,13.5,27.0,39.0,33.54101966249684,245.0081631293129,243.0514348857048,241.16799124261908,231.36551169091732
319,8,727,0,24.257566666666296,6.082762530298219,81.02468759581859,11.045361017187261,18.027756377319946,17.0,19.026297590440446,22.090722034374522,57.0087712549569,39.05124837953327,36.0,41.0,39.0,18.0,17.0,1.0,7.0,12.165525060596439,14.0,13.5,26.0,37.0,35.22782990761707,240.01874926763534,238.10291892372928,232.42202993692314,222.9910312097776
320,8,728,0,24.29093333333296,4.123105625617661,79.05694150420949,11.045361017187261,17.0,18.027756377319946,19.026297590440446,21.02379604162864,53.009433122794285,36.013886210738214,34.0,40.0,37.0,17.5,14.5,2.5,7.5,12.041594578792296,14.035668847618199,13.5,24.0,36.0,35.35533905932738,245.00204080782675,243.10080213771406,239.30106560565082,228.56071403458645
321,8,729,0,24.324299999999628,3.605551275463989,75.05997601918082,11.045361017187261,16.0312195418814,17.029386365926403,18.027756377319946,22.02271554554524,52.009614495783374,36.05551275463989,34.5,45.0,42.0,21.5,8.5,7.5,11.5,13.038404810405298,14.035668847618199,13.5,23.0,37.0,35.6931365951495,245.0081631293129,243.0514348857048,241.2073796549351,232.48440807933767
322,8,730,0,24.357666666666294,5.385164807134504,74.10802925459562,10.04987562112089,15.033296378372908,19.1049731745428,19.1049731745428,21.02379604162864,51.0098029794274,36.05551275463989,33.5,47.0,43.0,24.0,6.0,9.0,15.0,13.152946437965905,14.035668847618199,13.5,23.0,36.0,34.52535300326414,242.00206610688264,240.0749882849107,238.2540660723338,228.49288829195538
323,8,731,0,24.39103333333296,4.123105625617661,80.09993757800315,10.0,14.035668847618199,16.0312195418814,17.11724276862369,22.02271554554524,50.00999900019995,36.05551275463989,34.0,42.0,38.0,18.0,10.0,3.0,9.0,13.152946437965905,13.038404810405298,13.0,22.0,37.0,36.6742416417845,243.01851781294363,240.05207768315609,239.25300416086733,230.5558500667463
324,8,732,0,24.424399999999626,4.123105625617661,82.09750300709517,11.045361017187261,15.0,19.026297590440446,20.09975124224178,20.09975124224178,50.039984012787215,35.05709628591621,33.0,43.0,39.0,21.0,9.0,6.0,11.0,12.165525060596439,13.038404810405298,13.0,22.0,37.0,34.713109915419565,244.00204917172314,241.1016383187804,238.3547775900454,230.62740513651016
325,8,733,0,24.45776666666629,4.123105625617661,78.10249675906654,10.04987562112089,16.0,19.1049731745428,20.024984394500787,22.090722034374522,52.03844732503075,36.05551275463989,34.0,44.0,40.0,20.0,10.0,5.0,11.0,12.165525060596439,13.038404810405298,13.0,21.0,37.0,32.7566787083184,242.0185943269649,239.0188277102873,237.17082451262846,230.4256930118688
326,8,734,0,24.49113333333296,3.605551275463989,81.2219182240853,10.198039027185569,16.0312195418814,18.110770276274835,19.1049731745428,23.08679276123039,52.009614495783374,36.05551275463989,34.5,43.0,37.0,17.0,12.0,3.0,8.0,12.041594578792296,14.142135623730951,13.0,22.0,37.0,30.805843601498726,241.03319273494262,240.01874926763534,239.1693960355296,230.4886114323222
327,8,735,0,24.524499999999623,5.385164807134504,79.22752047110903,10.04987562112089,15.033296378372908,17.11724276862369,18.110770276274835,22.02271554554524,52.009614495783374,37.05401462729781,34.5,43.0,37.0,18.0,12.0,3.0,9.0,12.165525060596439,14.035668847618199,13.5,24.0,38.0,32.55764119219941,245.03265088555034,241.0186714758838,238.1344158243407,229.49074055394914
328,8,736,0,24.55786666666629,4.123105625617661,78.16009211867653,10.198039027185569,17.029386365926403,17.029386365926403,17.11724276862369,23.08679276123039,54.0,37.013511046643494,35.0,43.0,38.0,17.5,13.5,2.5,8.5,11.180339887498949,13.038404810405298,12.0,22.0,37.0,33.734255586866,245.16525039246488,242.00206610688264,240.05207768315609,230.2628932329306
329,8,737,0,24.591233333332955,4.123105625617661,76.02631123499285,10.04987562112089,16.0,17.029386365926403,18.027756377319946,22.02271554554524,52.009614495783374,36.013886210738214,34.0,42.0,40.0,19.0,11.0,5.0,9.0,12.041594578792296,13.038404810405298,12.5,24.0,38.0,34.713109915419565,244.0327846827143,241.03319273494262,238.2540660723338,228.56071403458645
330,8,738,0,24.62459999999962,2.23606797749979,76.32168761236873,10.198039027185569,15.033296378372908,15.132745950421556,17.11724276862369,24.08318915758459,51.0,36.013886210738214,35.0,43.0,36.0,15.5,11.5,3.5,6.5,12.165525060596439,13.038404810405298,12.5,23.0,38.0,32.55764119219941,243.0740627874558,240.00833318866242,237.01898658124415,229.10696191953662
331,8,739,0,24.657966666666287,2.23606797749979,78.40918313565064,9.055385138137417,16.1245154965971,16.1245154965971,17.26267650163207,24.020824298928627,51.0098029794274,35.014282800023196,34.0,43.0,35.0,15.0,12.0,4.0,8.0,12.041594578792296,14.0,13.0,23.0,37.0,31.78049716414141,246.13004692641653,242.00826432169626,239.0522955338434,230.17601960239037
332,8,740,0,24.69133333333296,4.123105625617661,77.23341245859851,8.06225774829855,16.1245154965971,17.11724276862369,19.1049731745428,23.0,51.03920062069938,35.0,33.0,41.0,35.0,15.0,13.0,3.0,8.0,13.152946437965905,14.035668847618199,13.5,23.0,38.0,31.400636936215164,244.24782496472716,241.05186163977245,238.00840321299583,229.13969538253298
333,8,741,0,24.72469999999962,3.1622776601683795,79.1580697086532,10.04987562112089,16.0312195418814,17.029386365926403,18.110770276274835,23.0,52.009614495783374,36.0,34.5,41.0,36.0,15.5,13.5,1.5,6.5,12.165525060596439,14.035668847618199,13.5,23.0,38.0,33.37663853655727,247.39644298170498,244.07375934335914,241.0186714758838,230.10649708341572
334,8,742,0,24.758066666666284,5.0990195135927845,80.50465825031493,10.04987562112089,15.033296378372908,18.110770276274835,19.235384061671343,24.020824298928627,54.037024344425184,39.01281840626232,36.5,45.0,36.0,16.5,13.5,1.5,8.5,12.165525060596439,13.038404810405298,12.5,21.0,38.0,30.59411708155671,248.45321491178174,246.0995733437992,243.00823031329617,233.10512649875378
335,8,743,0,24.79143333333295,7.0,84.48076704197234,10.04987562112089,16.1245154965971,17.11724276862369,18.24828759089466,22.0,55.08175741568164,39.01281840626232,35.5,44.0,35.0,17.5,15.5,0.5,8.5,12.165525060596439,14.035668847618199,13.5,24.0,41.0,33.54101966249684,240.6013300046365,239.0522955338434,236.10379073619296,228.49288829195538
336,8,744,0,24.824799999999616,8.06225774829855,82.49242389456137,9.219544457292887,16.1245154965971,19.1049731745428,21.095023109728988,22.02271554554524,55.036351623268054,39.0,35.0,43.0,34.0,16.5,16.5,1.5,8.5,13.152946437965905,14.142135623730951,13.5,24.0,42.0,35.90264614203248,246.51977608297474,243.13165157996193,239.0083680543424,229.05457864884517
337,8,745,0,24.85816666666628,6.082762530298219,84.71717653463199,10.04987562112089,16.0312195418814,18.24828759089466,20.396078054371138,22.02271554554524,54.147945482723536,38.118237105091836,35.0,44.0,33.0,16.5,15.5,0.5,8.5,13.341664064126334,13.038404810405298,12.5,21.0,41.0,32.984845004941285,249.72384747957094,247.29132617218906,245.05101509685693,234.00213674238105
