,video_id,frame_seq,gap,time_seconds,m1,m3,m4,m5,m6,m7,m8,m9,m10,m11,m12,m13,m14,m15,m16,m17,e1,e2,e3,b1,b2,b3
0,36,0,0,0.0,1.12126226509949,36.87572316598458,4.269639501582354,8.162912504627844,9.573505052707532,10.637227836341708,10.282653575130325,23.75912143039129,15.60126749330118,15.069406101484077,13.473821926032826,13.473821926032826,3.191168350902501,10.282653575130325,1.4182970448455592,0.3545742612113827,5.014437290735679,4.9766869122519575,5.141326787565163,18.0832873217809,18.437861582992298,17.374138799358136
1,36,1,0,0.0333333333333333,1.12126226509949,36.87572316598458,4.269639501582354,8.162912504627844,9.573505052707532,10.637227836341708,10.282653575130325,23.75912143039129,15.60126749330118,15.069406101484077,13.473821926032826,13.473821926032826,3.191168350902501,10.282653575130325,1.4182970448455592,0.3545742612113827,5.014437290735679,4.9766869122519575,5.141326787565163,18.0832873217809,18.437861582992298,17.374138799358136
2,36,2,0,0.0666666666666666,0.8014529084553955,36.560661876741854,4.659468278585109,8.243674646727499,9.683992338537701,10.39419846761291,10.042176159679961,23.655762029739748,15.41208738301225,15.053666746198019,13.619984198941069,13.978404835755299,3.7634166865495047,9.856567512391564,0.8960515920356045,0.537630955221374,5.068833256170976,4.659468278585095,4.83867859699221,18.279452477526178,17.921031840711933,17.935362936037503
3,36,3,0,0.0999999999999999,1.4777302110839257,36.56405329797824,4.300826644563756,7.884848848366914,9.676859950268451,10.393664391029077,10.06082975901833,23.67897045098241,15.806309968190968,15.052893255973174,13.260882154071624,13.97768659483225,3.58402220380313,10.035262170648792,1.433608881521252,0.0,5.068572808464709,5.0304148795091645,5.017631085324396,17.92011101901568,17.561708798635365,16.84871671604462
4,36,4,0,0.1333333333333332,1.1374437219209825,35.97092712677127,4.675986732988292,8.272899604517761,9.718323420180697,10.437247058935226,9.73827210368423,23.764136703541137,15.504321764458325,14.927188416847287,13.668268911811992,14.027960198964934,4.1364498022588805,9.891510396706025,0.899228217882353,0.1798456435764706,5.799847733688658,5.407345724488671,5.395369307294189,18.344255644800285,17.624873070494388,17.624873070494388
5,36,5,0,0.1666666666666665,1.1540851903268183,36.13226752539027,4.744399159892197,8.401867007170486,9.488798319784394,10.218705882844716,9.880748733004697,24.131145855919474,15.731159080296353,15.14558193350203,13.868243698146415,14.23319747967659,4.1969684875969335,10.036228992079629,0.9123844538254104,0.18247689076508777,5.486458362150972,5.122370422243458,5.109352941422372,18.247689076508436,18.247689076508436,17.5177815134481
6,36,6,0,0.1999999999999998,1.1668921255233844,36.90774833963097,4.797047970479696,8.863772804032706,9.594095940959392,10.338690572783683,9.969930690853355,24.74801865255677,15.8843123616464,15.313653136531372,13.653136531365305,14.391143911439116,4.059040590405914,10.701107011070093,1.1070110701107012,0.0,5.179213596907095,5.218500230159029,5.166051660516615,17.712177121771234,17.712177121771234,17.34317343173433
7,36,7,0,0.2333333333333331,1.1668921255233933,37.271199399901,4.797047970479696,8.487084870848719,9.963099630996311,10.701107011070093,9.622438974468835,24.010772671582924,15.537640790721227,14.944649446494452,13.653136531365305,14.022140221402196,4.243542435424359,10.147601476014756,0.9225092250922557,0.18450184501844547,5.5473418370379735,5.179213596907094,5.350553505535061,17.712177121771234,17.712177121771234,17.3470985587353
8,36,8,0,0.2666666666666664,1.8726460418895101,36.705773234604074,4.494350500534864,8.614171792691849,9.363230209447636,10.486817834581359,9.766526864303543,24.730274518631354,16.122166512318312,15.168432939305148,13.8575807099825,14.232109918360408,4.30708589634591,10.674082438770313,1.310852229322677,0.18726460418895385,5.630408591902415,4.868879708912772,5.2434089172906795,17.602872793761577,17.602872793761577,17.606856696221495
9,36,9,0,0.2999999999999997,1.8866715592735375,36.224093938052164,4.905346054111249,8.678689172658324,9.44090146634287,10.188026420077193,9.817945855689036,25.284214665159677,16.60699705795286,15.659373941970472,14.338703850478993,14.338703850478993,4.528011742256524,10.942695043786586,1.5093372474188413,0.0,5.296139446036609,5.29613944603661,5.282680365965945,17.73471265717137,17.73471265717137,17.738726397781136
10,36,10,0,0.333333333333333,3.408993085853581,36.36259291577137,4.166547104932135,8.711871219403548,9.098535994616793,10.605756267099991,9.855483729421374,26.138358275037163,17.427859093900317,15.719245895880334,14.772303372032127,14.772303372032127,4.924101124010718,11.363310286178546,1.8938850476964149,1.1363310286178603,4.166547104932135,4.166547104932135,4.35593560970176,17.044965429267833,17.42374243880711,17.04496542926782
11,36,11,0,0.3666666666666663,5.336601911880131,35.740411459041965,4.182388574994263,8.364777149988555,9.505428579532435,10.646080009076343,8.753255980693242,26.626061153533726,18.266258383597066,15.588902870433174,14.828468584070606,14.828468584070606,6.083474290900767,11.786731438620222,2.6615200022690715,2.2813028590877877,2.6615200022691,2.6885412026687106,2.6615200022691,17.489988586339692,17.489988586339692,16.349337156795798
12,36,12,0,0.3999999999999997,6.499008416602343,35.873682000836155,3.8163491490251147,8.01433321295275,9.922507787465321,10.685777617270332,9.167185237209841,27.48831279868769,19.478340985572885,16.219483883356787,15.265396596100516,15.265396596100516,6.106158638440206,12.212317276880384,3.4347142341225947,2.671444404317583,2.671444404317583,2.3213945606225703,2.2898094894150915,17.9368410004181,18.318475915320604,16.41473835625774
13,36,13,0,0.433333333333333,7.613842358727163,36.122629689651895,3.8021714318129796,8.364777149988555,9.505428579532463,10.646080009076343,9.133129191798519,28.906506864381168,20.545803022255566,16.72955429997708,16.349337156795798,15.969120013614486,7.034017148854019,12.737274296573474,3.6120628602223235,3.2318457170410397,3.0417371454503837,2.6615200022690715,2.8516285738597276,17.489988586339706,17.870205729521004,17.113995556651506
14,36,14,0,0.4666666666666663,7.613842358727163,36.122629689651895,3.8021714318129796,8.364777149988555,9.505428579532463,10.646080009076343,9.133129191798519,28.906506864381168,20.545803022255566,16.72955429997708,16.349337156795798,15.969120013614486,7.034017148854019,12.737274296573474,3.6120628602223235,3.2318457170410397,3.0417371454503837,2.6615200022690715,2.8516285738597276,17.489988586339706,17.870205729521004,17.113995556651506
15,36,15,0,0.4999999999999996,8.373111380419102,37.64205700744619,4.562440828753921,8.744678255111666,10.265491864696344,11.406102071884817,8.752939644063412,30.425775792047094,21.684930303342792,17.489356510223388,16.728949705431035,17.10915310782721,8.174373151517443,13.49722078506366,4.3723391275558185,3.9921357251596987,4.19948383942852,4.182237426357744,4.182237426357773,18.249763315015684,17.869559912619522,18.253723337480654
16,36,16,0,0.533333333333333,8.78589553685357,37.78956558513623,4.197984063927635,9.159237957660281,11.073990489682087,11.830682361977892,8.78589553685357,30.921849755632874,21.766576729263697,17.36438862806432,16.028666425905527,16.79193625571054,7.632698298050229,14.502126766295476,4.579618978830155,3.8163491490251147,4.595492922367959,4.961253893732646,4.770436436281386,19.081745745125616,18.31847591532059,18.31847591532059
17,36,17,0,0.5666666666666663,9.167185237209841,37.78956558513624,4.197984063927635,8.77760304275779,10.311207593634853,11.830682361977892,8.40463717314639,30.54033257477786,21.766576729263694,17.17357117061306,16.028666425905527,16.79193625571054,8.01433321295275,14.120491851392984,4.579618978830155,3.8163491490251147,4.975910510283518,4.961253893732646,4.961253893732646,18.318475915320604,17.55520608551558,17.17357117061306
18,36,18,0,0.5999999999999996,9.165850372224657,38.54706900439194,4.197372781206667,8.403413345375322,10.691033370321849,12.210538999873961,8.809443231031631,30.56448161511494,22.161187456226415,17.552649812318833,16.026332437334588,16.789491124826725,7.631586874921226,14.118435718604275,4.960531468698804,3.8157934374605986,4.594823757031693,4.578952124952735,4.578952124952735,18.697387843557024,17.552649812318833,16.793826693943466
19,36,19,0,0.633333333333333,9.54711213033138,37.78406291811248,3.8157934374605986,8.784616192756973,10.309706143667869,11.835112561436626,8.429363216753298,30.56448161511494,21.780126445432607,16.98028079669973,15.64475309358852,16.407911781080657,7.631586874921226,14.500015062350343,4.960531468698804,3.815793437460627,4.594823757031721,4.960531468698804,4.960531468698804,18.69738784355701,17.171070468572765,16.407911781080628
20,36,20,0,0.6666666666666663,9.607383751961315,38.3377811124829,4.213786240714484,9.193715434286162,10.75332877623974,11.881392734993634,8.436274158998893,31.432876252517218,22.24784684339984,17.42975217750086,15.322859057143631,16.85514496285799,7.6614295285718015,15.322859057143603,5.363000670000275,3.4476432878573178,5.417448773235961,4.994640980995568,5.171464931785948,18.77050234500092,17.23821643928656,16.872548317997758
21,36,21,0,0.6999999999999996,10.70925982083864,38.18066641793765,3.8150158489440003,8.401700884304068,11.089825205521258,12.214010224281937,8.807648028538011,31.72203457284485,23.321576004162452,17.93057449003689,15.260063395776058,16.786069735353664,7.248530112993592,15.641564980670466,6.485526943204832,3.4335142640495917,4.593887416465094,4.9595206036271975,4.959520603627226,18.312076074931255,16.78606973535365,16.803401768608165
22,36,22,0,0.733333333333333,12.693534227013965,38.47835236395269,3.481578851499174,8.842949511582162,10.77219329631308,12.303234103070821,8.876319250953081,33.868828117772566,25.03821968753251,18.647089187466747,16.147994760280483,17.685899023164325,8.073997380140241,16.916946891722404,7.30504524869832,4.613712788651554,5.437312665504346,5.012954584781916,4.998188854372529,19.22380328604818,17.301422957443364,16.934414058886283
23,36,23,0,0.7666666666666663,14.122254762304317,38.58305858791015,3.433889119585814,8.783784918725804,10.690021695114638,12.215343694598271,8.471634647315765,34.77280472031246,25.989788691190142,18.88639015772202,15.643272655890968,17.55098883343865,8.203179563455024,18.12330368670294,8.584722798964549,4.76929044386921,5.018417740425141,4.974715157245139,4.960062061623972,19.458705010986336,16.787902362419587,16.82687858443153
24,36,24,0,0.7999999999999996,15.966722576427339,38.81188700335949,3.0640800198057074,8.369784840879172,10.64825034287973,12.167612133457418,8.369784840879174,35.757251341516074,27.387512316563058,19.382669952851614,15.582146432684624,17.482408192768133,8.171125568359031,19.192643776843255,9.691334976425793,5.13070675222545,4.9552764147403785,4.95527641474035,5.1307067522254215,19.38266995285163,17.102355840751443,16.381975776078498
25,36,25,0,0.8333333333333329,16.739569681758343,38.43229495276128,2.6603664641168905,8.361151744367362,10.64825034287973,12.161675264534352,9.152872683403086,36.89640935547828,28.54443653205275,20.142774656885024,15.962198784701343,17.862460544784824,7.791073216342312,19.952748480876664,10.451439680459202,5.1307067522254215,5.334288957664774,4.9406805762170904,5.13070675222545,18.622565248818233,16.722303488734738,16.381975776078498
26,36,26,0,0.8666666666666663,14.4469892000063,38.03562723787556,2.6603664641168905,8.741204096384052,10.268449099041177,12.167612133457418,8.774189889427689,34.603552727526235,25.868698234290328,18.622565248818233,15.202094080667933,16.722303488734724,7.220994688317262,18.622565248818233,8.741204096384081,4.5606282242003715,4.998808229698609,5.320732928233781,5.1307067522254215,19.002617600834924,17.102355840751443,16.739569681758375
27,36,27,0,0.8999999999999996,9.58592239989875,35.649671563266985,3.4481746267961455,9.195132338123074,8.812001824034581,10.7276543944769,9.96875853800215,32.19208404607193,23.00059831690862,18.19869941920186,15.708351077626872,16.857742619892264,6.321653482459595,15.899916334671133,5.938522968371132,3.2566093697519136,5.377493021163367,4.995410737904052,5.1722619401942325,18.39026467624612,16.857742619892278,17.24512961426626
28,36,28,0,0.9333333333333328,9.58592239989875,35.649671563266985,3.4481746267961455,9.195132338123074,8.812001824034581,10.7276543944769,9.96875853800215,32.19208404607193,23.00059831690862,18.19869941920186,15.708351077626872,16.857742619892264,6.321653482459595,15.899916334671133,5.938522968371132,3.2566093697519136,5.377493021163367,4.995410737904052,5.1722619401942325,18.39026467624612,16.857742619892278,17.24512961426626
29,36,29,0,0.9666666666666662,6.1064699287041435,33.21270274216804,3.816543705440097,9.16765257775584,8.014741781424163,9.167652577755812,11.506736862673415,30.5704912569472,21.403291432780986,18.31940978611243,16.029483562848384,16.79279230393641,4.961506817072149,14.121211710128307,4.198198075984067,1.52661748217605,5.775478630310549,5.724815558160145,5.724815558160145,19.08271852720044,17.556101045024405,17.560248972086427
30,36,30,0,0.9999999999999996,6.118073105649409,33.21100965416081,3.8163491490251147,9.540872872562801,8.01433321295275,9.540872872562801,11.474461568129186,30.933622780904535,21.402200354577506,18.31847591532059,16.028666425905527,16.79193625571054,4.961253893732646,14.502126766295476,4.197984063927635,1.5265396596100516,5.77518421303047,5.737230784064593,5.724523723537686,19.081745745125602,17.55520608551555,17.55520608551558
31,36,31,0,1.0333333333333328,7.234124515154466,33.8478688701949,4.199635611361028,9.505428579532435,8.75325598069327,9.885645722713747,10.272901511127783,31.1986643383803,21.702373545463427,18.060314301111646,15.969120013614514,16.72955429997711,6.083474290900767,14.828468584070606,4.5626057181755755,2.2813028590877877,5.753729433757626,5.336601911880103,5.513148576128799,19.010857159064884,17.489988586339692,17.113995556651506
32,36,32,0,1.066666666666666,8.341399152288759,35.6218895603886,3.7876342429424312,9.476657848156204,9.098209665832563,10.605375880238768,9.476657848156204,31.079379639063156,21.60280104152758,17.42311751753516,15.529300396063945,16.665590668946663,6.628359925149255,14.961155259622558,4.734542803678011,3.2194891065010722,5.731730675156509,5.316197994983895,5.681451364413618,18.938171214712114,17.80188094182938,17.06117971835801
33,36,33,0,1.0999999999999992,7.992394569653042,36.14714623028618,3.421434977034977,8.751927597273596,8.751927597273596,9.891453546025083,9.891453546025081,30.05424275998992,21.302501542239277,17.297254606121186,15.20637767571094,16.727015443282028,6.0825510702843815,14.065899350032623,4.181753860820493,2.6611160932494045,5.376266385889476,5.3357920357023305,5.322232186498837,19.00797209463866,17.487334327067572,17.124062524909075
34,36,34,0,1.1333333333333324,4.9370544997121275,36.76073110469039,3.786547949310574,8.709060283414317,8.717288022881254,9.845024668207486,9.095600298985785,26.516652146601665,17.8128810441162,15.335519194707814,13.63157261751806,15.146191797242295,5.301167129034809,12.116953437793825,2.6505835645174045,1.8932739746553011,6.105625108726627,5.692429757290614,5.679821923965875,18.17543015669078,17.03946577189761,17.056286571424828
35,36,35,0,1.1666666666666656,4.544932888880226,37.14785697028172,3.7874440740668547,8.711121370353737,8.719351056998216,9.854635447241394,9.498861412991436,26.52292757972971,17.81709664204283,15.528520703674076,13.634798666640648,15.14977629626739,4.923677296286911,12.119821037013907,2.6512108518467983,1.5149776296267419,5.731442897428304,5.302421703693568,5.491793907396925,18.558475962927545,17.043498333300818,17.06032311363985
36,36,36,0,1.1999999999999988,5.714595344961068,37.663498548272756,3.041033823124593,8.362843013592624,9.13101739404688,10.650404239694222,9.510830243218727,26.619904571830045,18.26203478809376,15.395233729568247,13.684652204060654,15.205169115622965,4.941679962577467,12.164135292498372,3.041033823124593,1.9006461394528742,5.714595344961069,5.335367961972882,5.321809190468031,18.626332166638107,17.10581525507581,17.12270155262805
37,36,37,0,1.233333333333332,5.693776928195918,36.76943090240654,3.408699666660169,8.711121370353737,9.121373205952489,9.854635447241394,9.12137320595246,26.914847148298943,18.21520423618901,15.339148499970719,14.013543074047334,15.528520703674076,5.681166111100282,12.119821037013907,2.6512108518467983,2.272466444440113,5.69377692819589,5.315931080247602,5.491793907396925,18.558475962927545,16.664753925894132,16.681960697567035
38,36,38,0,1.2666666666666653,6.071734745396345,36.76943090240654,3.408699666660169,8.340980348783503,9.121373205952489,10.233110381674976,9.097752864517807,26.914847148298943,18.57392848514087,15.528520703674076,14.013543074047334,15.528520703674076,5.681166111100282,12.119821037013907,2.6512108518467983,2.272466444440113,5.731442897428304,5.681166111100254,5.681166111100254,18.558475962927545,17.043498333300818,16.66905728398417
39,36,39,0,1.2999999999999985,5.315168688188948,37.14252935584809,3.786900892215698,8.339784114843768,9.853222130233892,10.610082666246877,8.718100558467935,26.15430167540386,17.81454137697568,15.147603568862763,14.011533301198057,15.526293658084342,6.059041427545139,11.360702676647065,1.8934504461078348,2.65083062455102,5.730620914132473,5.692960346820324,5.680351338323533,18.17712428263532,16.662363925749048,16.701048687048818
40,36,40,0,1.3333333333333317,5.335792035702302,36.92442298383226,3.801594418927749,8.751927597273596,9.51158619731224,10.651250771119624,8.397996559596208,26.27504097846651,17.52448437695038,14.826218233818167,13.685739908139851,15.586537117603712,6.2726307912307675,11.594862977729576,2.0908769304102464,2.4710363723030184,6.129886811977736,5.715049561010905,5.702391628391609,18.247653210853116,16.727015443282028,16.731334879233476
41,36,41,0,1.366666666666665,6.4382393426279805,36.76705761775593,3.053337942676647,7.962131223917641,9.875808331230742,10.989406593220735,8.366197394633463,25.797474183981148,17.836061746005086,14.58071851124572,13.255198646587019,14.77007849191125,5.680799419965865,11.740318801262788,2.6510397293174037,2.6510397293174037,5.7310729611763715,5.3020794586348075,5.491439439300336,18.178558143890783,17.04239825989761,16.30256370274129
42,36,42,0,1.399999999999998,7.612686891324889,37.30408351554429,3.4424901602384512,8.363507721641014,9.913345391791456,11.031176340767525,8.397996559596208,27.793269342340814,19.447672963570945,15.586537117603712,13.685739908139851,15.586537117603712,6.2726307912307675,13.115500745300665,3.6115146979813346,2.8511958141957905,6.129886811977736,5.715049561010905,5.892471349337995,18.627812652745888,17.487334327067572,16.364528283308257
43,36,43,0,1.4333333333333311,8.019993805683576,37.30650980616863,3.041473342396017,8.364051691589054,10.293095795701033,11.411859677647003,8.777233093087965,28.174699429419615,19.82798032910787,15.777642963679341,13.686630040782092,15.587550879779599,5.892854600892264,13.49653795688235,3.991933761894785,2.8513812584962466,6.130285505243945,5.702762516992522,5.892854600892264,18.24884005437609,16.72810338317808,16.35233936395616
44,36,44,0,1.4666666666666646,7.61054241822769,37.293575057143634,3.441520420166194,8.749462203182278,9.91055282948073,11.40790300784308,8.395630866911139,28.18799897641031,19.442194607233816,15.582146432684652,13.301832320584452,15.202094080667933,5.890811456258831,13.871910848609502,3.9905496961753215,2.470340288108531,5.751235690928875,5.713439647164761,5.890811456258831,18.24251289680153,16.722303488734738,16.761127410822052
45,36,45,0,1.4999999999999978,6.486235003662102,37.80359951919663,3.4550209443899087,9.16498302261931,10.329891157836121,11.452654353787992,8.428565559737049,27.513473988721273,18.349810119519365,15.070957802626651,13.354013242833759,14.880186184871889,5.723148532643023,13.354013242833759,3.4338891195858423,2.2892594130572093,5.773796852067654,5.735852540578172,5.913920150397786,18.314075304457702,16.78790236241956,16.4240957365511
46,36,46,0,1.533333333333331,6.128824010118263,37.677220484717495,3.4208417674754514,8.37069168571468,10.6697338285303,11.807396120140652,8.3965405120976,26.295220918020636,17.928975938952497,14.823647659060242,12.543086480743284,14.443554129340754,5.131262651213177,12.733133245603057,3.2307950026157073,1.7104208837377257,6.128824010118263,5.701402945792438,5.701402945792438,18.62458295625521,16.72411530765774,16.38375072136205
47,36,47,0,1.5666666666666642,6.093362821381824,38.05683500541795,3.441893300124103,8.37069168571468,10.6697338285303,11.807396120140625,8.775140550518532,26.674334571325748,18.30772874761716,15.203741188779759,12.9231800104628,14.82364765906027,5.131262651213177,12.733133245603057,3.2307950026157073,1.7104208837377257,6.187474380041928,5.714058683775073,5.701402945792438,18.62458295625521,16.72411530765774,16.383750721362023
48,36,48,0,1.5999999999999974,5.729470731436312,38.26999986815075,3.4075267470865356,8.708123909221115,10.628203780335166,11.743141664256164,8.740984870926233,26.546220726543822,17.859190577218065,14.955256278879773,12.872878822326868,14.387335154365331,4.921983079124999,12.872878822326868,3.0289126640768984,1.5144563320384634,6.104968648718452,5.691817722909415,5.868518286649021,18.5520900674711,16.659019652423027,16.298006013006614
49,36,49,0,1.6333333333333306,6.10422491662091,38.2821876284492,3.4071116283265894,8.337094469172872,10.984995897049345,11.741711067002703,8.780818313449402,26.59692501068102,18.2695814347603,15.142718348118137,12.87131059590044,14.764150389415192,5.11066744248987,12.682026616548967,3.596395607678062,2.0821237728662254,6.10422491662091,6.068906057488942,6.057087339247261,18.171262017741782,16.65699018292996,16.296020523662655
50,36,50,0,1.666666666666664,6.4449330047973685,37.51524509763553,3.4061354764511975,8.334705856386107,11.001395117437864,11.73834701717735,8.7374159846115,26.913233854273923,18.579239346512225,15.327609644030389,12.867622911037842,14.759920397955199,5.109203214676796,13.0568526597296,3.5953652251429276,1.7030677382255988,5.727131426428247,5.676892460752015,5.866122209443745,18.92297486917333,16.65221788487254,15.913310566014589
51,36,51,0,1.699999999999997,6.446780034512688,37.14791529956889,3.4071116283265894,8.715288902782065,11.004547966920788,11.741711067002703,8.780818313449402,27.322537582518216,18.611534362988795,15.332002327469638,13.249878554603384,15.142718348118166,5.489235401192843,13.060594575251912,3.596395607678062,2.082123772866254,5.728772744021461,5.678519380544316,5.678519380544316,18.549829976444755,16.27842222422703,15.562780982604659
52,36,52,0,1.7333333333333305,6.856157334027506,37.9248768849953,3.407111628326561,8.70706305016796,10.62690900934693,11.741711067002703,8.405572781361487,27.322537582518216,18.64615334697536,15.142718348118137,12.871310595900411,15.142718348118137,5.678519380544287,13.249878554603413,3.7856795870295628,2.2714077522177263,5.790976225942056,5.678519380544316,5.489235401192843,18.54982997644474,16.278422224227015,15.562780982604659
53,36,53,0,1.7666666666666635,6.823801947905725,38.27697664878978,3.0281314236043215,8.71410257577176,11.003050025471552,11.740112782752847,8.779623066561543,27.31881843279336,18.609000956906115,15.140657118021664,13.24807497826896,15.140657118021664,5.488488205282863,13.058816764293653,3.5959060655301016,2.4603567816785414,5.790187957005738,5.6777464192581135,5.6777464192581135,18.5473049695765,16.276206401873253,16.293802305824585
54,36,54,0,1.7999999999999967,6.103394008205066,37.54188445495425,3.4066478515548795,8.335959622070638,11.003050025471552,11.758404322459835,8.335959622070638,26.161482681859685,17.826476209690842,14.762140690071107,12.491042122367844,14.762140690071107,5.299229991307556,12.491042122367872,3.02813142360435,1.892582139752676,5.727992942236582,5.6777464192581135,5.4884882052828345,18.547304969576516,15.897689973922724,15.938193708291383
55,36,55,0,1.83333333333333,6.469395740925575,38.816374445553485,3.817907536010862,8.745862679779885,11.043152607484652,12.180392316848868,8.013914872110153,27.039416287964197,18.29821439435137,15.00589194909952,12.536567957475569,14.815943949743854,5.698439980670713,13.296359954898321,3.79895998711379,1.8994799935569233,5.372540736689058,5.318543981959323,5.318543981959323,18.614903936857644,16.33552794458936,16.37523624125747
56,36,56,0,1.8666666666666631,9.111380112191792,37.52334133663316,3.404965200960561,8.709798406242955,10.997615272755286,12.112452892158855,8.400277401164653,29.59687643697787,20.893927719760523,16.268167071256016,13.619860803842244,15.889837604482608,6.431600935147742,14.754849204162412,4.918283068054137,3.026635734187181,4.602576609193842,4.918283068054137,4.918283068054137,18.916473338669775,16.646496538029396,15.907843091963969
57,36,57,0,1.8999999999999964,11.463780817365524,38.19653652736744,3.073975041580496,9.158652163989686,10.322755620277738,11.825818104158591,9.221925124741487,32.89849340280923,23.749776199200774,17.92014488556552,14.869907458235218,17.157585528732938,6.863034211493158,16.776305850316703,6.863034211493215,3.812796784162856,2.696054461367829,2.696054461367829,2.6689577489140106,19.44526359923067,16.77630585031666,16.05454591373213
58,36,58,0,1.9333333333333296,9.536010833401905,38.18210745178448,3.049085173477323,8.774401519310624,9.938801698300473,11.4594502739467,9.343655231514886,30.60735196304029,21.844758917317524,16.960536277467526,14.483154574017192,16.769968454125177,6.4793059936392865,14.86429022070186,5.33589905358528,3.4302208201619635,2.6950360032264387,2.6950360032264666,2.6679495267926256,19.437917980917803,16.769968454125163,16.048481168666246
59,36,59,0,1.9666666666666628,9.537881461346506,37.862849816393066,3.0734165979926615,8.39528846678637,9.598632912895512,11.114097871341517,9.220249793977992,30.202355721646082,21.81243205876665,16.96386333462692,14.104785244521253,17.154468540633985,6.480577004239507,14.485995656535351,4.9557353561831405,3.049683296112704,1.943799329644576,1.9437993296445786,2.0966572660774716,19.44173101271852,16.7732581286199,16.409768854447428
60,36,60,0,1.999999999999996,9.504994851019646,37.70360132525322,3.062819459158466,8.366341516511573,9.906475634104376,11.07577646765136,8.868761388216502,29.750974908560814,21.395936911542385,16.525475943945054,14.056151952321102,16.71542394330075,6.648179977449189,14.246099951676769,4.748699983892237,3.229115989046761,1.937097110565143,2.402673259824707,2.2793759922682852,19.374695934280425,16.715423943300763,16.75423189325026
61,36,61,0,2.033333333333329,9.874983761262579,36.93905870939774,3.436758235024171,8.349582046168365,9.556232000093521,11.032410432103411,8.860134341789383,30.447390236278334,22.130005115123467,17.078690548980717,14.801531809116625,17.837743462268747,7.590529132880306,14.042478895828594,4.174791023084168,3.795264566440153,2.7629943102576897,2.6836573113268547,2.6566851965081355,19.355849288844794,15.940111179048657,16.35930730629974
62,36,62,0,2.0666666666666624,9.901118561970781,35.47618627195586,3.417215079356282,8.741133226139963,9.52259090898254,10.692183372274547,8.490139123531101,30.491303665496314,21.76193414091499,16.706384832408503,14.807932010543908,18.22514708990019,8.163347134017812,13.858705599611568,3.6070603615427217,4.366441490288594,3.5005740382507655,3.4382442937135513,3.417215079356282,19.36421878301894,16.326694268035567,15.987633078310717
63,36,63,0,2.099999999999996,8.389986428991696,35.18147025149182,3.8096965887972942,9.151205239172777,8.836525333578386,10.314362159795698,8.518740546199824,29.803419797735618,20.660360790232676,16.381695331828382,14.85781669630947,17.905573967347294,8.000362836474324,13.333938060790558,3.0477572710378524,3.8096965887972942,4.259370273099912,4.207947418921298,4.190666247677029,19.42945260286622,15.619756014068926,16.42151585188561
64,36,64,0,2.133333333333329,6.4631026662819515,35.42630952489737,4.192006729207018,9.495748911448183,8.7620486519445,9.896839155966843,9.179520347287546,29.312123364937698,19.826398162499096,16.509400864014708,15.18105826576064,18.217269918912763,7.590529132880306,12.524373069252533,1.8976322832200765,3.4157381097961377,4.6171386194621356,4.570103722832823,4.554317479728184,19.35584928884481,15.560584722404641,16.73793429203324
65,36,65,0,2.166666666666662,4.206940072018972,35.52189382662045,4.966047518659278,9.910161786321979,8.456874190679898,9.932095037318557,9.212220896940753,28.277500232953024,18.38108546900518,16.187334463997104,14.854259861079697,17.52040906691451,7.046251472563455,11.997671426256687,0.9521961449410128,2.0948315188702225,4.633586425553263,4.586383974747428,4.570541495716839,19.42480135679652,15.996895235008893,16.41758468034795
66,36,66,0,2.199999999999996,4.207947418921298,35.15051608215447,4.967236632955947,9.91253476302387,8.415894837842597,9.934473265911866,8.836525333578358,27.904564707139222,18.00661062290232,15.81024084350878,14.476847037429707,17.143634649587824,7.047938689274986,12.000544254711514,0.9524241471993378,2.0953331238384862,5.010873517735242,4.571635906556764,4.762120735996632,19.810422261745956,16.00072567294866,17.21122933129241
67,36,67,0,2.2333333333333285,4.207947418921298,35.21651875233243,4.967236632955947,9.91253476302387,8.415894837842597,9.934473265911866,9.269391864856443,28.31760569774271,18.42885350501854,16.191210502388515,14.85781669630947,18.28654362622703,7.428908348154749,11.61957459583175,0.9524241471993093,2.4763027827182498,5.01087351773524,4.967236632955947,4.9526055654364995,19.42945260286622,15.619756014068926,16.42151585188561
68,36,68,0,2.2666666666666617,5.369635456412775,34.68510193733161,4.556286772475062,9.499854885513539,8.387638716636973,9.522590908982568,8.863965475295775,28.222530163379975,18.743796878704053,15.94700370366266,14.80793201054388,17.845456525527254,7.593811287458408,11.770407495560534,1.1390716931187512,3.037524514983346,4.994049656198072,4.950559280985392,5.125822619034437,18.98452821864602,15.567313139289737,16.39718221270614
69,36,69,0,2.299999999999995,5.685260960442089,35.2700346413505,4.5538653557556055,9.462008877118825,8.354223611974053,9.484654323653183,8.771771750003458,28.453962970959527,19.003205979579445,16.07256218046703,15.12711734632191,17.774362881928255,7.752647639989988,11.91260491022851,1.3236227678031582,3.214512436093429,5.722870594102625,5.672669004870727,5.672669004870727,19.287074616560446,15.505295279979961,16.657010117106545
70,36,70,0,2.333333333333328,6.489139499930919,35.98301044198687,4.208894373965178,9.153264623261029,9.177029088933248,10.316683300318473,8.895827700826992,28.70336259556529,19.567852967743793,16.194854166846625,14.861160294282769,18.290658823732628,7.811635539302472,12.003244853074534,1.7147492647249294,3.6200262255304096,5.388937036096198,5.348367296972427,5.334775490255339,19.05276960805483,15.623271078604972,16.076744607450337
71,36,71,0,2.3666666666666614,6.471928970010675,37.176478805761626,4.1761861368464315,9.082132605418032,9.859488581872064,11.02324334622447,8.728980766103497,28.447657428595925,19.375249017081686,16.06900041925215,15.12376510047261,18.148518120567104,7.939976677748092,11.720917952866273,1.8904706375590763,3.780941275118124,5.347058429808299,4.915223657653598,4.915223657653598,18.904706375590735,15.501859227984411,15.52029188518311
72,36,72,0,2.3999999999999946,7.669649888473704,38.07726028236863,3.792397794241964,9.10965210871307,10.302486787165124,11.402448005105425,8.044890591796205,28.566599826182063,19.47461811576982,15.548830956392067,14.411111618119463,17.824269632937245,8.153655257620215,12.32529283128639,2.4650585662572837,3.9820176839540693,5.322883957841805,5.30935691193875,5.309356911938721,18.582749191785624,15.169591176967856,16.346950221162068
73,36,73,0,2.433333333333328,9.09888610567506,37.557498348934026,3.4212212292899697,8.697855069810124,10.26366368786997,11.76684680121734,8.38875849631157,29.587666467538543,20.902868905650337,16.245859299776697,14.734616574216062,18.134912706727476,8.122929649888334,13.034468507960383,3.211390791816342,4.3448228359867755,5.343049896313798,5.302825611085228,5.289349539462194,18.89053406950778,15.112427255606221,16.285349630477494
74,36,74,0,2.466666666666661,8.730915581233695,38.006411959158875,3.424546840018592,9.084145698131852,10.273640520055807,11.778284808098965,8.354223611974056,29.58502193637734,20.508962774766687,16.07256218046703,14.748939412663844,18.53071874924433,8.319914540477043,12.85804974437363,2.647245535606345,4.538135203896559,5.348243627694443,5.29449107121269,5.294491071212661,18.530718749244343,15.505295279979961,16.30117986471862
75,36,75,0,2.4999999999999942,7.1937313872377056,37.621790638306535,3.423787943087522,8.326659419633819,9.946103615344686,11.443204753965158,8.352372273692867,27.28833957333639,18.965104952397272,15.312812164228518,14.36757684544898,18.148518120567104,7.939976677748092,10.964729697842643,1.1342823825354742,3.780941275118124,5.347058429808301,5.306803966984969,5.482364848921321,18.904706375590735,15.501859227984411,16.297567440666537
76,36,76,0,2.5333333333333274,6.084271948412541,37.35010854830811,3.436758235024171,8.35820319667986,9.933157953820238,11.110470913417547,8.006119373659088,25.87747089999427,17.524097303888972,14.42200535247261,14.042478895828594,17.458217005624732,7.780292361202299,10.05745110106642,0.5692896849660372,3.9850277947621464,5.743277449857565,5.6928968496602295,5.692896849660258,18.976322832200793,15.940111179048657,15.579087207802138
77,36,77,0,2.5666666666666607,5.743277449857565,36.972188790607326,3.795264566440153,8.35820319667986,9.556232000093521,10.687562056669453,8.426854889419419,26.286145955833447,17.938397367324384,14.991295037438647,14.801531809116625,18.217269918912763,8.159818817846343,9.677924644422376,0.18976322832199344,3.985027794762175,5.367314622653709,5.313370393016214,5.313370393016214,18.596796375556778,15.560584722404641,16.35930730629974
78,36,78,0,2.599999999999994,6.843538575349521,36.2623107846874,3.4375257913654145,8.739306559908126,9.18157047667414,10.36136983415744,8.805016557006349,27.805064206489273,19.075227679782387,15.564059981547302,14.804837543423048,18.60094973404435,7.971835600304701,11.008725352801775,1.1388336571864102,4.1757234096834,5.744560137997024,5.694168285931966,5.504362676400916,18.98056095310649,15.943671200609444,15.60566900866296
79,36,79,0,2.633333333333327,5.350543104293839,35.90670226626756,3.831117226217827,9.156988327912627,8.842109560881799,9.940751339562134,9.940751339562162,28.27389081170046,19.121416987805187,16.392047716605816,16.010837304591718,18.298099776676253,7.242997828267676,11.055101948408577,1.1436312360422676,3.049683296112704,5.768760318664712,5.718156180211338,5.718156180211338,18.679310188690323,16.010837304591703,16.409768854447453
80,36,80,0,2.6666666666666603,1.2009207386164078,35.770508277818585,5.316702752703463,9.50170431235798,8.74283494544346,9.881177004978763,11.019715705995527,26.98733709208264,17.48566989088692,16.8995194639503,15.570343775774404,17.848930669790178,5.696467235039421,10.25364102307097,0.0,0.7595289646719436,5.746879432183457,5.316702752703463,5.316702752703463,18.228695152126164,15.95010825811039,16.347526662077914
81,36,81,0,2.699999999999993,0.7654748888526512,36.41038258330034,5.753805437162112,9.576087800094369,9.193668905185898,10.340996300994405,11.105982849355192,27.19860574364613,17.622555345236396,17.22318499918498,16.4577101103323,18.37139733246397,6.315167833034508,9.759804832871481,0.5741061666394955,0.9568436110658354,6.1714558537803725,5.753805437162083,5.741061666394984,18.371397332463985,16.07497266590599,16.84044755475864
82,36,82,0,2.7333333333333267,1.9450434156302996,37.03252333623734,5.340361562891417,9.543985972485379,9.543985972485352,11.0687523691945,10.687532640740333,27.488547170350042,17.944581435913992,16.974720682047746,16.402539086023666,17.928356675421213,6.4847247549395775,10.299268728433475,0.0,1.5258175893975476,5.734517010186958,5.721815960240804,5.721815960240804,18.3098110727706,16.402539086023666,16.788327632827706
83,36,83,0,2.76666666666666,6.49593431344435,37.78132019520994,4.195998370843256,8.773451139035899,10.687532640740303,11.449987728758611,9.186638406357748,28.63195791745611,19.868611716442153,16.59326628469836,16.402539086023666,17.546902278071826,7.819815145662432,11.63435911915633,2.097999185421628,3.6238167748191756,6.150767341305296,6.115179189124083,5.912543158915497,18.691265470119987,16.783993483373052,16.42027156588961
84,36,84,0,2.799999999999993,6.879019447671631,38.55651103000922,4.214681608376634,8.784616192756946,11.472790732799163,12.210538999873961,8.40341334537535,28.27809316928252,19.49418622172498,16.026332437334588,15.263173749842451,16.407911781080628,7.4407972030481915,12.401328671746995,2.861845078095456,3.2434244218415245,5.736395366399567,5.723690156190941,5.532900484317906,18.31580849981094,16.789491124826696,16.793826693943494
85,36,85,0,2.8333333333333264,7.2610994618376195,38.55268279150456,3.8163491490251147,8.785895536853568,11.073990489682087,12.212317276880384,8.430590823723572,28.28221143817049,19.49702524980697,15.837848968454267,15.265396596100487,16.028666425905527,7.251063383147738,12.593952191782904,3.053079319220103,3.434714234122623,5.77518421303047,6.106158638440206,5.915341180988946,17.93684100041807,16.79193625571054,16.410301340808047
86,36,86,0,2.86666666666666,6.90536194933154,38.69468106406951,4.213446191130458,9.200950059103201,10.731973589556024,12.26328155888485,8.46164260136885,28.768870859200817,19.568837214764123,16.087703638861797,14.938581950371656,15.70466307603175,6.894730130940758,13.406419699051526,3.447365065470393,3.0643245026403463,5.796455526013527,5.758362305962807,5.745608442450646,17.619865890181984,16.85378476452189,16.475197559675536
87,36,87,0,2.899999999999993,6.911249322391742,38.54448950430005,3.816099048777346,8.777027812187896,11.073264767884323,12.217478155835332,8.785319762844187,28.26232944153495,19.495747533682092,16.027616004864853,14.88278629023165,15.264396195109384,6.296563430482621,13.165541718281844,3.6252940963384788,2.480464381705275,5.39677903013999,5.736854800949678,5.724148573166019,17.935665529253527,16.790835814620323,16.03215833625968
88,36,88,0,2.933333333333326,5.75920735928337,39.07774892420263,3.830967749407648,9.202300320338354,10.733548532124074,12.265081224527904,8.436831300936289,27.22414097448408,18.021843039507544,15.132322610160287,13.791483897867607,14.17458067280836,5.55490323664111,13.216838735456435,3.6394193619372857,1.7239354872334616,5.797306169604446,5.746451624111501,5.746451624111501,18.00554842221601,17.239354872334474,16.094624577233212
89,36,89,0,2.9666666666666592,6.095124214383127,38.78261074179482,3.802034023961596,8.752939644063384,11.032451953080285,12.166508876677113,8.373111380419102,27.018528222828166,18.26559825362604,15.208136095846413,13.687322486261763,14.067525888657912,5.51294933474432,13.117017382667512,3.611932322763522,2.091118713178872,5.3768880812904545,5.336409050770237,5.322847633546246,17.869559912619536,16.72894970543105,15.973068490328759
90,36,90,0,2.9999999999999925,6.557897369351144,39.07975638946405,3.44804809524274,8.428562010593339,11.116980689497838,12.64284301588998,8.437264709876635,26.842769468032365,18.425472001934068,15.133099973565322,13.792192380970931,14.175308835997896,5.555188597891089,12.834401243403477,3.6396063227561797,2.107140502648349,6.141824000644661,5.759503215851994,5.746746825404529,18.006473386267572,16.857124021186664,16.095451375107267
91,36,91,0,3.0333333333333257,7.6135671997192,37.657414844481515,3.4428882395274734,8.744678255111694,11.032451953080285,12.166508876677113,8.373111380419102,28.158162762456403,19.423891911131985,15.588339498242561,13.687322486261763,14.827932693450236,5.893152737140497,13.877424187459837,3.9921357251596703,2.471322115575049,5.715710432287272,5.715710432287273,5.703051035942423,17.869559912619536,17.109153107827225,15.5929754357423
92,36,92,0,3.066666666666659,9.968392732136753,36.781175026666666,3.4480480952427115,9.585570642292629,10.372484460167337,11.87661010583605,8.46331911479574,31.45290431864428,21.867863055413164,16.85712402118665,15.32465820107879,15.707774656105755,7.087654417998948,15.899332883619223,5.938305052918025,3.6396063227562365,5.7976039833492505,5.377295692831945,5.363630370377564,18.006473386267587,17.240240476213643,16.478461806491524
93,36,93,0,3.099999999999992,9.929193466844993,35.48972115362932,3.052879239021877,9.15863771706563,9.540247621943365,10.310531859975962,9.9218575268211,32.05750341678373,22.899774154396326,17.935665529253527,16.409225909742588,16.409225909742588,6.487368382921488,15.646006099987119,6.105758478043754,3.4344891438996115,5.774805742679294,5.736854800949678,5.724148573166019,17.935665529253527,17.172445719498057,16.42696561860926
94,36,94,0,3.1333333333333253,2.7089032741131183,35.25323050158804,4.597161299289212,8.811225823637642,8.42812904869686,9.585078246693135,11.51841471856671,27.58562806171965,18.77565071591338,17.430903259804865,16.090064547512185,15.32387099763065,4.21406452434843,11.876000023163783,2.681677424585388,0.0,5.759207359283341,5.377019469659103,5.55490323664111,17.622451647275255,16.85625809739372,16.4776153339775
95,36,95,0,3.1666666666666585,0.7691795681529925,35.768917546361834,5.014437290735693,8.845565033759328,8.845565033759328,9.622433323334493,11.947069784907248,26.539481837447582,17.69530989748076,17.306540283442217,15.768181147136232,15.383591363059736,3.6536029487266717,10.960808846180072,1.7306540283442473,0.5768846761147586,5.819899497557069,5.397974851474658,5.576551869109181,18.075719851595167,17.30654028344219,16.157348732333748
96,36,96,0,3.199999999999992,1.1538376195757962,34.61512858727386,4.615350478303185,8.846088416747762,8.846088416747762,9.623002672820865,11.922988735616542,26.538265250243285,17.692176833495523,17.11525802370761,15.769114134202539,15.769114134202539,3.846125398585997,10.769151116040746,1.1538376195757962,0.0,6.201690859135526,5.769188097878953,5.769188097878953,18.07678937335413,17.30756429363693,16.5428108482353
97,36,97,0,3.233333333333325,1.5919326739836277,34.36293436293437,4.633204633204656,9.65250965250965,8.494208494208493,9.660228573897143,11.583011583011569,27.415846295099186,17.764814008227543,16.988416988416986,16.216216216216225,16.216216216216225,4.633204633204656,11.196911196911174,1.1583011583011569,0.3861003861003951,5.842759054216811,5.80436153605131,5.791505791505784,18.146718146718158,17.760617760617762,16.988416988416986
98,36,98,0,3.266666666666658,2.3305603564361017,34.10176927211743,4.597701149425291,9.195402298850581,8.429118773946357,9.586203833867295,11.494252873563227,27.58886747493441,18.39479522476293,17.241379310344826,16.091954022988517,16.47509578544063,4.789272030651347,11.30268199233717,1.3409961685823646,0.9578544061302807,6.177975286052525,5.759883669874668,5.747126436781599,18.007662835249036,17.624521072796924,17.24563591559678
99,36,99,0,3.2999999999999914,3.448250552414862,34.48463400818018,4.214528452951441,9.195334806439547,8.42905690590294,9.578473756707893,11.117633439230646,27.971767485872714,18.777717737278987,17.049683286940024,15.708696961000925,16.091835911269243,4.7892368783539325,12.068876933451918,2.107264226475735,0.9578473756707808,5.797944398121599,5.7598413934822466,5.747084254024713,18.00753066261082,17.6243917123425,16.862467101436042
100,36,100,0,3.3333333333333246,3.076832047735678,34.998964542993434,4.615248071603531,9.238505251996466,8.076684125306201,9.615100149173998,10.768912167074916,27.694159161983055,18.460992286414125,16.922576262546272,15.384160238678447,15.384160238678447,4.615248071603531,12.30732819094274,2.3076240358017515,0.7692080119339266,6.201553254267593,6.1656712563434235,6.345966098454852,18.076388280447148,17.691784274480185,16.542443791676995
101,36,101,0,3.366666666666658,3.4562286945858003,35.50413180655002,4.198442701274615,9.549545711381116,8.39688540254923,9.923591839376343,9.930929061701747,27.101726983839807,17.557124023512017,15.839579282081502,14.122034540650958,14.885387759064514,4.580119310481393,12.595328103823846,2.671736264447503,0.7633532184135561,5.737857586897993,5.737857586897995,5.725149138101756,17.93880063271881,17.55712402351203,16.798107479361864
102,36,102,0,3.399999999999991,4.61360390647512,35.63398220224497,4.21452845295147,9.578473756707865,9.195334806439575,10.34475165724453,8.820521031250625,27.2136559754125,17.64104206250125,15.325558010732607,14.559280110196,14.942419060464317,5.938653729158915,12.452015883720208,2.4904031767440244,2.1072642264757633,5.797944398121599,5.377611428590113,5.5555147788905686,18.00753066261082,18.00753066261082,17.241252762074197
103,36,103,0,3.433333333333324,5.343511450381698,36.64917216536734,3.8167938931297556,9.168253549209401,9.92366412213741,10.69383643215413,8.405616620437113,26.728460152689465,17.561400107369987,14.8854961832061,14.122137404580144,14.8854961832061,6.106870229007626,12.21374045801528,2.2900763358778704,2.6717557251908204,6.154395227708809,5.737899381058353,5.725190839694648,17.938931297709942,17.557251908396964,17.17557251908397
104,36,104,0,3.466666666666657,6.142229709533096,36.78959044952583,3.448275862068982,9.578544061302694,10.34482758620689,11.500636796784402,8.437822048101621,27.596847671063784,18.023959366036905,14.942528735632209,14.176245210727984,14.94252873563218,6.13026819923374,13.026819923371647,2.681992337164729,3.06513409961687,5.797986954184494,5.377650899470559,5.555555555555543,17.624521072796938,17.24137931034484,16.47955032000505
105,36,105,0,3.4999999999999907,5.336717638583512,36.50955778620317,3.8022538836752062,9.133327247968086,10.266085485923014,11.033089925205553,8.399453364838969,26.659196100700026,17.52752435922899,14.828790146333262,14.06833936959822,14.828790146333262,6.08360621388033,12.167212427760603,2.2813523302050953,3.041803106940165,5.7538542060660465,6.095476676316811,5.893493519696534,17.870593253273412,17.490367864905892,15.973992162826502
106,36,106,0,3.533333333333324,6.475005044644912,37.2698469540229,3.4220284953076714,8.74518393245296,10.273124283792074,11.40676165102559,8.399453364838969,27.020090619650357,18.286430028950463,15.018902840517,13.688113981230714,14.448564757965755,5.703380825512795,12.927663204495673,3.4220284953076714,2.66157771857263,5.7538542060660465,5.716040953910867,5.703380825512795,18.25081864164092,17.870593253273398,15.96946631143581
107,36,107,0,3.566666666666657,7.234333684578104,37.65026614425938,3.4220532319391737,8.753509074693026,10.653175457126917,11.787072243346017,8.399514081511226,27.798291599139517,19.045596633259606,15.399239543726225,14.448669201520914,15.209125475285163,6.463878326996195,12.92775665399239,3.4220532319391737,3.041825095057021,5.753895798639383,5.7160822731456,5.703422053231947,17.49049429657795,17.49049429657795,16.730038022813687
108,36,108,0,3.5999999999999903,7.61348751815139,37.51694453396661,3.0302812911040746,8.712058711924186,10.234211493615414,11.363554841640251,8.341877862121548,27.674656701168928,18.973318107430213,15.151406455520345,13.636265809968307,14.772621294132335,5.871170001514145,13.446873229274303,3.977244194574098,2.84088871041007,6.107727204681989,5.694389594875759,5.871170001514145,17.80290258523641,17.4241174238484,16.670850922216058
109,36,109,0,3.633333333333324,7.642435722171908,38.03014258422054,3.4220284953076714,8.74518393245296,10.653098449652871,11.786987039393097,8.020863354518513,27.798090656591693,19.072008453055627,15.209015534700768,13.688113981230714,14.448564757965755,6.0836062138803015,13.688113981230714,4.182479272042713,2.66157771857263,6.130950166931707,6.095476676316813,6.0836062138803015,18.25081864164092,17.870593253273398,16.72991708817085
110,36,110,0,3.6666666666666567,7.2069309054698865,37.50765149977355,3.4300701280823547,8.71212121212119,10.633082460316805,11.74242424242425,8.341937706645906,27.67485523879972,18.97345422176999,15.340909090909093,13.636363636363626,14.393939393939377,5.681818181818187,13.636363636363626,4.166666666666657,2.2727272727272805,6.107771021438298,5.694430446353351,5.871212121212096,18.181818181818187,17.80303030303031,16.666666666666657
111,36,111,0,3.69999999999999,7.206724103911561,37.87959479163145,3.4089930858535524,8.711871219403548,10.612517986796831,11.742087295717823,8.341698336275952,27.66109720205993,18.953995501757184,15.340468886341029,13.635972343414267,14.014749352953544,5.492266638319649,13.825360848183891,4.35593560970176,2.083273552466096,6.107595760070927,5.694267045717851,5.871043647858926,18.181296457885693,17.802519448346416,16.670492148249558
112,36,112,0,3.733333333333323,7.234281390521226,38.030142584220556,3.8022538836752062,9.125409320820467,10.653098449652845,12.167212427760631,8.442373692149667,28.5574327024686,19.451046562468253,15.77935361725207,13.688113981230714,14.448564757965755,5.7033808255128235,14.448564757965727,4.562704660410219,2.2813523302051237,6.0954766763168395,6.0954766763168395,5.8934935196965625,17.870593253273398,17.490367864905878,16.35411232762502
113,36,113,0,3.766666666666656,8.341877862121574,37.886091084609774,3.030281291104046,8.720289284106455,10.6330061792674,11.748447852597613,8.74493452199418,28.827516813645055,20.107748838158162,15.908976778296363,13.636265809968307,14.393836132744326,5.302992259432102,14.772621294132335,4.924207098044121,2.272710968328056,6.107727204681989,5.7320596170741736,5.871170001514145,18.560472908012414,17.80290258523641,16.670850922216058
114,36,114,0,3.7999999999999896,7.614062507414757,37.65026614425938,3.4220532319391737,8.745247148288968,11.033169679503343,12.17323999511949,8.373656100967771,28.147156689462747,19.40654015996176,15.589353612167315,13.688212927756666,14.448669201520914,5.703422053231947,14.06844106463879,4.562737642585546,2.661596958174897,6.13099448539814,5.7160822731456,5.893536121673009,17.870722433460074,17.11026615969581,16.734358239289268
115,36,115,0,3.833333333333323,8.34169833627595,37.51613713048943,3.408993085853581,8.341698336275952,10.63277734596906,11.742087295717852,8.720101614455384,28.80947158136894,20.467982485582922,16.287411410189264,14.014749352953544,15.151080381571404,5.871043647858926,14.204137857723197,4.734712619241066,2.462050562005345,6.1075957600708985,5.694267045717851,5.681655143089273,17.802519448346402,17.044965429267833,16.6833966725519
116,36,116,0,3.866666666666656,7.261892750078487,37.803329267313366,3.435089482861059,8.40555539494922,10.312334111702274,11.456657786983255,8.405555394949191,27.50456030630092,19.099091422762232,15.457902672874695,14.122034540650958,15.26706436827132,6.297664051911937,12.78616640842722,3.244251178257656,2.862574569050878,5.775815162344586,5.737857586897993,5.915987442705131,17.93880063271881,17.557124023512017,16.416531696093333
117,36,117,0,3.899999999999989,4.942930048777754,36.88970153734293,4.182479272042713,9.133327247968086,9.5360042265278,10.653098449652843,9.133327247968085,27.386787742203182,18.254778893101594,15.77935361725207,14.828790146333262,15.589240923068303,6.0836062138803015,12.167212427760631,2.2813523302051237,1.901126941837589,5.753854206066019,5.716040953910839,5.703380825512767,17.870593253273412,16.729917088170865,16.35411232762502
118,36,118,0,3.9333333333333225,3.4350894828610308,35.89586836765297,4.9617959196882,9.541915230169593,8.786855411821758,9.930929061701775,9.549545711381116,27.48336626708637,17.94286056275442,16.22125589128828,14.503711149857764,15.648740977478099,5.534310833498353,12.404489799220471,1.7175447414305438,0.9541915230169309,6.154350399843414,5.725149138101727,5.725149138101727,18.320477241925573,17.175447414305225,16.79377080509846
119,36,119,0,3.966666666666656,3.447365065470393,36.39691658738177,5.745608442450617,9.959054633581133,8.818255982322853,9.966418076090678,9.988475833967186,29.12116104534369,19.167343640264363,17.42834560876696,15.70466307603175,16.470744201691844,6.128649005280664,13.023379136221479,1.9152028141502342,0.7660811256600653,6.235448603339332,5.758362305962807,5.745608442450646,18.768987578672125,17.23682532735195,16.475197559675532
120,36,120,0,3.999999999999989,3.830714764285915,36.01686831902672,5.376664388119858,9.959858387143356,8.81896766680688,9.967222423925458,9.967222423925486,29.123511292208246,19.168890556241454,17.23821643928656,15.7059305335722,16.472073486429395,6.129143622857441,13.024430198572077,1.9153573821429575,1.1492144292857631,5.758827039251879,5.7588270392518774,5.746072146428844,18.387430868572338,17.23821643928656,16.476527203824915
121,36,121,0,4.033333333333323,5.322232186498837,36.12314944988282,4.942072744606037,9.51158619731224,8.751927597273596,9.891453546025081,9.155451749145445,28.914618262920236,19.403034022618357,16.727015443282,15.966696559496484,16.727015443282028,7.223029395962698,12.545261582461507,2.2809566513566324,2.280956651356661,4.624839217368875,4.561913302713265,4.561913302713265,18.627812652745902,17.867493768960358,17.111398357621614
122,36,122,0,4.066666666666656,5.322232186498837,36.12314944988282,4.942072744606037,9.51158619731224,8.751927597273596,9.891453546025081,9.155451749145445,28.914618262920236,19.403034022618357,16.727015443282,15.966696559496484,16.727015443282028,7.223029395962698,12.545261582461507,2.2809566513566324,2.280956651356661,4.624839217368875,4.561913302713265,4.561913302713265,18.627812652745902,17.867493768960358,17.111398357621614
123,36,123,0,4.099999999999989,7.612686891324917,36.50322555089169,4.181753860820493,8.743667163533786,8.751927597273596,10.271342508161435,8.776662251203465,29.2944857111917,20.560265408942495,16.727015443282,15.966696559496484,16.727015443282028,7.60318883785547,12.925421024354279,3.0412755351421765,3.421434977034977,3.041275535142205,3.0649434059888536,2.8511958141957905,19.388131536531446,18.24765321085313,17.111398357621614
124,36,124,0,4.133333333333322,5.295121744144096,36.2348129770535,4.16699281872518,9.054283286330445,9.085667377960533,10.193052632599178,9.124745697563462,27.56335771643069,18.52044246157594,15.844995751078272,15.090472143884057,16.222257554675366,6.602081562949252,11.883746813308733,2.0749399197840717,2.452201723381137,3.7914342027505863,3.791434202750616,3.7726180359710213,18.485828376258,17.35404296546669,17.358143152875446
125,36,125,0,4.166666666666655,4.182237426357773,36.507446674961294,4.562440828753921,9.13279912681302,8.777677158234845,9.892597364195028,9.535452821171342,27.398397380439064,18.26559825362604,16.158644601836812,15.208136095846413,15.968542900638738,6.083254438338571,11.786305474280965,1.5208136095846498,1.5208136095846498,4.578255229131987,4.942644231150098,4.942644231150098,18.249763315015684,17.10915310782721,16.728949705431063
126,36,126,0,4.199999999999989,4.182025845794527,36.885702292426956,4.956995082276959,9.512204839300932,8.752496830394273,9.892096894922515,9.13233709594624,27.77687037294778,18.264674191892478,16.157827131478854,15.207366711980086,15.967735047579083,6.463130852591519,12.165893369584069,1.9009208389975072,1.9009208389975072,4.9569950822769595,5.336139080341102,5.132486265293267,18.24884005437609,17.108287550977593,16.347919215378596
127,36,127,0,4.233333333333322,4.197708953655081,37.03386009395287,4.975584419456163,9.929193466844993,9.16658447579893,10.310531859975962,9.190383523578346,28.280357994522607,18.35301649335432,16.21842095730372,15.264396195109384,16.409225909742588,6.678173335360356,12.402321908526375,1.7172445719498057,2.0988544768275403,5.39677903013999,5.724148573166019,5.724148573166019,18.698885339008996,17.935665529253527,17.17668530621109
128,36,128,0,4.266666666666655,4.95724587073457,36.911073694757704,4.562440828753921,9.885288462300139,9.512686088755565,10.272530255557287,9.13279912681302,28.525392135304056,18.6454787656592,16.158644601836812,15.208136095846413,16.728949705431035,6.843661243130867,12.54671227907329,1.9010170119808265,2.2812204143769463,5.376888081290453,5.336409050770235,5.322847633546246,18.62996671741186,17.489356510223374,17.10915310782721
129,36,129,0,4.299999999999988,5.316197994983869,37.514791573860734,4.545161091530929,9.09032218306183,9.098209665832535,10.233624189682914,8.719788858627412,27.660105107043123,18.57486108850764,15.908063820358166,14.771773547475448,15.908063820358166,6.628359925149255,12.309811289562873,2.083198833618326,2.4619622579125746,5.731730675156509,5.694062814702766,5.681451364413647,18.18064436612363,17.044354093240912,17.044354093240912
130,36,130,0,4.3333333333333215,4.942072744606065,37.27307751869357,4.5777258745727085,9.50398604731933,9.155451749145445,10.292426367176242,9.131743159285072,28.142071403967975,18.64332290743366,16.15677628044287,15.20637767571094,16.346856001389256,6.65279023312354,12.35518186151512,2.0908769304102464,2.090876930410275,5.752856254817368,5.7150495610108765,5.702391628391581,18.24765321085313,17.1071748851748,16.731334879233508
131,36,131,0,4.366666666666655,4.182025845794527,37.65550974531316,4.942394181393524,9.504604194987564,9.51220483930096,10.264972530586562,9.156047227834291,27.76385830010517,18.264674191892478,16.157827131478825,14.827182544180573,15.967735047579083,6.273038768691777,12.35598545348384,2.091012922897278,1.3306445872982522,5.753230425682294,5.336139080341129,5.512670433092779,18.24884005437609,17.10828755097758,16.347919215378596
132,36,132,0,4.399999999999988,3.8012922789057484,37.64047215613778,4.956278753504116,9.503230697264343,9.131017394046854,10.270526170775247,9.15472409961525,27.393052182140615,17.902432066924444,15.965427571404092,14.825039887732373,15.585298343513529,6.0820676462492145,12.164135292498344,1.9006461394528458,1.5205169115623107,5.375839095372621,5.321809190468031,5.321809190468031,18.246202938747544,17.105815255075825,15.965427571404092
133,36,133,0,4.433333333333321,4.16618848147354,37.50334695491522,4.560686602976216,9.468610185167108,9.097752864517833,10.233110381674976,9.097752864517833,27.280115982595635,17.81709664204283,15.717892907377404,15.14977629626739,15.907265111080761,6.4386549259136245,11.741076629607221,1.5149776296267419,1.8937220370334273,5.731442897428331,5.315931080247631,5.491793907396925,17.800987148114174,17.043498333300803,16.290412927928028
134,36,134,0,4.466666666666654,4.938470853323631,37.50523001092378,4.166397667236652,9.0903221830618,9.476657848156204,10.233624189682914,8.744432682215155,26.916198552073713,17.838108662392322,15.339918683916807,14.771773547475448,15.529300396063917,6.438978213002088,11.741666153121514,1.8938171214712156,2.651343970059685,5.731730675156509,5.694062814702766,5.681451364413647,17.801880941829396,17.044354093240912,16.665590668946663
135,36,135,0,4.499999999999988,3.0416272191692713,38.03744554489571,4.578255229131986,9.13279912681302,9.512686088755567,10.645695267092464,9.892597364195028,26.638668602117917,17.505879288126796,15.96854290063871,14.447729291054088,15.588339498242561,5.1327459323481435,11.596203773082891,1.710915310782724,0.5703051035942224,5.753521497946981,5.715710432287243,5.703051035942394,17.489356510223374,16.72894970543105,16.353166675240317
136,36,136,0,4.533333333333321,0.3787770095392773,37.51613713048943,5.316388672984529,9.098535994616793,8.720101614455384,9.848202248021408,10.991061974556915,25.781890589189565,16.683396672551904,16.47679991495889,14.39352636249285,15.52985739111071,3.977158600162511,10.795144771869616,0.9469425238482074,0.9469425238482074,5.7319362572184,6.0722573973415725,5.871043647858926,17.802519448346402,17.42374243880711,16.66618841972857
137,36,137,0,4.566666666666654,0.8534548436080032,37.04033350766164,4.961795919688171,8.786855411821756,9.19198997655244,9.930929061701747,11.838129359108873,26.360566235465296,17.57371082364354,17.17544741430524,14.503711149857764,15.648740977478127,3.244251178257656,11.259459971600108,1.7175447414305154,1.3358681322237373,5.397722371808069,5.357086493708206,5.343472528894978,17.55712402351203,17.17544741430524,17.17544741430524
138,36,138,0,4.599999999999987,2.6988611859040623,37.43545201049334,4.961795919688171,8.786855411821756,8.811688778566118,9.930929061701747,11.838129359108843,28.267269616563546,19.480469029533275,18.1296389373222,14.885387759064542,16.412094195891655,3.8167660920678372,12.595328103823846,2.6717362644474747,0.7633532184135561,5.737857586897965,5.357086493708206,5.534310833498381,17.557124023512017,17.557124023512017,17.17544741430524
139,36,139,0,4.63333333333332,7.234333684578132,37.27011636454098,4.182509505703422,9.505703422053216,10.273198544567528,11.787072243345989,9.513304945396822,30.427755169190213,20.926369438504988,17.300380228136902,15.589353612167315,16.349809885931563,6.463878326996195,14.448669201520914,4.182509505703422,2.281368821292773,6.13099448539814,6.0955207383579495,5.893536121673009,17.870722433460074,17.870722433460074,17.114490395326104
140,36,140,0,4.666666666666654,6.82864660884685,37.88041001726202,4.166636775268074,9.848414196088214,10.99129851867725,12.12112516441627,9.122354691793635,29.945596346514346,20.107748838158162,16.666547101072382,15.530191616908354,15.908976778296363,6.628740324290135,14.204443552050321,3.977244194574098,2.4621035490220606,5.694389594875759,5.694389594875759,5.68177742082014,17.424117423848386,17.424117423848386,16.670850922216058
141,36,141,0,4.699999999999987,6.072257397341601,38.258353051226,3.7877700953928297,9.090648228942854,10.233991242791447,11.742087295717852,9.098535994616793,28.039734053593854,18.953995501757184,15.908634400649959,14.772303372032127,15.151080381571404,5.871043647858926,13.067806829105336,3.5983815906232053,2.083273552466096,5.694267045717852,5.694267045717851,5.681655143089245,17.423742438807125,17.423742438807125,16.287411410189264
142,36,142,0,4.73333333333332,5.716040953910839,38.78485341864525,3.8022538836752062,8.364958544085425,10.653098449652843,11.786987039393097,9.133327247968085,27.006711024564236,18.646556975268922,15.77935361725207,14.06833936959822,14.448564757965727,5.133042742961521,12.737550510311877,3.612141189491439,1.71101424765385,5.716040953910838,5.716040953910837,5.703380825512767,17.490367864905878,17.490367864905878,16.349691699803316
143,36,143,0,4.766666666666653,5.316503089633715,38.643512907865855,3.8067437590756685,8.333273550536205,10.605984518864233,11.748447852597613,9.098731808742697,26.539300600737683,18.217164244254434,15.530191616908354,13.636265809968307,14.393836132744326,4.924207098044093,12.499910325804308,3.409066452492084,1.5151406455520373,6.072388081418154,5.694389594875759,5.871170001514145,17.424117423848386,17.424117423848386,16.670850922216058
144,36,144,0,4.7999999999999865,5.688640457531962,37.96937112335605,3.7591594256384724,8.270150736404673,10.532357037284134,11.659455803358382,8.654234906278152,26.338270917883502,18.07917301360296,15.224595673835836,13.532973932298518,13.908889874862382,5.074865224611926,12.593184075888928,3.5712014543565544,1.6916217415373183,5.651255777917723,5.276231684366436,5.450781167175791,16.916217415373183,16.916217415373183,16.54030147280932
145,36,145,0,4.83333333333332,5.731936257218401,38.25835305122598,3.7877700953928297,8.711871219403577,10.612517986796831,11.742087295717823,9.098535994616793,27.295607983850346,18.594826574152595,15.719245895880334,13.635972343414267,14.014749352953544,4.734712619241066,13.446583838644614,3.9771586001624826,1.3257195333875131,5.731936257218428,5.694267045717851,5.681655143089273,17.423742438807125,17.423742438807125,16.287411410189264
146,36,146,0,4.866666666666653,6.4504788629561975,37.50738242229506,3.8067437590756685,9.090843873312195,10.99129851867725,12.12112516441627,9.098731808742697,28.43160513020546,19.351436588868566,16.098369358990368,14.393836132744326,15.151406455520345,5.6817774208201115,13.636265809968307,3.7878516138800933,2.272710968328056,6.072388081418154,5.694389594875759,5.871170001514145,17.04533226246039,17.04533226246039,16.287761939684373
147,36,147,0,4.899999999999986,7.9335079402372255,38.11507561272894,4.168060761202733,9.064461999595698,11.327042279097078,12.452830188679258,8.687444855261392,29.849509812173725,20.785568836106282,16.792452830188665,15.094339622641513,15.471698113207538,6.603773584905639,14.528301886792462,4.716981132075489,2.8301886792452535,5.710470169970396,6.049516808257145,6.037735849056617,17.735849056603783,17.735849056603783,16.226415094339615
148,36,148,0,4.933333333333319,8.744746321952054,37.50083691079499,3.408993085853581,9.469425238482131,10.991061974556915,12.120864305257129,8.744746321952052,30.340014820079436,20.887757701767498,16.47679991495889,15.151080381571404,15.529857391110681,6.62859766693748,14.96169187680178,5.113489628780371,3.2196045810838996,6.1075957600708985,5.694267045717882,5.681655143089301,18.181296457885693,17.802519448346416,16.291815198673195
149,36,149,0,4.966666666666653,8.744746321952054,37.51613713048943,3.408993085853581,8.711871219403548,10.991061974556915,12.499641314796406,8.34169833627595,29.187957659108307,20.48549894791208,16.09802290541961,14.772303372032127,15.908634400649987,7.007374676476786,13.825360848183891,4.35593560970176,3.5983815906232053,6.1075957600708985,5.694267045717851,5.871043647858926,17.802519448346416,17.423742438807125,16.291815198673195
150,36,150,0,4.999999999999986,8.744746321952054,37.51613713048943,3.408993085853581,8.711871219403548,10.991061974556915,12.1208643052571,8.36745763074397,29.205156676015076,20.509996862642268,16.09802290541961,14.772303372032127,15.908634400649987,7.007374676476786,13.825360848183891,4.35593560970176,3.5983815906232053,6.0722573973415725,6.107595760070929,6.060432152628579,17.802519448346416,17.423742438807125,15.908634400649987
151,36,151,0,5.033333333333319,4.938754270351568,37.15185418592262,3.409066452492084,7.954488389148196,10.612746384083412,11.748447852597613,8.720289284106455,25.011296355977755,17.06215885319393,14.58322871343833,13.257480648580298,14.772621294132335,5.302992259432131,10.98476968025227,2.272710968328056,1.8939258069400466,6.48375756463086,6.072388081418154,6.249955162902154,17.80290258523641,17.4241174238484,16.287761939684373
152,36,152,0,5.066666666666652,4.938789700911083,37.152120712846134,3.4090909090909065,8.333333333333343,10.612822519789308,11.369947742275464,8.367697740293387,25.025813119937773,16.70536141757571,14.204545454545467,12.878787878787875,14.393939393939377,5.303030303030283,11.363636363636374,2.2727272727272805,1.8939393939393767,6.107771021438298,6.072431644652046,5.871212121212096,17.80303030303031,17.424242424242422,16.29228270273224
153,36,153,0,5.099999999999985,3.505124836986396,37.28907097132818,3.8018416779950144,7.98386752378957,9.913990164553919,10.645156698386046,9.132337095946239,24.358503770415926,16.387657632668326,14.637090460280831,13.30644587298255,14.827182544180573,4.942394181393496,10.26497253058659,1.1405525033985384,1.1405525033984816,6.094815860341295,6.094815860341294,6.082946684792034,18.248840054376103,17.488471718777106,15.967735047579083
154,36,154,0,5.133333333333319,3.49202622907726,37.5281736692754,3.7876342429424312,7.954031910179083,9.876941706647262,10.605375880238768,9.098209665832563,24.267476344865926,16.326417159971168,14.582391835328366,12.87795642600426,14.393010123181227,4.545161091530929,10.605375880238768,1.5150536971769384,0.7575268485884976,6.107376704576711,6.072039609295763,6.060214788707867,17.80188094182938,17.423117517535132,16.286827244652414
155,36,155,0,5.166666666666652,3.443012667628979,37.292305249491804,4.182388574994292,7.993607669774306,9.892954888756824,10.652867437250118,9.133129191798519,24.74042302897269,16.74682797964311,15.018577155661234,13.307600011345414,14.828468584070606,4.942822861356888,10.646080009076314,1.9010857159064756,1.140651429543908,6.130817217298717,5.715917001582684,5.893365719310083,17.87020572952099,17.489988586339692,16.349337156795798
156,36,156,0,5.199999999999985,5.694062814702738,37.14972217701532,3.7876342429424312,8.332795334473332,9.49933835410498,10.605375880238768,8.744432682215155,26.53777760743049,18.216118827887314,15.339918683916807,14.014246698886978,15.529300396063945,6.060214788707896,11.741666153121486,2.651343970059685,2.2725805457654644,6.483385485519762,6.072039609295762,6.060214788707867,18.180644366123616,17.423117517535132,15.912572269880553
157,36,157,0,5.233333333333318,7.613182027221285,36.529348383784956,3.42165751019553,7.983867523789542,9.91399016455392,11.03189381824475,9.156047227834291,28.15673823311249,20.18201486653741,16.347919215378596,14.446998376381089,15.967735047579083,6.082946684792034,12.926261705183066,3.8018416779950144,2.6612891745965044,6.130285505243945,5.715421272894964,5.892854600892292,18.248840054376103,17.48847171877709,15.592186582745931
158,36,158,0,5.266666666666652,8.777233093087935,36.13550017721829,3.42165751019553,8.364051691589054,10.293095795701003,11.025340866185559,8.744235859388539,29.284054169044936,20.92394954061293,16.538011299278338,14.827182544180573,15.967735047579083,6.653222936491289,13.876722124681834,4.372117929694269,3.2315654262957594,6.130285505243945,6.094815860341294,6.082946684792034,18.6290242221756,17.48847171877709,16.36559264671849
159,36,159,0,5.299999999999985,9.155451749145445,36.13315004514374,3.421434977034977,9.123826605426558,9.891453546025081,11.411117488461086,9.131743159285074,30.814027524484338,21.699080019802988,17.107174885174828,15.586537117603712,16.727015443282028,7.032949675016312,14.636138512871781,4.751993023659679,3.6115146979813346,6.094419473902162,6.094419473902162,6.0825510702843815,18.247653210853116,17.1071748851748,15.605070461983766
160,36,160,0,5.333333333333318,10.254115762071791,35.61003177608627,3.408699666660169,8.711121370353766,10.233110381674976,11.362332222200564,8.743993643273132,31.09397012599078,22.3972163341344,17.232870537004146,16.286009518487447,17.043498333300818,7.953632555540395,14.39228748145402,4.544932888880197,4.544932888880226,5.731442897428304,5.69377692819589,5.681166111100254,18.558475962927545,17.422242740707503,17.426359041471517
161,36,161,0,5.366666666666651,10.651250771119653,36.52697263714029,3.4214349770349486,9.131743159285072,9.891453546025081,11.411117488461086,9.155451749145449,32.34931248613004,23.217753567058104,17.867493768960344,16.346856001389256,17.867493768960344,7.983348279748242,15.20637767571094,5.322232186498837,4.561913302713293,5.715049561010905,6.094419473902162,6.0825510702843815,18.627812652745888,17.487334327067572,16.364528283308257
162,36,162,0,5.399999999999984,11.43009912202181,36.513122047088416,3.8015944189277207,9.123826605426558,10.292426367176242,11.784942698675962,8.776662251203465,33.10881018035541,23.99827050064226,18.247653210853116,16.727015443282028,17.867493768960344,8.5535874425874,15.776616838550098,5.892471349337995,4.751993023659679,6.094419473902133,6.082551070284353,5.892471349337967,18.627812652745902,17.1071748851748,16.744286501515536
163,36,163,0,5.433333333333318,12.517190014997752,36.37848946029569,3.7861408300961443,9.4729213304086,10.628203780335166,12.12156505776136,8.74098487092626,34.505849789923616,25.034380029995532,18.741397108975917,17.03763373543265,18.552090067471113,9.086737992230724,16.65901965242304,6.436439411163462,5.300597162134579,5.691817722909417,5.691817722909415,5.6792112451442165,18.173475984461476,17.037633735432635,16.65901965242304
164,36,164,0,5.466666666666651,14.285714285714281,36.4845266320881,3.7768411855872683,9.402756793747477,10.529381584992992,12.031782406114571,8.676241680094316,36.12663585546232,26.72480304518308,19.5421066941158,16.911438485292507,18.414677461762977,9.01943385882268,18.414677461762977,8.267814370587445,5.261336417646561,5.649659265200545,5.6371461617641785,5.6371461617641785,18.790487205880595,17.28724822941014,15.788482544584811
165,36,165,0,5.499999999999984,15.473545326854037,36.62836347253527,3.772913389522728,9.439826284667406,10.591072585217143,12.079216585093956,8.75120733917546,37.399450012132064,27.960317584580565,20.185086633946582,17.355401591804537,18.86456694761364,9.43228347380682,19.2418582865659,8.677700795902268,5.659370084284092,5.709453981659103,5.282078745331802,5.470724414807961,18.487275608661363,17.355401591804537,15.850727163175323
166,36,166,0,5.533333333333317,15.844413210262072,37.40547213220044,3.7902206374168057,9.812917314914051,10.24547235933794,11.697453867854495,9.082759230179358,38.514577566414175,28.702391352731322,20.74275771332131,17.348488269323298,19.611334565321982,9.428526233327887,19.988475614655073,9.428526233327858,5.279974690663636,5.669673171075278,5.669673171075278,5.8456862646632715,18.47991141732264,16.97134721999018,16.61134010002327
167,36,167,0,5.56666666666665,16.1800314937241,37.25890032968153,3.382861071444438,9.396836309567846,10.176387604011119,11.6581379225959,9.09116596155679,38.009709215667286,28.62813692239837,20.48510315485791,16.914305357222133,18.79367261913569,8.833026130993773,20.109229702475204,9.960646488141919,5.074291607166629,5.31565334095632,5.2756353062547605,5.4501650595493345,18.417799166752985,17.29017880960484,16.16692848321184
168,36,168,0,5.599999999999984,14.732544396381114,38.17061772563845,3.018094428776834,9.062139498902905,10.213975786944918,11.70119919718109,9.49920949339556,36.287800789387695,27.22826792459335,19.80624468884787,16.599519358272488,18.863090179855106,8.299759679136258,18.485828376257984,8.29975967913623,4.9044034467623305,5.335287592123589,5.281665250359453,5.470296152157999,18.863090179855092,17.731304769063783,16.226643726867096
169,36,169,0,5.633333333333317,12.122868475216082,37.93357612428451,3.0292383594484704,9.095600298985786,10.251689596349381,12.122868475216082,9.158437663089952,33.37536480675441,24.281192592503444,18.175430156690766,15.146191797242295,17.418120566828662,7.19444110369011,17.039465771897568,6.815786308759016,4.16520274424164,5.730086814600678,5.679821923965875,5.679821923965875,18.175430156690766,17.039465771897582,16.282156182035493
170,36,170,0,5.66666666666665,12.125737474289418,38.2700561785346,3.0299552592534553,8.719351056998216,10.25411576207182,11.741076629607221,9.589042499484519,33.406888472043036,24.6911145172271,18.55847596292753,16.664753925894132,17.80098714811419,7.764260351837038,16.09663731478409,6.6280271296169815,4.355560685176897,5.356254776274955,5.681166111100282,5.681166111100282,18.17973155552086,17.42224274070749,16.290412927928028
171,36,171,0,5.699999999999983,10.6330061792674,37.128675320703316,3.409066452492084,9.090843873312195,9.855695834196569,11.363554841640251,9.122354691793634,32.23236937070751,23.155518300152213,17.80290258523644,16.287761939684373,17.04533226246039,7.575703227760158,15.530191616908354,5.68177742082014,4.166636775268074,5.694389594875759,5.694389594875759,5.68177742082014,17.802902585236396,17.424117423848386,15.908976778296363
172,36,172,0,5.7333333333333165,6.475051850162128,35.74953391191835,4.182509505703422,9.505703422053244,9.13339326955463,10.653175457126917,9.915136737950775,30.05967357574504,20.56398065853984,17.300380228136845,16.730038022813687,17.490494296577936,7.224334600760471,12.92775665399239,3.041825095057021,3.0418250950570496,5.377237879745621,5.7160822731456,5.703422053231947,17.87072243346006,17.87072243346006,15.589353612167315
173,36,173,0,5.76666666666665,1.5737044372586269,35.1145038167939,4.961832061068719,9.160305343511453,8.778625954198446,9.923664122137382,11.832061068702274,27.48356645403768,18.32458608268365,17.55725190839695,17.17557251908397,17.17557251908397,5.343511450381698,10.30534351145036,0.38167938931295,0.7633587786259568,5.737899381058353,5.357125514358081,5.534351145038158,16.79389312977098,17.557251908396935,17.17981287775099
174,36,174,0,5.799999999999983,1.15381201790089,35.3856587263878,5.384456083537458,8.845892137240071,8.47002462108756,9.622789154920325,11.54452846618935,26.925027449010916,18.080479349477805,17.499482271496703,17.6917842744802,17.307180268513235,5.961362092487889,9.42279814619053,0.19230200298349587,1.3461140208843574,5.781866010010833,5.439122013814995,5.576758086520925,17.30718026851325,18.460992286414125,16.542443791677023
175,36,175,0,5.833333333333316,2.698389515069995,36.25494938093506,5.3425386682882845,8.777027812187896,9.540247621943365,10.691889627569255,11.073264767884323,27.86797616077875,19.095753539203088,17.74486057681466,17.935665529253527,17.554055624375792,6.678173335360356,10.112662479259967,0.9540247621943365,1.7172445719498057,5.736854800949678,5.356150253834964,5.533343620727152,16.790835814620323,17.935665529253527,16.80817276896985
176,36,176,0,5.866666666666649,9.503230697264343,37.26042126502781,4.181421506796312,8.742972241483187,9.883359925154934,11.42919068992208,9.510830243218727,31.933117736620968,23.190998505356706,18.43626755269284,18.24620293874753,17.485944482966374,8.362843013592624,14.064781431951218,4.941679962577439,4.561550734686904,5.714595344961069,5.752399033997967,5.701938418358623,16.725686027185247,18.246202938747544,16.730005119840115
177,36,177,0,5.899999999999983,9.965467734206353,37.15336590292962,4.230417873228694,9.200072707967644,10.341109032057858,11.496502775185622,8.434788986610343,31.789335172622344,22.600483819097057,17.618185758320806,16.852177681872064,16.469173643647707,8.234586821823854,15.128659509862445,5.5535585542533,4.404546439580201,5.757813220740563,5.795902808434882,5.936562592477657,16.852177681872078,18.384193834769533,16.473626576984117
178,36,178,0,5.933333333333316,7.641120403778729,38.547069004391915,3.834824944236836,9.1579042499055,10.69103337032182,11.853552114391563,8.784616192756973,29.384087151924486,20.227304703346576,16.407911781080657,16.407911781080657,15.64475309358852,7.250007531175157,13.355277031112166,3.815793437460627,3.815793437460627,5.736395366399567,5.736395366399596,5.723690156190941,17.17107046857275,18.31580849981094,16.412348150441456
179,36,179,0,5.966666666666649,5.715421272894964,38.026019703089894,4.182025845794527,8.364051691589054,10.645156698386046,11.430842545789956,8.372687782368285,26.62375193484649,18.26467419189248,15.397458795879828,15.207366711980086,14.446998376381089,6.463130852591547,11.785709201784556,3.041473342396017,2.661289174596533,5.715421272894964,5.376616063015851,5.512670433092808,16.347919215378596,17.488471718777106,15.985828804146095
180,36,180,0,5.999999999999982,5.702391628391609,38.41303769382077,4.181753860820493,8.743667163533786,10.644464372997646,11.809443645494769,8.372143250757782,26.993997420798085,18.251612775445853,15.396457396657325,15.586537117603712,14.446058791925367,6.65279023312354,11.975022419622348,2.8511958141957905,2.851195814195819,5.7150495610108765,5.7150495610108765,5.892471349337967,16.727015443282042,18.24765321085313,15.984789139306056
181,36,181,0,6.033333333333316,5.692960346820324,38.63381368290805,4.165590981437276,8.331181962874524,10.98853978716222,11.74549908241466,8.339784114843768,26.51912375514009,18.19289619387385,15.336948613473567,14.768913479641213,14.011533301198057,6.059041427545111,12.118082855090222,3.4082108029941196,2.6508306245509914,5.301661249101954,5.315168688188948,5.301661249101954,16.662363925749048,18.177124282635333,15.923006397560858
182,36,182,0,6.066666666666649,6.092702692588099,38.39281260522986,4.180575872183681,8.741204096384052,10.641465856467562,11.40790300784308,8.395630866911139,27.387512316563058,18.657435369282492,15.582146432684652,15.202094080667933,14.441989376634524,6.4608899842838525,12.541727616551071,3.4204711681503,2.660366464116862,5.334288957664803,5.334288957664774,5.510759104242112,16.722303488734724,17.862460544784824,15.966722576427339
183,36,183,0,6.099999999999982,7.612686891324917,37.63578474738455,3.8015944189277207,9.123826605426558,10.271342508161435,11.411117488461086,8.372143250757782,28.902120048261153,19.782907092050163,15.966696559496455,15.586537117603712,15.586537117603712,7.223029395962698,13.30558046624705,3.8015944189277207,3.421434977034977,5.702391628391581,5.7150495610108765,5.702391628391581,17.107174885174814,17.867493768960358,17.111398357621585
184,36,184,0,6.133333333333315,6.880021270941718,36.63893945857323,3.434714234122623,8.77760304275779,8.77760304275779,10.311207593634824,10.304142702367812,29.388366491807624,20.611818758452955,17.17357117061306,17.17357117061306,16.79193625571054,6.678611010793986,12.403134734331644,3.2438967766713347,3.243896776671363,5.737230784064592,5.356501286260609,5.533706266086426,16.79193625571054,17.936841000418084,16.41473835625771
185,36,185,0,6.166666666666648,1.211458373077752,36.78527071129898,5.363354849170719,8.42812904869686,8.81955008229492,9.608018235418816,11.8821773968055,26.81677424585365,18.38864519715679,17.814000034745618,17.239354872334474,16.473161322452967,4.980258074229965,9.96051614845993,0.7661935498815353,0.38309677494075345,5.377019469659133,5.377019469659103,5.55490323664111,16.473161322452967,17.622451647275255,16.87366260187255
186,36,186,0,6.1999999999999815,0.5417806548226068,36.01313453558348,4.980258074229965,8.045032273756107,8.811225823637614,9.585078246693135,12.265081224527904,25.667483921031362,17.622451647275255,17.430903259804865,16.85625809739372,16.473161322452967,4.405612911818821,9.002774211108004,0.5746451624111444,0.19154838747039094,5.759207359283369,5.377019469659103,5.55490323664111,16.85625809739372,18.00554842221601,16.094624577233187
187,36,187,0,6.233333333333315,1.2115206069746745,36.404127943643296,5.363630370377592,8.428562010593339,8.811678465620304,9.968392732136724,11.882787796816007,26.818151851887876,18.389589841294537,17.814915158754076,17.240240476213643,16.474007566159685,4.980513915350599,9.961027830701227,0.766232910053958,0.3831164550269648,5.377295692831973,5.377295692831945,5.363630370377564,16.857124021186664,17.623356931240593,16.8614770552221
188,36,188,0,6.266666666666648,3.100501463188998,36.15161387810347,4.6148385129611995,9.237685423980835,8.085118638462413,9.621935225423876,11.921666158483077,28.842740706007476,19.616833610668685,18.074784175764677,17.30564442360449,16.921074547524398,5.191693327081367,11.729381220443031,2.115134318440539,1.3459945662803534,3.4824283404310776,3.4824283404311056,3.6534138227609674,16.92107454752437,18.45935405184477,16.925444095575937
189,36,189,0,6.299999999999981,5.7588270392518774,35.62770677239845,3.8307147642858865,8.436274158998891,8.810643957857593,9.967222423925456,10.732839722167977,28.732914428494563,20.31723863564129,17.42975217750086,16.85514496285799,16.472073486429395,5.937607884643143,12.066751507500584,2.873036073214422,2.4899645967858532,2.681500335000152,2.6815003350001234,2.6815003350001234,17.621287915715158,18.387430868572338,16.872548317997758
190,36,190,0,6.333333333333314,4.976164180813216,35.11427623732238,4.2155103064459345,9.159704893056215,8.39639615196819,9.923013634144212,10.69313546000164,29.00824293669335,19.849696682624753,17.365273859752392,16.79279230393638,16.411137933392382,5.91564274343213,12.4037670426803,2.862407779080087,2.0990990379920333,2.289926223264075,2.6715805938080734,2.48075340853606,17.174446674480393,17.937755415568418,16.79712872552033
191,36,191,0,6.366666666666648,4.182025845794527,35.36530266386883,4.562210013594012,9.124420027188052,8.364051691589026,9.884788362787077,11.03189381824475,28.896497856142965,19.77323200465231,17.678563802676848,17.108287550977593,16.347919215378568,5.702762516992522,12.165893369584069,2.28110500679702,1.5207366711979944,3.8018416779950144,3.4216575101955016,3.611749594095272,17.488471718777106,18.248840054376103,16.36559264671849
192,36,192,0,6.399999999999981,3.421830621565448,34.98077928225677,5.322847633546246,9.50508505990399,8.364474852715517,9.505085059904019,10.652482449973297,28.897959812026915,19.3941006483361,17.679458211421462,16.728949705431063,16.348746303034886,5.893152737140497,12.356610577875188,2.091118713178872,0.9505085059904275,3.8209969048083807,3.8209969048083794,3.802034023961596,16.728949705431063,17.869559912619536,16.733269640869196
193,36,193,0,6.433333333333314,3.8205551072170936,35.35687190492034,4.942072744606065,9.51158619731224,8.363507721641014,9.50398604731933,10.651250771119624,28.89461852456818,19.403034022618357,17.487334327067572,16.727015443282028,16.346856001389256,5.892471349337995,12.35518186151512,2.0908769304102464,1.3305580466247022,4.181753860820521,3.8205551072170936,3.8015944189277207,17.1071748851748,17.487334327067572,16.35127586249511
194,36,194,0,6.466666666666647,3.443012667628976,35.74850027015812,4.942822861356888,9.513029883089875,9.125211436351151,10.272901511127811,10.646080009076314,28.516285738597304,19.014658950355564,17.29988001474905,16.72955429997708,15.969120013614486,5.703257147719455,12.166948581801535,1.901085715906504,1.1406514295438797,4.578420690095812,5.336601911880103,5.323040004538143,17.109771443158408,17.870205729521004,16.36701212104578
195,36,195,0,6.4999999999999805,5.316388672984529,36.36259291577139,4.545324114471413,9.469425238482131,9.098535994616762,10.233991242791477,9.476997750878592,28.797018815893544,19.332475780384133,16.66618841972854,15.908634400649987,15.908634400649987,6.439209162167856,12.878418324335684,3.030216076314275,2.2726620572357206,5.316388672984529,4.938647983247962,5.113489628780343,17.044965429267847,17.802519448346416,16.291815198673167
196,36,196,0,6.533333333333314,7.585166945663349,36.74411310359296,3.787851613880065,9.090843873312195,9.848414196088214,10.991298518677247,9.098731808742697,29.55495343243429,20.468422987230856,16.666547101072382,15.530191616908354,15.908976778296363,6.628740324290135,13.825658390662312,3.977244194574098,2.84088871041007,5.694389594875759,5.316503089633715,5.302992259432131,17.424117423848386,17.802902585236396,16.670850922216058
197,36,197,0,6.566666666666647,8.399453364838969,37.26208806001691,3.4220284953076714,9.125409320820467,10.273124283792074,11.40676165102559,9.133327247968086,30.05945628658631,20.943482605343043,16.72991708817085,15.96946631143581,15.96946631143581,6.844056990615343,14.06833936959822,4.5627046604102475,3.4220284953076714,4.957532532729261,5.336717638583513,5.32315543714526,17.490367864905878,17.870593253273398,15.96946631143581
198,36,198,0,6.59999999999998,9.133327247968086,37.64423372964818,3.802253883675178,9.125409320820467,10.273124283792075,11.40676165102559,9.157039950571034,31.199340895978896,22.082553066176146,17.490367864905863,15.589240923068274,15.96946631143581,6.653944296431575,15.399128228884535,5.513268131329028,3.231915801123904,4.957532532729289,5.336717638583513,5.32315543714526,17.11014247653837,17.11014247653837,15.96946631143581
199,36,199,0,6.633333333333313,9.5360042265278,38.02253883675192,3.8022538836752062,9.125409320820467,10.653098449652873,11.786987039393097,8.753445799134886,31.199340895978896,22.082553066176146,17.300255170722124,15.96946631143581,15.96946631143581,7.224282378982878,15.209015534700768,5.32315543714526,3.4220284953076714,5.3367176385835124,4.9575325327292905,5.133042742961521,17.870593253273398,17.870593253273398,15.973992162826502
200,36,200,0,6.666666666666647,9.476997750878592,37.12014693484994,3.787770095392858,9.090648228942825,10.612517986796831,12.126781251816654,8.744746321952052,31.080494374439088,21.99843479497988,17.234353934037472,15.529857391110681,15.529857391110681,6.817986171707133,15.529857391110681,5.681655143089273,3.030216076314275,4.9386479832479315,4.9386479832479315,5.113489628780343,17.42374243880711,17.42374243880711,15.908634400649959
201,36,201,0,6.69999999999998,9.477201710068506,37.50164398498852,3.787851613880065,9.090843873312195,10.61274638408341,11.74234000302826,9.122354691793635,31.459698237084677,22.37719626589114,17.613510004542405,15.908976778296363,16.287761939684373,7.007525485678144,15.34079903621435,5.871170001514145,3.5984590331860886,5.316503089633715,5.316503089633715,5.302992259432131,17.802902585236396,17.802902585236396,15.913485486557013
202,36,202,0,6.733333333333313,9.441506417507028,37.358490566037744,3.7735849056603854,9.43396226415095,10.188679245283026,11.704198052279878,9.087995908522478,31.718322398766578,22.29291394376141,17.54716981132077,15.84905660377359,15.84905660377359,6.792452830188694,15.84905660377359,5.660377358490564,3.3962264150943327,5.710470169970396,5.296478810421974,5.28301886792454,17.35849056603773,16.98113207547169,15.094339622641513
203,36,203,0,6.766666666666646,9.914491741469115,38.022241209104955,3.802034023961596,9.512686088755567,10.652482449973297,11.786305474280965,9.13279912681302,32.32623392823006,22.840701599157626,17.869559912619508,16.728949705431035,16.348746303034886,7.413966346725118,15.778441199440636,5.51294933474432,3.611932322763522,5.336409050770236,5.715710432287246,5.703051035942394,17.489356510223374,17.489356510223374,15.5929754357423
204,36,204,0,6.799999999999979,11.033089925205555,38.02253883675195,3.8022538836752062,9.125409320820467,10.266085485923014,11.786987039393097,9.157039950571034,33.0992697756167,23.981343044663305,18.4409313358247,16.72991708817085,16.72991708817085,7.604507767350384,16.349691699803344,6.463831602247836,4.182479272042713,5.716040953910865,5.716040953910865,5.703380825512795,17.490367864905892,17.11014247653837,15.59387712864978
205,36,205,0,6.833333333333313,11.413179482740393,37.6425855513308,4.182509505703422,9.505703422053244,10.266159695817493,12.17323999511949,8.778248198186455,33.85952374280332,24.36132088158378,18.631178707224336,17.11026615969581,17.11026615969581,8.365019011406844,16.730038022813687,6.844106463878319,4.562737642585546,5.7160822731456005,5.7160822731456,5.703422053231947,17.870722433460088,17.110266159695826,16.730038022813687
206,36,206,0,6.866666666666646,14.847417501716077,37.67084781578103,3.8020340239616246,9.885288462300167,10.672818101540472,12.55247161482718,9.13279912681302,37.65741484448154,27.778275683697963,20.340882028194585,17.489356510223388,19.01017011980801,9.12488165750787,19.390373522204158,8.364474852715517,4.942644231150098,5.715710432287245,5.715710432287243,5.703051035942394,18.249763315015684,17.489356510223374,15.973068490328732
207,36,207,0,6.899999999999979,15.530911143289202,37.52090757343087,3.8057882956279503,9.474823005224144,10.610082666246877,12.123998443851168,9.09644809693691,37.899292020896574,28.424469015672432,20.63860986257552,17.798434193413755,19.31319455030001,9.46725223053923,19.31319455030004,8.709872052096102,5.680351338323533,5.692960346820352,5.680351338323561,5.680351338323561,18.17712428263532,17.419744104192176,16.66666666666667
208,36,208,0,6.933333333333312,11.40790300784311,38.035627237875545,3.8005235201669905,9.508906809468886,10.289527018790533,11.787751195331303,9.91055282948073,34.61815910614838,25.109354522637545,19.382669952851643,16.722303488734752,18.242512896801543,7.601047040334009,17.102355840751414,6.840942336300543,3.800523520167019,5.751235690928875,5.320732928233781,5.320732928233781,18.24251289680153,17.10235584075143,15.962198784701343
209,36,209,0,6.9666666666666455,6.105758478043754,38.17815907143041,4.579318858532815,8.785319762844187,9.190383523578346,10.691889627569255,11.125744989692807,30.56692955985426,21.78187084099035,18.698885339008996,16.409225909742588,17.554055624375792,5.914953525604886,13.547151623159579,4.006904001216213,1.3356346670720711,5.39677903013999,5.724148573166019,5.724148573166019,18.698885339008996,17.172445719498057,16.790835814620323
210,36,210,0,6.999999999999979,6.499008416602343,38.1806611991062,4.197984063927635,8.39596812785527,9.5713549721811,10.692590354728308,11.474461568129186,30.552252614486562,22.164414891975877,18.89092828767437,16.791936255710567,17.9368410004181,5.915341180988946,13.166404564136684,4.007166606476375,1.7173571170613116,5.737230784064592,5.724523723537686,5.533706266086426,18.700110830223124,17.55520608551558,16.796272456236196
211,36,211,0,7.033333333333312,5.736854800949678,38.17815907143041,4.595191761789173,8.777027812187896,9.570727723950734,10.691889627569255,11.454655545681637,30.550250406184666,21.78187084099035,18.889690291447863,16.790835814620323,17.935665529253527,5.914953525604886,13.165541718281844,3.6252940963384788,1.3356346670720711,5.356150253834964,5.724148573166019,5.533343620727152,18.31727543413126,17.172445719498057,16.409225909742588
212,36,212,0,7.066666666666645,0.38157934374603997,37.04465343719506,5.355721307911203,8.022246296615702,8.40341334537535,9.165850372224657,11.835112561436654,25.591431661600925,17.569232385513917,17.361860140445827,14.881594406096411,16.407911781080657,3.815793437460627,9.92106293739758,0.7631586874921084,1.1447380312381767,6.152782041414717,5.723690156190912,5.914479828063946,18.315808499810956,17.17107046857278,16.412348150441456
213,36,213,0,7.099999999999978,0.7659238148578993,37.57908236310738,5.375126513924868,8.051313033499161,8.45990504676665,9.581703862625426,11.514359712012622,25.704133919468546,17.653671654954138,17.23328583430245,14.93551438972878,16.8503239268735,4.40406193543285,9.76552863943806,0.5744428611434387,0.9574047685723599,5.375126513924867,5.36146670400521,5.552947657719699,18.382171556589284,17.23328583430245,16.854675204912944
214,36,214,0,7.133333333333312,2.0544489088393685,38.19781641993851,4.959520603627226,8.393034867676818,8.807648028537981,10.307605215187774,11.089825205521231,26.36780432584295,17.995393768717364,16.976820527800868,14.87856181088165,16.786069735353664,4.768769811180022,10.491293584596036,0.9537539622360214,0.19075079244720428,5.773166563890152,5.735226394536552,5.722523773416043,18.31207607493127,16.786069735353664,17.167571320248044
215,36,215,0,7.166666666666645,6.85149121278448,38.07358316712635,4.197815433455571,8.749462203182249,9.53166449692728,10.64825034287973,9.152872683403082,28.94641987148212,20.200059592051314,16.722303488734724,14.441989376634552,16.722303488734724,6.4608899842838525,13.301832320584452,3.8005235201669905,1.900261760083481,5.713439647164733,5.713439647164761,5.7007852802505,19.002617600834924,17.10235584075143,16.726621707912898
216,36,216,0,7.199999999999978,6.472759572782009,39.595457860256374,4.181028826914428,9.130159894551577,10.669733828530298,11.789028368101786,9.193236015177414,28.949556142230474,19.823253225194335,16.534068542797996,14.063460599621294,16.344021777938252,6.081496475511898,13.683367069901806,3.8009352971949397,1.9004676485974699,5.751858822644108,5.70140294579241,5.70140294579241,18.62458295625521,17.10420883737723,16.728433994703945
217,36,217,0,7.233333333333311,6.1507673413053245,39.38043269756023,3.814543973493869,8.781739710689875,11.121211205107398,12.212499485716,8.806558619465356,27.53086168017039,18.753440329459973,15.63963029132492,13.35090390722857,16.02108468867428,5.912543158915497,12.77872231120449,3.242362377469817,1.716544788072241,5.77245248675943,5.340361562891445,5.531088761566139,18.3098110727706,16.783993483373052,16.406974002715774
218,36,218,0,7.266666666666644,5.750529719752914,39.23087268773352,3.800057001282539,8.773112846947267,11.425476630998281,12.183909611844767,9.191111700769877,27.489413781237715,18.71696849779077,15.770236555322498,12.920193804360622,15.580233705258394,5.130076951731411,13.110196654424755,3.2300484510901697,1.3300199504488717,5.374092149004589,5.3200798017955435,5.510082651859676,18.240273606156165,16.340245105514896,16.35791024051738
219,36,219,0,7.299999999999978,5.393834272155127,39.402688497321414,3.8140167904373072,9.56550544660189,11.086921053966403,12.59203289573773,8.805341522867929,27.55610634429161,17.990681219166312,15.256067161749229,12.586255408443122,15.637468840792963,5.339623506612213,13.34905876653059,3.05121343234984,1.5256067161749058,5.771654714032985,5.3396235066122415,5.530324346134108,18.307280594099083,16.40027219888043,16.79900137234686
220,36,220,0,7.333333333333311,6.1246225044778555,38.83408948512659,3.817274038981817,9.503417708057864,11.073938688338881,12.160588270644475,8.769124909922942,28.199879741480444,18.70846044677658,15.573151499441082,12.914320755634066,15.573151499441082,5.507577969314525,13.863903164136559,3.228580188908495,1.7092483353045225,5.74791573874312,5.697494451015018,5.697494451015018,18.231982243248083,15.952984462842068,16.337233491600582
221,36,221,0,7.366666666666644,6.503757671502664,38.874283539941516,3.8184862218769617,9.12679818950397,11.423909559550813,12.561474526450016,8.367609615212421,27.80159576600304,18.67965566006736,15.38811999434165,12.918421723644826,15.95805036450244,6.079257281715201,13.298375303752039,3.0396286408576145,2.2797214806431896,5.749741000715419,5.699303701607988,5.889280491661594,17.857818265038432,15.958050364502427,16.735219230424814
222,36,222,0,7.399999999999977,7.6358150720217495,39.21954737783018,3.419063988402428,9.504994851019676,11.075776467651389,12.55957085380511,8.3921769095042,28.934511332040106,19.434196100256166,15.575735947166578,13.296359954898321,15.955631945877997,6.268283978737799,14.246099951676769,3.6090119877580946,2.4693239916239804,5.748869636081002,5.318543981959323,5.318543981959323,18.614903936857658,16.71542394330075,16.339944742816506
223,36,223,0,7.4333333333333105,8.36044355796725,38.66959802878419,3.4270965079931974,9.469053599278084,10.623864355020743,12.116615902913635,8.360443557967251,29.60704878736897,20.147414954448134,15.895298890105579,13.624541905804818,15.895298890105607,6.433811455518935,14.759920397955199,4.541513968601606,3.0276759790677374,6.160874260795527,5.676892460752015,5.866122209443745,18.166055874406396,15.895298890105593,15.913310566014589
224,36,224,0,7.466666666666644,8.36760961521242,38.06368821320516,3.4406260024848434,9.506435537082805,10.665805255703274,11.803048662528216,8.393448924113626,29.697206821999757,20.194809793050492,15.958050364502412,14.058282463966435,16.338003944609625,6.839164441929626,14.43823604407362,3.7995358010719826,3.419582220964827,5.749741000715419,5.699303701607988,5.699303701607988,18.237771845145616,16.33800394460961,15.962572980538942
225,36,225,0,7.499999999999977,8.747188303062167,37.30517296662392,3.063283695213063,9.506435537082805,9.944336844649367,11.803048662528216,8.36760961521242,29.675323258918382,20.169774156302147,15.768073574448835,14.058282463966435,16.338003944609625,6.839164441929626,14.43823604407362,3.7995358010719826,3.419582220964827,5.749741000715419,5.319350121500804,5.50932691155441,18.23777184514563,15.958050364502427,16.735219230424843
226,36,226,0,7.53333333333331,8.393448924113626,36.57238246178562,3.4195822209647986,8.747188303062197,9.566986694095538,10.699589962599921,8.393448924113626,28.938896978521058,20.194809793050492,15.958050364502412,14.43823604407362,17.09791110482405,7.409094812090416,13.108398513698432,3.2296054309111923,3.609559011018405,5.373355060598176,5.319350121500804,5.319350121500804,18.23777184514563,15.958050364502427,16.34242141229738
227,36,227,0,7.566666666666643,7.957852179637983,36.78626661442541,3.4276120362042004,7.95785217963801,9.155091012307597,10.226950715964126,7.984812795028716,27.318818432793332,19.36362191997714,15.329915331996887,14.005107834170019,16.276206401873253,7.1918121310602885,12.112525694417315,3.406647851554851,3.4066478515548795,5.72799294223658,5.299229991307584,5.488488205282863,18.547304969576516,16.65472282982381,15.915704359275994
228,36,228,0,7.599999999999976,6.092702692588099,36.53447826254969,3.4415204201661656,7.9901431339403235,9.569473707229209,10.668577915329605,8.395630866911139,25.91332832696623,17.927033590596334,14.822041728651214,14.061937024617833,15.962198784701314,6.650916160292212,10.831492032475921,1.71023558407515,2.8503926401252215,5.713439647164733,5.7007852802505,5.890811456258859,18.622565248818233,17.102355840751443,16.359918440403533
229,36,229,0,7.63333333333331,4.962104295803102,36.64297890986473,4.149879839568115,8.30832938681832,9.49920949339556,10.193052632599178,8.333985637450361,25.723058757456673,17.419530152748578,14.90184124208551,13.958686733092748,15.844995751078272,6.60208156294928,10.751961402517395,1.6976781161869496,2.4522017233811653,5.7090070306327645,5.281665250359424,5.470296152157971,18.108566572660905,16.599519358272488,16.616658773636665
230,36,230,0,7.666666666666643,5.374751906338087,36.15494574708267,4.180575872183681,8.741204096384081,9.569473707229209,10.289527018790505,8.395630866911139,26.647063796676647,17.927033590596334,15.202094080667933,14.441989376634552,16.342251136718033,7.030968512308931,11.211544384492612,1.71023558407515,2.470340288108531,5.334288957664775,5.320732928233781,5.51075910424214,18.242512896801514,16.722303488734724,16.359918440403533
231,36,231,0,7.699999999999976,6.126567390426097,35.40914598758465,4.559442961286408,8.738932342465631,8.771909562822477,9.506435537082776,8.393448924113626,27.778218888706878,19.058374620079167,15.95805036450244,15.198143204288016,17.477864684931234,7.979025182251206,11.398607403216033,1.5198143204288215,3.4195822209647986,6.091119258422372,6.079257281715229,6.079257281715201,18.617725425252814,17.09791110482402,15.962572980538942
232,36,232,0,7.733333333333309,5.334866914265151,34.98719132594483,4.561122356633916,9.50233824298735,8.750410185091374,9.882431772706838,9.91162661259718,29.289406623299787,19.7977289301282,17.104208837377257,16.344021777938252,17.484302367096745,7.031730299810647,12.35303971588354,2.0905144134571856,2.4706079431767307,5.714058683775044,5.70140294579241,5.70140294579241,18.62458295625521,16.72411530765774,16.361690995831033
233,36,233,0,7.766666666666643,3.44665716686049,35.25122233902111,5.375126513924868,9.581703862625398,8.433861152087045,9.199060691533228,11.112496145332953,29.510439275824197,19.928743047234384,18.190690602874838,16.85032392687353,17.99920964916035,6.31887147257757,12.0633000840117,1.7233285834302308,1.3403666760013095,5.795265253811066,5.744428611434131,5.935909565148592,18.76513346401825,16.85032392687353,16.854675204912944
234,36,234,0,7.799999999999976,1.5791661046371817,35.24469670790173,5.362056535141107,9.19209691738476,8.052198782749185,8.809092879160403,12.280043644403879,28.365580052759352,19.184641307048047,18.384193834769547,17.23518172009645,18.00118979654519,5.362056535141136,10.724113070282215,1.14901211467307,0.3830040382243851,6.140021822201968,5.7450605733654925,5.936562592477685,18.76719787299392,16.852177681872092,16.856529438608767
235,36,235,0,7.833333333333309,1.1446297065286046,35.491725184786006,5.35521450466067,8.402618143953482,8.02148716441557,9.16498302261931,12.215343694598271,27.113741255009053,18.711185252522615,18.123303686702968,17.169445597929098,17.932532068948177,5.341605297133498,9.53858088773842,0.3815432355095538,0.3815432355095254,6.116603373173131,6.1046917681525485,6.104691768152577,17.932532068948177,16.024815891400507,16.792237521268444
236,36,236,0,7.866666666666642,0.38286085021826466,35.99706497435596,5.755660633007268,8.422938704802192,8.422938704802164,9.571521255457014,12.257527947984073,26.811196165200393,18.39326642806347,18.18589038536831,17.22873825982262,17.994459960259178,5.360051903055933,9.18866040523875,0.0,0.38286085021826466,6.173445712385007,5.742912753274197,5.934343178383358,18.377320810477457,16.463016559386062,16.480814420323384
237,36,237,0,7.899999999999975,1.2156853023358776,36.91361910567477,5.766501710057611,8.466268456899938,8.850322591788311,9.99526963076653,11.923635794720727,27.31912939552243,18.852923550814705,18.260588748515772,17.299505130172832,18.068372024847207,5.766501710057611,9.61083618342937,0.3844334473371873,0.3844334473371873,6.198803078998522,5.766501710057611,5.9587184337262045,18.068372024847193,16.5306382354985,16.535107787624398
238,36,238,0,7.933333333333309,3.8482398423393165,37.54316792423303,4.992590034298753,8.815346338932738,9.197914143206004,10.728432502057482,10.728432502057482,28.37701495682529,19.562380344157507,17.61405209588699,16.84822374389188,17.996966271884503,6.700998079957003,10.913054015929987,1.340199615991395,2.1060279679864777,6.554434910097443,6.138581221115227,6.126626815960691,17.996966271884517,16.465309567894337,16.469761456462372
239,36,239,0,7.966666666666642,8.018081793291183,36.900406987306106,3.8009352971949397,9.122244713267861,9.532697228459448,11.02271236186533,9.91162661259718,30.825093150026692,21.71861213815348,17.67434913195649,17.10420883737723,18.62458295625521,7.981964124109339,12.92318001046283,3.040748237755963,4.1810288269144,6.128824010118265,5.70140294579241,5.891449710652154,17.86439589681622,16.344021777938238,16.344021777938252
240,36,240,0,7.999999999999975,8.048663370434433,36.65993209047719,3.8154323550953393,9.157037652228837,9.569055664702786,11.0713302070762,9.569055664702786,30.561589347623134,21.42085801864257,17.36021721568386,16.787902362419544,18.314075304457702,8.012407945700232,12.972470007324205,3.0523458840762885,4.196975590604893,6.15219981359531,5.723148532643052,5.723148532643023,18.314075304457702,16.78790236241956,16.02481589140052
241,36,241,0,8.033333333333308,7.29064699582895,37.415289478515724,3.4344891438996115,8.777027812187896,9.570727723950734,10.685077336576569,9.570727723950734,29.042494454653802,20.282844662170593,16.600030862181455,16.409225909742588,17.554055624375792,7.441393145115825,12.02071200364864,2.480464381705275,3.6252940963384788,5.39677903013999,5.724148573166019,5.533343620727152,17.554055624375792,16.409225909742588,15.646006099987119
242,36,242,0,8.066666666666642,6.905919252154897,37.15990775634976,3.8307147642858865,8.427572481428967,8.462325505081449,9.967222423925458,9.225582827704972,28.370574579160223,19.952839651846002,16.472073486429395,16.089002010000797,16.472073486429395,7.086822313928906,12.066751507500584,2.873036073214422,3.256107549643019,5.796923333646746,5.376664388119858,5.363000670000247,18.004359392143755,16.855144962857977,16.472073486429366
243,36,243,0,8.099999999999975,6.58277593036259,36.157749763505,3.8456987608009854,9.229677025922399,9.237685423980835,10.390505877936477,9.261669069945913,28.883732363865178,19.673295879249224,16.34421973340423,16.536504671444277,17.30564442360449,7.691397521601971,11.921666158483106,1.9228493804005211,3.8456987608009854,5.438639344326165,5.768548141201478,5.768548141201478,18.074784175764677,16.921074547524384,16.536504671444305
244,36,244,0,8.133333333333308,6.52390299600664,36.396209862338246,4.21406452434843,8.811225823637642,9.585078246693135,10.343612923400684,9.265874826343143,28.7730927592058,19.979883332953758,16.66470970992333,16.85625809739372,17.239354872334474,7.853483886285716,11.684451635693364,2.107032262174215,3.6394193619372857,5.038851361353382,5.377019469659103,5.171806461700328,17.622451647275255,16.85625809739372,16.090064547512185
245,36,245,0,8.166666666666641,5.032295521173604,35.5103667438585,4.245553926100911,9.271064082772426,8.885453761323339,9.65670229943257,9.679813706160225,28.21730491626854,18.947425044975038,16.40327653266266,16.59625625657631,16.98221570440367,7.1402497848060875,11.385803710907027,1.3508580673957624,2.8946958587051768,3.1117045487751387,3.473635030446218,3.2806553065325375,18.140094047885768,17.36817515223106,16.59625625657634
246,36,246,0,8.199999999999974,1.162476387438204,35.649275881437916,5.424889808044895,8.920738735081283,8.912318970359479,9.687303228651615,10.856696913328088,26.36085914561388,17.441450748266444,16.855907617853774,16.662161553280754,16.662161553280754,5.812381937190963,9.687303228651615,0.0,0.774984258292136,3.0999370331685157,3.0999370331684872,3.0999370331685157,18.21213006986501,17.437145811572876,16.662161553280782
247,36,247,0,8.233333333333308,1.1672356525985492,36.573383781421825,5.072963649239269,8.568566250599066,8.957260905789845,9.726963771654738,11.289984233051909,26.094381964536264,17.525818637993712,16.924916962679248,17.11945623811235,17.11945623811235,5.83617826299286,8.948806669922362,0.389078550866202,0.7781571017323756,2.723549856063329,3.1368515614176955,2.91808913149643,18.286691890710898,17.11945623811232,17.123877014490233
248,36,248,0,8.26666666666664,1.2205109395953588,36.66817885284635,5.417198998314352,9.263026747856571,9.271064082772428,10.034945643511264,10.806864539165986,26.642386781681147,17.385320442834644,16.78923598049002,16.9822157044037,17.368175152231032,6.368330889151395,9.456006471770223,0.578939171741041,0.9648986195684017,3.473635030446218,3.4950114477795777,3.473635030446218,17.754134600058393,16.596256256576325,16.21029680874898
249,36,249,0,8.299999999999974,6.937719508991612,37.93181419470245,4.213786240714512,8.436274158998893,9.989281961991193,11.10907281642912,9.201692629222341,28.77119267420085,20.33528717667545,16.855144962857963,16.472073486429395,17.23821643928656,7.6614295285718015,11.875215769286314,2.681500335000152,3.4476432878572894,4.612791413852472,4.994640980995596,4.7883934553573795,18.00435939214374,16.855144962857977,16.859497485838936
250,36,250,0,8.333333333333307,7.318570281100713,37.93181419470245,3.830714764285915,8.427572481428996,9.989281961991193,10.726001340000522,9.607383751961311,29.153727635759022,20.742533421641724,17.04668070107229,16.85514496285799,17.621287915715158,7.6614295285718015,11.875215769286314,2.681500335000152,3.4476432878572894,4.612791413852472,4.596857717143081,4.405321978928782,18.00435939214374,16.855144962857977,16.855144962857963
251,36,251,0,8.36666666666664,7.700493298647419,38.07765195699736,3.482196599965796,8.075429977164134,10.027688100985538,11.15841235833285,9.261052746136809,28.49781909481517,20.438809085186495,16.535404238955152,16.535404238955152,17.30449280820889,7.690885692537279,11.536328538805918,2.6918099923880447,3.8454428462686394,4.63052637306839,4.630526373068391,4.614531415522322,18.458125662089486,16.919948523582036,16.539875079712548
252,36,252,0,8.399999999999974,8.083923163209537,37.69012167330815,3.4606171180896865,8.843799301784713,10.02687263988252,11.150877380511162,9.26029962854765,29.62996502877789,20.795720773367886,16.726316070766757,16.534059564206217,17.303085590448376,7.6902602624215035,12.688929432995451,3.460617118089658,3.845130131210766,5.396897319767285,5.3968973197672865,5.190925677134516,17.687598603569427,16.534059564206203,16.918572577327268
253,36,253,0,8.433333333333307,6.958656715795621,37.45959477250502,3.859968245715862,8.500698269023726,9.296034540384474,10.421914263432797,10.065565708590626,29.376361813056004,20.875970147386894,17.36985710572131,16.983860281149703,18.141850754864464,7.526938079145879,11.772903149433347,2.508979359715312,3.6669698334300165,5.458819443420822,5.403955544002173,5.403955544002173,18.141850754864464,16.597863456578125,16.597863456578125
254,36,254,0,8.46666666666664,3.124061420612561,37.594725206647844,4.26241342060672,8.524826841213411,8.945950482203111,9.687303228651615,11.631220283585263,27.522854276173977,19.00292375165231,17.43714581157292,17.049653682426822,17.824637940718958,5.812381937190963,10.074795357797683,1.162476387438204,1.5499685165842436,5.438711205752658,5.438711205752658,5.424889808044895,18.212130069865026,16.662161553280768,16.274669424134714
255,36,255,0,8.499999999999973,0.8630315619002493,36.66817885284635,5.017472821755632,8.114332711461955,8.87706730002921,9.656702299432542,11.970966416427878,25.862163138429054,17.754134600058393,17.368175152231032,16.98221570440367,17.368175152231032,5.2104525456693125,8.68408757611553,0.19297972391368035,0.5789391717410126,5.802242769221812,5.7893917174103535,5.596411993496673,18.140094047885754,16.59625625657634,16.600743550495455
256,36,256,0,8.533333333333307,1.5915056788616528,37.829658128307514,5.032782854295313,8.491930140574851,9.271961902978417,10.03591743886119,11.193907912575952,26.259134464509973,17.772628477189713,16.983860281149703,16.597863456578125,16.983860281149703,5.596953956287962,9.456922202003824,0.19299841228578885,0.9649920614289442,5.417723605918926,5.417723605918925,5.596953956287962,17.755853930292872,16.59786345657811,16.216461181236387
257,36,257,0,8.56666666666664,5.076995558814967,37.45959477250502,4.24596507028744,8.105933316003274,9.680751110136498,10.429059903122779,10.04333771154876,27.43022822226786,19.334549733199907,16.790861868863942,16.211866632006547,17.36985710572128,6.754944430002723,10.614912675718585,1.736985710572128,2.5089793597152834,5.802804664895427,5.417723605918925,5.403955544002173,18.527847579436056,16.983860281149717,16.988246042431626
258,36,258,0,8.599999999999973,6.607201354109658,38.993322034064136,3.859968245715862,8.491930140574851,10.04333771154876,10.807911088004374,9.296034540384444,28.22003751160878,19.746293744197914,16.404865044292336,15.825869807434941,16.597863456578125,6.9479428422885405,11.965901561719107,2.7019777720010723,3.0879745965726784,5.417723605918925,5.802804664895427,5.596953956287962,18.527847579436056,16.983860281149717,16.597863456578125
259,36,259,0,8.633333333333306,7.317281876018069,38.31763512798487,3.4470363440192955,8.426088840936046,9.60569241040394,11.1071171085066,9.26363182441209,28.40692178364702,20.008066438445574,16.27767162453557,15.320161528974637,16.469173643647736,6.702570668926398,12.44763124229189,3.255534324907103,2.8725302866827462,5.375717847817716,5.3757178478177154,5.362056535141136,18.384193834769547,16.852177681872078,16.090728531292243
260,36,260,0,8.66666666666664,7.346110800940761,38.852942316109875,3.460617118089658,8.843799301784713,10.410294835938844,11.541797164686374,8.918712822239701,28.518840530151664,19.704181677078328,15.957290044524598,14.9960075117219,16.14954655108511,6.728977729618805,12.88118593955599,3.2683606115291184,3.268360611529147,5.396897319767285,5.396897319767258,5.575438690255567,18.456624629811586,16.918572577327296,16.538530041390548
261,36,261,0,8.699999999999973,8.80860960765796,37.79011921023621,3.433889119585814,8.402618143953482,9.569055664702786,11.071330207076198,8.428565559737049,29.059971963277174,20.659782315672267,16.215587509155256,15.261729420381414,16.40635912691002,7.440093092435916,13.163241625078996,4.006203972850159,4.006203972850102,5.355214504660642,5.355214504660641,5.341605297133498,18.314075304457717,16.406359126910033,15.647924930389596
262,36,262,0,8.733333333333306,8.843178093202226,36.789844676654525,3.447365065470393,8.426892382260945,9.606608442854087,10.731973589555997,8.461642601368847,29.15137495045678,20.740859513792888,16.27922392027682,15.70466307603175,16.85378476452189,7.852331538015875,12.831858854806427,3.6388853468854165,4.404966472545482,5.758362305962807,5.758362305962805,5.554088161035622,18.385947015842063,16.470744201691858,16.475197559675536
263,36,263,0,8.766666666666639,8.852874257819826,36.58226998006875,3.482196599965799,9.237070696179122,9.261052746136805,10.77410464348485,8.111970570917887,29.67227026906634,20.438809085186495,15.958587812014855,15.381771385074558,17.30449280820889,8.267702119477605,13.26677781962681,3.268626419328342,4.422259273208965,5.819210965944944,6.164713850428962,6.1527085540298,17.689037092835747,16.150859954328283,16.535404238955152
264,36,264,0,8.799999999999972,8.877894206696004,36.17987512610403,3.0763542770149,8.844518546417873,9.261052746136805,10.77410464348485,8.538268751434284,29.288544756851977,20.47134059074429,15.958587812014855,15.381771385074558,16.919948523582008,7.69088569253725,13.074505677313397,3.4608985616418124,4.229987130895495,5.397336236266895,5.780968201405022,5.768164269402945,17.689037092835747,16.150859954328283,16.535404238955152
265,36,265,0,8.833333333333306,8.083146388605325,36.57578021404397,3.8447606572096333,9.235432021826613,9.259409817321872,10.79275747658907,8.155968998256549,29.283348911903534,20.051818339127642,15.955756727419981,15.379042628838533,17.30142295744335,8.266235413000715,12.879948201652269,2.883570492907211,4.036998690070135,5.4373126655043755,5.779942646374021,5.76714098581445,18.45485115460626,16.532470826001443,16.152571207803334
266,36,266,0,8.866666666666639,7.786858698966526,36.08122885856366,3.874107000190918,9.297856800458248,9.330085170232064,10.488746732028822,8.218221992631854,29.120299367699744,19.852672227810018,15.883838700782803,15.496428000763729,17.433481500859216,8.329330050410505,12.590847750620526,2.5181695501240995,4.067812350200484,5.824059873539954,5.811160500286377,5.811160500286377,18.59571360091647,16.65866010082101,16.27586077949755
267,36,267,0,8.899999999999972,4.247085045728728,35.40861733476917,4.630149814273822,9.612825328026872,8.494170091457454,10.004730089544962,9.620512514643586,28.09314281547956,18.492637590162783,16.34180305764565,15.765033537964058,17.303085590448347,6.921234236179345,11.535390393632241,1.1535390393632383,2.307078078726448,5.818737742192347,5.780498087590293,5.767695196816106,18.072111616690506,16.534059564206217,16.538530041390548
268,36,268,0,8.933333333333305,0.7688668946743462,35.770907384162186,5.395780560772831,9.618521779366453,8.466268456899966,9.234408293117722,10.770999220766964,26.550967775364906,16.932536913799876,16.530638235498515,15.761771340824168,16.915071682835674,5.574284986389017,10.187486354435123,0.19221672366859366,0.19221672366859366,5.817533693398219,5.766501710057611,5.9587184337262045,18.068372024847193,16.5306382354985,16.535107787624398
269,36,269,0,8.966666666666638,0.38745431638074024,36.05199433828998,5.438180478300277,9.306972057643124,8.145760523037222,9.298903593137624,11.623629491422008,26.745576032290373,17.4397487537366,17.241717078942656,16.273081287990834,17.435444237133026,5.230633271139936,9.880085067708706,0.19372715819039854,0.19372715819039854,5.8632477371839125,5.82471557123142,5.811814745711018,18.21035286989452,16.660535604371574,16.273081287990834
270,36,270,0,8.999999999999972,0.38741070001907474,36.424847649993936,5.423749800267331,9.305924356683594,8.144843541546003,9.305924356683594,11.62877605300078,26.74256523936022,17.437785532896335,17.23977615084965,16.271249400801906,17.046070800840113,5.036339100248227,10.072678200496426,0.0,0.0,5.862587701863919,5.824059873539927,5.811160500286405,18.208302900897365,16.658660100820995,17.433481500859187
271,36,271,0,9.033333333333305,1.2202201426911004,36.29001171697785,5.4159083055007615,8.883336727904622,8.497849965521214,9.65440150962131,11.582454032556182,27.05478748507995,18.172679224933308,17.556970784623644,16.206434570421834,17.364037039737667,5.20921111192132,10.225488478956606,0.5788012346579023,0.19293374488597692,5.839234693245779,5.788012346579222,5.980946091465199,18.5216395090535,16.59230206019376,16.59230206019376
272,36,272,0,9.066666666666638,4.628610302546637,37.68739224184048,4.628610302546637,8.84921101739493,9.640330859380475,10.769646415058363,10.76278458166658,28.851941164267977,20.002807090132496,17.681717527023665,16.528562036130836,17.681717527023693,6.342355199910685,11.72374749074396,2.1141183999702093,1.7297332363392854,5.816803028338393,5.765777454464228,5.957970036279704,18.83487301791652,16.912947199761774,16.533031026894164
273,36,273,0,9.099999999999971,7.284424471982063,37.55160426212572,4.228836310008163,8.81411868730098,9.961742093450253,11.109563744375679,9.196633214031735,29.520036417568072,20.706366402446225,17.037307834713488,16.845877409604327,18.37732081047747,8.422938704802192,11.868686356766688,2.297165101309673,4.21146935240111,6.173445712385007,5.755660633007266,5.742912753274226,18.37732081047747,16.463016559386062,16.467467827970687
274,36,274,0,9.133333333333304,7.666078872152328,38.18781335443553,3.8140167904373072,8.390836938962053,10.326058661939564,11.0672226296642,8.805341522867929,28.645779885092722,20.271777307283404,16.40027219888043,15.637468840792963,17.544477236011602,7.818734420396453,12.014152889877522,2.8605125928280017,3.6233159509154405,5.7337244802734775,5.721025185655947,5.721025185655947,17.92587891505535,16.018870519836696,16.02341037270376
275,36,275,0,9.166666666666638,6.961511396128458,38.102633769813224,3.843851636309495,8.465205118572268,10.406833442328201,11.557152176626861,9.257220605093273,28.50935809627738,20.04707746613683,16.528562036130864,15.375406545238008,17.29733236339274,7.111125527172561,12.108132654374941,2.49850356360119,2.882888727232114,5.816803028338393,6.15016261809518,5.957970036279704,18.45048785428557,16.14417687249987,15.778531063537326
