,video_id,frame_seq,time_seconds,m1,m3,m4,m5,m6,m7,m8,m9,m10,m11,m12,m13,m14,m15,m16,m17,e1,e2,e3,b1,b2,b3
0,33,2,0.0667333333333332,2.3107571188239735,42.32219635301937,4.901856085186548,6.535808113582083,10.78903362103689,11.611410817400285,6.717112996336521,20.44073334464322,13.912600197468183,11.884122993518474,6.200411996618328,19.117936989573224,6.458762496477448,6.458762496477448,1.8084534990136802,0.2583504998591053,4.444830065382006,3.9350775774268274,3.6169069980273605,22.734843987600577,7.233813996054721,19.450206966676756
1,33,3,0.1000999999999998,2.697814492652788,40.88370058191196,3.1684224371710568,6.053262566777245,10.615397345867061,10.791257970611142,9.842529763458181,21.704271866197494,15.690890371726775,13.776718300183106,5.00971574552112,17.033033534771846,1.502914723656346,9.518459916490144,1.5029147236563318,3.0058294473126637,3.612557399195174,3.81528584427629,3.2563152345887403,21.541777705740863,6.512630469177466,20.655587173103505
2,33,4,0.1334666666666664,1.167774956883784,44.62061845033632,4.8148594941830885,7.103297751553508,11.40599941183784,12.056958327124033,7.763727652789264,20.48105496396435,13.386185535100878,12.27275367426627,5.222448372028197,17.756324464895854,4.177958697622543,7.833672558042309,1.0444896744056393,1.5667345116084732,4.492519958652354,3.801999803945934,3.6557138604197235,22.45652799972123,8.355917395245115,20.01635769084782
3,33,5,0.166833333333333,5.841982624885258,45.37231383657098,4.308833482308957,6.609448847408534,11.412070449124618,13.06307027261606,6.609448847408552,23.327000776267127,16.728892375575292,13.324331678068361,5.2252281090464265,16.720729948948545,4.702705298141794,11.495501839902118,3.135136865427853,0.5225228109046327,3.7679655746325333,3.8040234830415547,3.6576596763325,22.468480868899604,8.882887785378912,19.89707585243995
4,33,6,0.2001999999999996,9.4599282023232,50.66673150297769,4.023388450379158,6.9905930587929035,13.671927324802677,15.033838825316717,7.1845137848733795,27.48312342586813,20.507890987204018,15.198009929539879,5.526549065287227,17.68495700891914,4.973894158758526,14.921682476275521,5.526549065287213,0.5526549065287156,4.4556463022963975,4.557309108267554,4.14491179896541,22.65885116767764,9.94778831751701,20.507890987204043
5,33,7,0.2335666666666662,9.982970429194902,50.819726761358815,4.012922732567827,6.818181818181816,13.636363636363617,14.841980822977604,6.8181818181818015,27.56637810359063,20.75682760143848,15.43408522958481,5.512173296280281,16.53651988884087,4.409738637024219,15.985302559212869,7.165825285164402,0.5512173296280594,4.444056186790016,4.709602928825801,4.134129972210218,22.04869318512118,9.921911933304528,20.06461366283905
6,33,8,0.2669333333333328,10.131513009494231,51.830122948575905,4.072633407007399,7.608924043834183,13.985480538570155,15.062823521434511,7.076155627814367,28.76524716043715,21.176807057803167,15.663738203198534,5.034772993885241,17.341995867826938,4.47535377234243,16.782576646284156,7.2724498800564845,0.5594192215428393,4.03402937550544,4.072633407007386,4.195644161571025,22.936188083255004,10.069545987770482,20.216639786413936
7,33,9,0.3002999999999994,9.979515171386549,49.80178993808187,3.8027777597847847,6.969040873446718,13.42962049668033,14.569773791036175,6.607284416988964,27.25254534590913,20.28447077036603,14.88702338318376,4.701165278900135,15.670550929667115,3.917637732416779,16.45407847615047,7.051747918350202,0.7835275464833558,3.344682815722595,3.802777759784787,3.395286034761199,21.938771301533947,9.40233055780027,21.41641960387837
8,33,10,0.333666666666666,9.83488601660055,53.52030206955862,4.028526279732769,7.047042883272533,15.084127959238963,15.89099157478542,7.047042883272533,27.93369780875417,20.894036116480272,15.667290378229865,5.127476851057025,15.952150203288568,3.703177725763396,16.80672967846479,7.691215276585609,0.8545794751761946,4.33885558924667,4.1476216589374975,3.988037550822156,22.219066354580534,10.824673352231542,20.454442998329363
9,33,11,0.3670333333333326,9.817896476644473,54.33172228376677,4.055735651741904,7.094639845054791,15.186008801159046,15.998322114870843,7.094639845054791,28.011013958510087,20.933254364054925,15.773110001257038,5.162108727684114,15.486326183052341,3.441405818456076,17.207029092280408,7.456379273321517,1.1471352728187014,4.368160979760241,4.05573565174189,4.301757273070109,21.79557018355517,11.471352728186929,21.035158095583604
10,33,12,0.4003999999999992,9.839283430744855,55.47505962332501,4.064570521047512,7.110094554430262,14.655017426376098,15.898654750157162,7.1100945544302885,28.072032148227333,20.978854615730118,15.80746957923995,5.173353680478527,14.945243965826847,3.1614939158479842,17.531920806066097,8.334847596326512,1.4370426890218084,4.634323421680745,4.634323421680751,4.3111280670654395,22.417865948740257,12.071158587783216,21.080980330698242
11,33,13,0.4337666666666658,9.957513684380103,54.81468681467414,4.256864709544008,7.23265298121015,14.907629521258817,16.056008371136436,6.537428010239103,27.877359189152934,20.673162551738205,15.495221434640229,4.677802697249859,15.202858766062093,3.5083520229374017,17.541760114687065,8.186154720187318,1.7541760114687293,4.714206380114325,4.134632510347646,4.093077360093645,22.219562811936925,11.694506743124691,21.44435830894168
12,33,14,0.4671333333333324,9.572964512087768,53.249591917147185,4.0924688721389595,6.9533351910910275,14.3319118496644,15.679681927375213,6.953335191091041,27.453115781713905,20.516324635576847,15.458955386035257,5.059294489975173,15.177883469925547,3.3728629933167724,16.864314966583947,7.870013651072526,1.1242876644389241,4.28115987904426,4.0924688721389595,3.9350068255362487,21.361465624339658,10.680732812169822,19.63483994039454
13,33,15,0.5004999999999991,9.267015702426573,52.187199630418796,3.961674907696178,6.731108876326843,13.873868642146231,14.520477452568873,6.731108876326829,26.57572319509138,19.860629621461683,14.964892236319145,4.353423196020088,14.692803286567852,2.9929784472638232,16.597425934826674,7.890579542786469,1.3604447487562936,4.1443354118367575,3.8479188291007764,3.809245296517588,20.678760181095512,10.339380090547763,19.53742656415328
14,33,16,0.5338666666666656,9.719119329794191,54.14056924332112,4.13362465581374,6.907548801625463,14.476040267536051,15.033223464199095,6.348163602226979,27.070284621660523,20.162790956239462,15.04662086768164,5.6779701387477814,14.762722360744277,3.974579097123467,16.46611340236862,7.949158194246905,1.135594027749562,4.57772587457272,4.014931188483298,3.974579097123467,21.008489513366854,11.355940277495606,20.823524890327377
15,33,17,0.5672333333333321,9.679381895742623,52.33228739083551,4.137962598717828,7.030631595749875,13.82959555834053,15.048999755101686,6.914797779170265,27.659191116681082,20.65855948179879,15.630804094357728,6.8207145139015495,14.778214780120038,3.9787501331092585,16.48339340859542,7.95750026621846,0.5683928761584696,4.328751179812267,4.019144571097747,3.9787501331092443,21.030536417863132,11.367857523169263,20.84537768770437
16,33,18,0.6005999999999987,9.374084606744889,51.31150684892195,4.007447161165127,6.6966982105524835,13.936665766520889,14.574339402111475,6.6966982105524835,26.701818134565556,20.006968060742675,15.137793056435868,6.6055824246265615,14.86256045540975,4.12848901539158,15.688258258488105,6.88081502565268,0.2752326010261186,4.192218081503168,3.8923767717834226,4.128489015391608,20.36721247593188,11.559769243096483,19.108359063452077
17,33,19,0.6339666666666652,9.114115022960675,53.993846531422314,3.9968038348871553,6.319501739569463,13.856867595265381,15.082308786742772,6.991551268308072,26.391014057879524,20.071756260004328,15.261302311494006,5.652334189442229,15.261302311494006,3.67401722313744,15.543919020966086,7.630651155746989,0.8478501284163258,4.304689470530903,4.114961403007661,4.239250642081657,20.913636500936207,11.304668378884429,19.067728620902503
18,33,20,0.6673333333333318,9.778287311005172,54.85045460695993,4.180244937980301,6.546896436547142,14.63930547377055,15.881609467803756,6.985454248061756,27.37559156471271,20.869651824913365,15.790522058427314,5.742008021246278,15.503421657364981,3.732305213810065,16.36472286055195,7.177510026557883,0.8613012031869687,4.372983026186239,3.6315647380189624,3.7323052138100934,20.671228876486637,10.909815240367948,19.370236617055692
19,33,21,0.7006999999999983,15.53198520606775,54.856659937130935,4.634706281231278,6.993529253604217,15.045645464897394,16.760038078849785,6.323510198406083,33.42134228738896,26.468752231252704,18.683098313472513,10.92242670633776,16.096207777760938,7.18580704364328,19.832827440455418,10.634994424592037,2.5868905357116034,3.352007615769935,2.9312456269159672,2.5868905357115892,18.395666031726776,12.647020396812167,17.904055081670215
20,33,22,0.7340666666666649,15.610066149454951,54.594684755659806,4.661199139440601,7.033505590324545,15.706129001679594,16.28086866520839,6.385882078626095,33.612385004803414,26.620052628147185,18.789894439158758,10.984861364431282,16.188216747582914,7.226882476599513,19.946195635414682,10.695786065367287,2.6016776915758157,3.3711683256601996,2.9480011816497997,2.6016776915758157,18.50081914009479,12.719313158815169,18.581943705692822
21,33,23,0.7674333333333314,16.483659679923193,53.108344469222224,4.582603895681988,6.914909480222365,14.822112252675463,16.57162528355748,5.712369984969423,33.61270452376473,26.739073104706485,18.47306688267254,10.79963910063934,15.915257621994797,7.673427782033201,20.178273056457726,11.083840129603544,3.126211318606096,3.3143250567114864,2.8982931849431255,2.557809260677729,18.18886585370835,12.504845274424497,18.83461779819358
22,33,24,0.800799999999998,15.915257621994783,53.731284346735606,4.019209496015499,6.914909480222402,14.822112252675463,16.076837984062053,6.820824695140644,33.57904613156415,26.720942868852227,18.75726791163673,10.231237042710958,15.915257621994797,6.2524226372122484,20.46247408542189,11.936443216496087,2.2736082317135526,3.3143250567114864,2.8982931849431397,2.557809260677743,17.620463795779955,12.504845274424483,18.894559902263694
23,33,25,0.8341666666666645,16.33835228157787,54.322740772655855,4.542207147468347,6.85395290104786,14.129785882014522,15.935116816163335,6.197306037839866,33.84571546246062,27.048658007669637,18.873613842512327,10.141046243737975,15.211569365606948,6.479001766832596,21.127179674454112,12.11291634668703,1.9718701029490546,3.285108489479862,2.872744038059255,2.5352615609344866,17.465135197548733,12.394612075679746,18.16882858987341
24,33,26,0.867533333333331,16.04380371970157,54.6780643553654,4.051672287938193,6.970760579261409,14.99666169869795,16.77411900388289,6.875915879872096,33.85026105295896,26.936765509893842,18.908768669648268,10.886866809797496,16.043803719701557,6.589419384877431,20.341251144621623,11.746356294781492,2.0054754649627,3.3410945607114546,3.437957939936055,3.15146144494139,18.908768669648268,13.751831759744192,19.047169555277847
25,33,27,0.9008999999999976,16.210226462396918,54.01256023390671,4.506587030970132,6.80020400918046,15.185156254492885,16.36369948496502,6.174062187846081,33.61284672686294,26.85400011717792,18.725606430699898,10.061519873211878,16.210226462396932,6.987166578619366,20.402526409568537,11.458953188935737,1.9564066420134338,2.794866631447769,2.3047060661946484,2.515379968302966,17.88714644126557,12.297413178370078,18.65665066314335
26,33,28,0.934266666666664,15.231429368334252,54.473202735929384,4.545021156598309,6.8581990935735515,14.754500674521351,16.503256199930195,6.788334462680814,33.37991194684083,26.54972345279361,18.885306510843748,9.01984788577613,15.220993307247198,5.355534682179581,21.140268482287752,12.12042059651165,0.8456107392915158,2.5211241274128917,2.8745237737006915,2.536832217874533,18.039695771552232,11.83855035008115,18.180084626393224
27,33,29,0.9676333333333308,16.138530056022887,53.36029565191202,4.051388698596692,6.883537661709076,15.18952223179604,16.376644572604505,6.678012436974981,33.505799315910664,26.735227235772747,18.642784719888525,8.904016582633332,16.1385300560229,5.8432608823531496,20.868788865546833,11.408271246498941,1.3912525910364764,2.7825051820729185,2.9968497964336986,2.5042546638656233,18.921035238095826,11.686521764706242,19.21339472889579
28,33,30,1.0009999999999972,16.06500205999796,53.16352276943946,3.9148014634313717,6.735279108866228,14.563903312418914,16.395495129345704,6.090001855940926,32.739538705302735,26.04446536685309,17.993187301643673,7.750911453015732,15.501822906031464,5.5363653235826575,21.03818822961415,11.626367179523612,1.1072730647165088,2.7681826617913314,2.2827019011138177,2.21454612943306,18.82364210018106,11.07273064716533,18.5695338177052
29,33,31,1.0343666666666638,15.824314264229153,52.98803961279785,3.8561494363984807,6.745506558892328,14.345705158882048,15.51111844900404,6.5667858637179295,32.88370857982452,26.227486362444147,18.26895308549861,8.725470130387393,16.905598377625566,6.271431656215952,19.904978734946212,11.179508604558833,1.9086965910222489,2.726709415746052,2.4388430433987556,1.9086965910222347,18.541624027073198,10.90683766298423,17.124082478880318
30,33,32,1.0677333333333303,14.83506185522646,50.40139979997658,3.744031855916067,6.549380893384493,12.882951933903714,14.018887224896385,5.848364717850539,30.874077615238562,24.40810148024339,16.943554011498932,6.3538327543121085,14.29612369720222,4.500631534304404,20.385213420084654,11.913436414335195,0.26474303142967415,2.6474303142966846,2.851369711578323,2.382687282867053,18.002526137217615,10.06023519432749,17.238817250844775
31,33,33,1.1010999999999969,15.755120252045751,52.30739150142928,3.8392878873526586,6.7160108944846835,14.37555715015105,15.547930933225658,6.0704471585651785,32.25915812024985,25.61124461926422,17.64611225048384,8.144359500223302,16.83167630046151,6.515487600178659,19.54646280053595,10.859146000297756,1.6288719000446719,2.714786500074433,2.428178863426086,2.1718292000595625,18.460548200506167,9.773231400267974,18.316260331456846
32,33,34,1.1344666666666634,15.32298811663653,51.39148544169309,4.249832257527572,6.520198622764687,13.956422853462575,15.61043146716367,6.010170416406159,31.981440337321054,25.498993545165415,17.65874833972147,8.434029057777423,17.395184931665924,7.1162120174996915,18.71300197194367,9.751846098055154,2.3720706724998877,3.0736511072267327,2.635634080555451,2.1085072644443557,17.922311747777023,7.90690224166633,18.814809450419354
33,33,35,1.16783333333333,15.474593910954416,52.295033137677876,4.397619721127416,6.745640720738948,13.596273542003996,14.874864342763933,5.4385094168015975,31.828060342642686,25.20605035876475,17.331916025705894,6.932766410282355,17.598560887639835,6.932766410282355,19.19843005924342,10.665794477357466,2.133158895471496,2.6664486193393486,2.384944148541323,2.133158895471496,18.66514033537557,7.466056134150236,17.07360178236127
34,33,36,1.2011999999999965,16.632714241335922,54.74123779511262,4.561769816259387,6.997435472503285,15.300641110294052,17.175817934843217,6.307403098215296,34.28921882887151,27.381797423200048,18.808658792191906,8.297937702437608,21.57463802633778,8.851133549266791,18.808658792191892,9.40432939609596,3.319175080975043,2.765979234145854,2.47396703676118,1.936185463902092,20.468246332679435,7.1915460087792695,20.52796417316723
35,33,37,1.234566666666663,16.705663210292993,52.44885188199971,3.915056192355303,6.80236695526727,14.999951799718175,16.177982251286643,5.614528800998225,32.804233914836566,26.08621255145439,17.477665610363744,6.9910662441455,20.973198732436487,8.6043892235637,18.28432710007283,9.142163550036429,3.226645958836386,2.4049999010943717,3.0421109839751574,1.8822101426545572,20.435424405963765,5.915517591200029,18.783649698077937
36,33,38,1.2679333333333296,16.399529467711986,50.705015320330325,4.0205153785345065,6.179139706242836,13.060007968741287,14.866349017196027,6.019208775151963,32.30246398080723,26.210553525896536,17.68530434253637,7.918792989195381,20.588861771908014,8.446712521808408,17.42134457622987,8.974632054421448,3.6954367282911846,3.806881888310489,3.541391884717945,2.903557429371645,20.588861771908007,6.335034391356302,17.19592026970732
