,video_id,frame_seq,time_seconds,m1,m3,m4,m5,m6,m7,m8,m9,m10,m11,m12,m13,m14,m15,m16,m17,e1,e2,e3,b1,b2,b3
0,40,0,0.0,3.143818257347192,42.12664328233104,4.320764914262564,9.431454772041576,11.574869208274748,12.618861628126728,10.531660820582758,27.326916726423732,17.93783344381443,16.243060996293792,13.62321244850449,9.431454772041576,1.0479394191157212,15.71909128673596,6.287636514694384,2.095878838231471,6.287636514694384,6.374366632619649,5.763666805136523,17.814970124967402,23.05466722054605,24.193560195449013
1,40,1,0.0333666666666666,3.14675697134075,42.16602156249301,4.324803790328926,9.49836543720317,10.489189904469214,11.585688927269844,9.498365437203141,26.411105330178824,16.913310516136367,15.209325361480381,12.587027885363057,8.391351923575371,1.0489189904469356,15.733784856703835,6.293513942681528,3.1467569713407784,5.244594952234621,5.34845840046691,5.769054447458075,18.880541828044585,23.07621778983227,25.195898773335095
2,40,2,0.0667333333333332,2.3473919705191033,43.245560836572004,5.248928015917954,9.4480704286523,10.550214740838447,11.595260977808422,9.506212949299295,26.328488983567077,16.927284226638303,15.746784047753835,12.597427238203068,8.398284825468721,1.0497856031835795,15.746784047753835,6.298713619101534,3.149356809550767,6.298713619101562,5.352877275721888,5.248928015917954,17.846355254121022,22.04549766685537,25.2167155256178
3,40,3,0.1000999999999998,4.3248037903288985,43.20986101966495,4.195675961787714,8.391351923575371,10.541505390623252,12.630657228957935,9.498365437203141,26.306754446704357,17.95460100409964,15.733784856703835,11.538108894916121,7.3424329331284355,0.0,16.78270384715077,7.342432933128464,3.1467569713407784,6.380325132408769,5.34845840046691,5.244594952234593,17.831622837597664,22.02729879938535,25.195898773335095
4,40,4,0.1334666666666664,3.3488108391055396,44.67870922965123,4.235947881853264,8.471895763706556,12.751891762542785,12.751891762542785,9.589534873814728,25.50378352508557,17.075651815930208,15.355311071718148,10.589869704633202,6.35392182277991,1.0589869704633372,16.94379152741311,8.471895763706556,4.235947881853292,6.35392182277991,5.702819364553055,5.294934852316615,18.002778497876434,22.238726379729712,25.437739952354118
5,40,5,0.166833333333333,5.404949874519432,46.74818989465759,4.239991520025427,7.419985160044519,12.764064725415912,12.764064725415901,9.598689049066767,26.584611583277052,19.197378098133534,16.429967140098597,10.59997880006361,7.419985160044519,0.5299989400031677,17.489965020104933,9.00998198005405,2.6499947000158954,6.359987280038155,5.404949874519402,5.829988340034973,18.019963960108115,22.259955480133556,25.528129450831816
6,40,6,0.2001999999999996,7.348499222285113,46.29780648807487,4.328376926178705,7.348499222285113,12.597427238203068,13.647212841386661,7.423105188031248,26.328488983567077,19.01242589859859,15.221891246162045,9.4480704286523,6.298713619101534,0.5248928015917897,18.37124805571281,9.972963230244119,2.624464007958977,5.248928015917954,6.385596531891635,5.77382081750973,16.79656965093743,20.99571206367179,25.2167155256178
7,40,7,0.2335666666666662,8.304547985374,46.89726482723552,4.280066064588406,7.266479487202247,12.49999999999999,13.494890476232754,7.340252743933794,27.069514600185478,19.8322708109092,15.571027472576219,9.342616483545754,5.19034249085874,0.0,19.723301465263233,11.418753479889233,2.0761369963435072,5.190342490858768,5.293131528623699,5.7093767399446165,17.64716446891974,20.761369963434987,24.93526100483632
8,40,8,0.2669333333333328,9.342616483545754,48.88850792258392,4.152273992686986,7.340252743933792,12.500000000000004,13.534757300092753,7.557252739290732,28.200330152139262,20.86491858565968,16.090061721662124,8.304547985374,5.19034249085874,0.5190342490858768,21.280404212520864,12.975856227146863,2.595171245429384,6.228410989030493,5.293131528623699,5.19034249085874,17.64716446891974,20.761369963434987,23.875575457950248
9,40,9,0.3002999999999994,9.400110050713097,47.931344578505694,4.152273992686986,7.266479487202247,12.456821978060987,13.494890476232754,6.565321642986122,27.16885260227486,19.967646244655974,15.05199322349037,7.266479487202247,3.1142054945152324,1.0380684981717536,21.79943846160674,13.49489047623274,4.152273992686986,5.19034249085874,5.190342490858754,5.7093767399446165,18.68523296709148,22.83750695977848,23.89813150970537
10,40,10,0.333666666666666,9.334070869305833,48.920804703505766,3.279658198714903,7.259832898348975,13.482546811219521,14.51966579669795,7.333538675291069,27.04475433844911,19.814130396374345,15.03822528943715,7.259832898348975,3.111356956435259,2.074237970956858,21.779498695046925,13.482546811219521,4.148475941913688,5.185594927392117,5.288289944872045,5.704154420131346,18.668141738611652,21.779498695046925,24.91245292726037
11,40,11,0.3670333333333326,9.414323423201763,49.99999999999999,4.158552410345351,7.277466718104392,12.518900540009609,14.554933436208785,7.351351523187206,28.147133650303715,20.896467243941743,16.114390590088334,7.277466718104421,4.158552410345379,1.5594571538795208,22.35221920560636,14.035114384915602,3.638733359052196,5.1981905129316885,5.301134972162345,5.718009564224886,17.673847743967812,20.79276205172684,24.97296419669807
12,40,12,0.4003999999999992,9.440270914022307,51.56799825738146,4.1956759617876855,7.3424329331284355,12.630657228957935,13.635946875809978,6.6339461816333385,27.352460821537214,20.039569174756963,15.209325361480353,7.3424329331284355,3.14675697134075,1.0489189904469356,22.027298799385363,13.635946875809992,3.1467569713407784,5.244594952234621,5.348458400466882,5.769054447458046,18.8805418280446,22.027298799385363,25.174055770726113
13,40,13,0.4337666666666658,10.389084728188351,49.964909435038436,3.116725418456525,6.319433530871767,12.466901673826015,13.505810146644862,6.3194335308717395,26.055691941854228,19.76658177308117,14.544718619463708,6.2334508369129935,3.1167254184564968,1.5583627092282484,21.297623692786146,14.025264383054292,3.6361796548659413,6.233450836913022,5.297414575740104,5.713996600503577,17.661444037920205,20.778169456376716,23.91746917828526
14,40,14,0.4671333333333324,9.4480704286523,51.53581326117006,3.149356809550767,7.423105188031276,12.597427238203068,13.647212841386647,6.639427121827704,26.432926081330308,19.01242589859859,14.172105642978465,6.298713619101534,3.149356809550767,1.5746784047753977,21.520604865263607,14.172105642978465,3.674249611142585,5.248928015917954,5.3528772757219025,5.248928015917954,17.846355254120994,20.99571206367176,24.14506887322254
15,40,15,0.5004999999999991,10.564194713500475,50.55493155936795,3.1535299873658005,6.307059974731658,12.614119949463287,14.716473274373826,7.4329414624716845,27.411333704685262,21.12838942700095,15.767649936829116,7.358236637186934,4.204706649821105,1.5767649936829287,21.54912158033312,14.190884943146187,3.679118318593453,5.2558833122763815,5.35997031409279,5.2558833122763815,18.921179924194917,22.07470991156073,24.199904113777446
16,40,16,0.5338666666666656,10.402566837974462,51.06802192494321,3.2895804720134967,6.241540102784683,12.52634924416779,13.523336889366803,7.355725552878056,27.126575500161778,20.908900572408037,15.603850256961692,7.2817967865821345,4.161026735189779,1.5603850256961778,21.32526201784765,14.043465231265543,2.600641709493601,5.201283418987231,5.304289129828496,5.721411760885957,18.724620308354048,20.805133675948937,23.92590372734128
17,40,17,0.5672333333333321,10.396381025863434,50.98468357614998,3.118914307759013,7.351351523187177,12.47565723103611,13.555222437842415,7.351351523187177,28.147133650303687,20.818736780219904,15.594571538795122,6.237828615518055,4.158552410345351,2.079276205172704,22.872038256899543,14.554933436208813,4.158552410345379,6.237828615518026,5.301134972162341,5.198190512931717,18.713485846554164,20.792762051726854,22.895654203569396
18,40,18,0.6005999999999987,12.483080205569365,51.01501929319984,3.2895804720134967,6.241540102784683,12.52634924416779,14.563593573164255,6.241540102784683,28.106187873406817,21.87014435109849,15.603850256961692,6.241540102784683,4.161026735189779,1.0402566837974518,22.885647043543827,15.603850256961692,3.120770051392327,5.201283418987231,5.304289129828499,5.201283418987231,18.724620308354048,20.805133675948937,24.987823027284634
19,40,19,0.6339666666666652,12.597427238203068,51.53581326117006,2.0995712063671874,6.298713619101534,12.641092628189707,14.734443087281976,8.463642113319166,29.41273708670197,23.11912972272083,16.796569650937442,7.348499222285142,4.199142412734375,2.624464007958977,23.620176071630766,16.271676849345624,3.6742496111425567,5.248928015917954,6.38559653189168,5.773820817509744,18.8961408573046,22.04549766685537,25.2167155256178
20,40,20,0.6673333333333318,13.665296611918535,51.550543775365846,3.153529987365829,5.2558833122763815,12.614119949463273,14.75396753456675,7.432941462471656,29.451711578737267,24.19990411377742,17.344414930511988,7.358236637186906,5.255883312276353,1.0511766624552763,23.12588657401602,16.818826599284364,3.153529987365829,4.204706649821105,5.359970314092762,5.781471643504005,17.87000326173967,21.023533249105483,23.14976462536812
21,40,21,0.7006999999999983,13.665296611918535,52.60086338387689,2.1023533249105526,6.307059974731658,13.665296611918563,14.716473274373826,8.668224820974666,30.556532156947448,24.26829776154671,17.344414930512016,7.358236637186906,5.255883312276353,2.1023533249105526,24.177063236471298,16.818826599284364,3.153529987365829,5.255883312276353,5.359970314092762,5.255883312276353,18.92117992419493,22.07470991156076,24.199904113777446
22,40,22,0.7340666666666649,14.723796320163018,51.576195776731055,3.155099211463522,6.310198422927016,12.620396845854017,14.723796320163032,8.672538205444674,32.67047298909627,26.376495219329335,18.93059526878102,8.413597897236002,6.310198422926987,1.0516997371545074,25.240793691708063,17.87889553162654,3.155099211463522,5.2584986857725085,5.3626374821912055,5.2584986857725085,19.982295005935526,22.085694480244527,25.262694601417714
23,40,23,0.7674333333333314,15.781606699850926,52.605355666169814,3.3270548205668167,7.3647497932637975,12.625285359880763,14.729499586527552,7.439520743655765,33.73312023052491,26.386712161667237,18.411874483159437,7.364749793263769,7.364749793263769,0.0,26.302677833084914,16.83371381317434,2.1042142266468034,4.208428453293578,5.364714701225786,5.260535566616994,21.042142266467934,23.146356493114723,26.32371156522122
24,40,24,0.800799999999998,14.580169577284977,51.030593520497376,3.124322052275346,7.290084788642474,13.538728893193195,14.580169577284977,8.39636322471234,33.34237043078374,26.056837591109534,18.745932313652133,8.331525472734285,8.331525472734285,0.0,24.994576418202797,16.663050945468513,2.082881368183564,4.293969943325932,5.20720342045891,5.20720342045891,20.82881368183567,21.87025436592745,24.99457641820281
25,40,25,0.8341666666666645,14.432222773975667,51.543652764198825,3.092619165851943,6.185238331703857,13.401349718691705,14.468992827898312,7.289373279337928,30.943368106196495,24.76242053547613,17.52484193982758,7.216111386987819,7.216111386987819,0.0,23.710080271531467,15.463095829259657,2.0617461105679524,4.123492221135905,5.154365276419881,5.154365276419881,20.617461105679524,21.6483341609635,25.77182638209942
26,40,26,0.867533333333331,13.401349718691705,51.55396046408473,3.092619165851943,7.216111386987819,12.41335539393058,14.468992827898314,7.289373279337928,30.943368106196495,23.732479974469086,17.00940541218563,8.24698444227181,7.216111386987819,0.515436527641981,23.194643743889486,13.916786246333714,2.577182638209962,4.123492221135905,4.250398493539028,4.638928748777886,20.617461105679524,20.617461105679524,25.792435602811654
27,40,27,0.9008999999999976,13.399213988690292,51.53543841803959,3.092126305082388,6.184252610164748,12.411377117406989,14.46668695104849,7.288211595363506,29.90831984378329,23.72869780546723,17.006694677953078,7.214961378525544,7.214961378525544,0.0,22.675592903937428,14.429922757051088,3.092126305082388,4.249721121201849,5.15354384180398,5.15354384180398,20.614175367215836,20.614175367215836,25.767719209019802
28,40,28,0.934266666666664,11.457711729549914,49.997287547126874,3.1248304716954465,7.291271100622652,12.499321886781715,14.619695235221213,8.397729560848619,30.22464802018406,22.939084202066812,17.186567594324856,8.332881257854467,8.332881257854467,0.0,21.87381330186801,12.499321886781729,2.083220314463631,5.208050786159049,5.208050786159049,5.208050786159049,20.832203144636196,20.832203144636196,26.040253930795245
29,40,29,0.9676333333333308,10.41440684091782,48.95879005494571,4.165762736367128,7.290084788642503,12.540606495693371,14.580169577284977,7.364097699248589,29.17893038320677,21.895036531799857,16.66305094546854,7.290084788642503,8.331525472734285,0.5207203420459052,21.349534023881546,13.018008551147261,2.603601710229441,4.165762736367128,4.165762736367128,4.686483078413019,19.787372997743887,20.82881368183567,26.036017102294593
30,40,30,1.0009999999999972,10.307087683607932,48.45427585919083,3.0921263050823597,7.214961378525544,13.399213988690292,14.429922757051074,8.309839753956053,28.878245162457834,21.669410924335548,16.49134029377265,9.276378915247108,8.24567014688634,0.515354384180398,20.098820983035438,10.822442067788302,1.5460631525411657,5.153543841803966,4.249721121201834,4.638189457623568,19.58346659885504,20.614175367215836,25.767719209019802
31,40,31,1.0343666666666638,9.276378915247136,47.423805377439,3.0921263050823597,8.24567014688634,12.368505220329496,14.429922757051088,9.333464862762245,29.90831984378329,21.669410924335548,17.00669467795305,10.307087683607904,9.276378915247136,0.515354384180398,20.098820983035438,10.822442067788302,1.5460631525411657,4.12283507344317,4.249721121201832,4.12283507344317,19.58346659885504,20.614175367215836,25.767719209019802
32,40,32,1.0677333333333303,9.372966156826038,46.876400919051406,4.293969943325932,7.290084788642503,12.497288209101399,13.538728893193195,8.39636322471234,29.160339154569954,21.87025436592745,17.183771287514446,10.414406840917849,9.372966156826067,1.5621610261376588,19.26665265569801,10.935127182963726,1.5621610261376873,5.310326370433415,5.20720342045891,5.20720342045891,19.787372997743887,20.82881368183567,26.036017102294593
