,video_id,frame_seq,gap,time_seconds,m1,m3,m4,m5,m6,m7,m8,m9,m10,m11,m12,m13,m14,m15,m16,m17,e1,e2,e3,b1,b2,b3,m_0_16,m_1_15,m_2_14,m_3_13
0,11,0,0,0.0,16.0,120.00416659433121,11.045361017187261,28.0178514522438,32.0,36.013886210738214,37.013511046643494,92.04890004774636,64.03124237432849,56.0,45.0,44.0,7.5,47.5,16.5,1.5,17.029386365926403,17.029386365926403,17.0,59.0,58.0,63.00793600809346,306.08005488760614,298.10736320996836,287.0853531617383,271.0461215365385
1,11,1,0,0.0417083333333333,23.08679276123039,121.01652779682617,11.0,27.018512172212592,33.0,37.0,38.05259518088089,99.12618221237011,72.11102550927978,60.5,49.0,47.0,10.0,51.0,20.0,1.0,16.0,16.0312195418814,16.0,58.0,57.0,67.0,305.05901068481813,297.0420845604205,286.04370295463593,271.02951868754076
2,11,2,0,0.0834166666666666,26.019223662515376,123.01625908797584,12.0,28.0178514522438,32.0,36.0,37.05401462729781,103.07764064044152,75.05997601918082,62.0,49.0,47.0,11.0,55.0,23.0,1.0,18.027756377319946,17.029386365926403,17.5,59.0,59.0,66.007575322837,305.16389039334257,298.1358750637031,287.14108030722457,270.09072549793336
3,11,3,0,0.1251249999999999,27.018512172212592,121.00413216084813,12.041594578792296,27.018512172212592,33.0,36.013886210738214,38.01315561749642,104.0768946500615,77.05841939723393,63.5,49.0,48.0,10.5,55.5,24.5,0.5,17.029386365926403,16.0312195418814,16.5,59.0,56.0,61.07372593840988,305.1048999934285,298.08220342717544,286.08565151017274,270.06665843824555
4,11,4,0,0.1668333333333332,27.018512172212592,121.00413216084813,12.041594578792296,28.0178514522438,33.015148038438355,37.0,37.013511046643494,104.0768946500615,76.05918747922567,62.5,49.0,48.0,11.5,55.5,24.5,0.5,17.029386365926403,16.0312195418814,16.0,59.0,57.0,66.03029607687671,305.1048999934285,297.0824801296771,286.08565151017274,271.0664125265246
5,11,5,0,0.2085416666666665,29.017236257093817,122.01639234135715,12.041594578792296,27.018512172212592,34.0,38.0,38.01315561749642,106.07544484940895,79.05694150420949,64.5,51.0,49.0,12.0,56.0,25.0,2.0,17.029386365926403,17.029386365926403,17.0,58.0,55.0,63.0317380372777,304.08058142538465,297.1077245714086,285.112258592997,270.06665843824555
6,11,6,0,0.2502499999999998,31.064449134018133,122.01639234135715,12.0,28.0,33.0,37.0,38.01315561749642,109.04127658827184,81.05553651663777,65.5,52.0,50.0,13.0,58.0,27.0,3.0,16.0312195418814,15.0,15.0,59.0,57.0,64.00781202322104,306.0588178765644,299.06019460971396,288.0850568842473,272.04595200076034
7,11,7,0,0.2919583333333331,36.013886210738214,122.01639234135715,12.041594578792296,27.018512172212592,35.0,38.01315561749642,39.0,114.03946685248927,87.02298546935747,69.0,55.0,53.0,15.0,60.0,30.0,5.0,16.0312195418814,16.0,16.5,59.0,56.0,65.00769185258002,306.04084694693944,299.04180309782777,288.0433995077825,273.045783706689
8,11,8,0,0.3336666666666664,29.017236257093817,121.00413216084813,12.041594578792296,28.0178514522438,34.0,38.0,38.01315561749642,107.07474025184464,79.05694150420949,64.5,53.0,52.0,14.5,54.5,23.5,4.5,16.0312195418814,15.0,15.5,58.0,57.0,66.007575322837,306.0588178765644,299.06019460971396,288.0433995077825,273.0164830188829
9,11,9,0,0.3753749999999997,24.020824298928627,122.01639234135715,11.045361017187261,25.0,33.015148038438355,36.0,37.013511046643494,97.04638066409278,72.06247289678588,60.0,51.0,49.0,13.0,47.0,20.0,3.0,15.033296378372908,16.0,16.0,58.0,57.0,66.007575322837,304.059204761178,297.0420845604205,285.0631508981826,270.04629232781554
10,11,10,0,0.417083333333333,20.024984394500787,119.01680553602503,12.0,27.0,32.01562118716424,35.014282800023196,36.013886210738214,95.02105029939419,68.0294054067798,58.0,53.0,51.0,16.0,43.0,13.0,5.0,15.0,15.0,15.5,59.0,57.0,66.03029607687671,303.08084729985825,296.08275870100914,286.11186623417075,270.1184925176357
11,11,11,0,0.4587916666666662,25.019992006393608,114.10959644131601,11.045361017187261,23.021728866442675,31.0,33.015148038438355,37.013511046643494,96.08329719571451,73.06161783043132,60.5,56.0,51.0,16.5,42.5,16.5,7.5,16.0312195418814,16.0312195418814,16.0,61.0,59.0,65.00769185258002,305.08031729365956,298.10736320996836,286.14157335137446,270.1184925176357
12,11,12,0,0.5004999999999996,18.110770276274835,112.16059914247963,10.0,23.021728866442675,30.01666203960727,33.06055050963308,39.11521443121589,90.19977827023745,67.1863081289633,58.0,57.0,51.0,15.0,36.0,11.0,7.0,17.029386365926403,15.0,16.0,61.0,59.0,63.0317380372777,306.0588178765644,298.10736320996836,286.14157335137446,271.1844390815963
13,11,13,0,0.542208333333333,15.033296378372908,110.16351483136329,12.0,25.019992006393608,31.0,33.06055050963308,36.05551275463989,88.09086218218096,63.071388124885914,55.5,56.0,50.0,17.0,35.0,9.0,6.0,17.029386365926403,16.0312195418814,15.5,61.0,58.0,64.03124237432849,307.04071391266666,299.0819285747636,287.14108030722457,273.1483113621609
14,11,14,0,0.5839166666666663,16.0312195418814,107.11675872616759,13.0,29.0,31.0,33.06055050963308,35.05709628591621,93.04837451562494,64.07027391856539,56.0,57.0,52.0,19.5,38.5,7.5,7.5,17.029386365926403,16.0,16.0,60.0,59.0,61.00819617067857,307.02605752606735,299.04180309782777,288.0850568842473,273.0897288438362
15,11,15,0,0.6256249999999997,11.045361017187261,100.17983829094555,15.033296378372908,30.01666203960727,28.0178514522438,30.066592756745816,37.013511046643494,93.08598175880189,63.071388124885914,57.5,59.0,53.0,19.0,37.0,6.0,6.0,16.0312195418814,15.033296378372908,15.5,60.0,58.0,63.00793600809346,307.00651458886017,299.015049788468,287.01567901423084,272.01654361453825
16,11,16,0,0.667333333333333,9.055385138137417,98.18350166906862,15.033296378372908,28.0,27.018512172212592,29.154759474226502,41.012193308819754,93.04837451562494,65.06919393998976,60.5,62.0,56.0,18.0,34.0,5.0,5.0,17.029386365926403,17.0,16.5,62.0,59.0,62.03224967708329,307.00651458886017,299.0066888883926,287.01567901423084,270.0296280040396
17,11,17,0,0.7090416666666663,17.029386365926403,100.07996802557443,16.0312195418814,31.0,28.0,31.0,39.0,103.01941564578979,72.02777242147643,63.5,64.0,60.0,23.0,41.0,8.0,8.0,17.029386365926403,16.0,16.0,63.0,60.0,61.032778078668514,306.0016339825655,299.00167223612647,285.00175438056516,270.0074073057997
18,11,18,0,0.7507499999999997,14.035668847618199,104.01922899156675,16.0,29.017236257093817,29.0,32.0,41.0,100.0199980003999,71.00704190430693,64.0,62.0,60.0,20.0,39.0,8.0,5.0,16.0312195418814,16.0312195418814,16.0,62.0,58.0,65.03076195155643,305.00655730656024,298.0067113338221,286.00174824640493,270.0
19,11,19,0,0.792458333333333,3.1622776601683795,105.00476179678711,14.0,20.0,27.018512172212592,28.0,47.01063709417264,84.0,64.0,62.5,57.0,58.0,10.5,26.5,4.5,1.5,17.11724276862369,16.0,16.0,62.0,54.0,64.07027391856539,305.1048999934285,298.10736320996836,286.11186623417075,271.0903908293321
20,11,20,0,0.8341666666666664,4.0,109.01834707974616,15.0,24.0,28.0,30.01666203960727,47.042533945356304,90.0222194794152,66.03029607687671,64.0,59.0,61.0,13.0,30.0,4.0,1.0,17.11724276862369,16.0,16.5,62.0,53.0,66.12110101926616,304.27783356662707,298.28342226815084,287.2507615307573,272.26457720386617
21,11,21,0,0.8758749999999997,20.024984394500787,115.15641536623133,15.033296378372908,26.019223662515376,32.0624390837628,35.05709628591621,38.01315561749642,99.02019995940222,73.00684899377592,63.0,55.0,61.0,20.0,41.0,13.0,5.0,16.1245154965971,15.033296378372908,15.0,63.0,51.0,64.1248781675256,307.6507760432273,299.60307074527793,288.5619517538652,274.46675572826666
22,11,22,0,0.9175833333333332,24.0,117.27318534089538,13.0,24.020824298928627,33.13608305156178,36.22154055254967,37.05401462729781,98.04590761474952,74.02702209328699,62.0,51.0,59.0,18.0,43.0,15.0,4.0,15.132745950421556,15.033296378372908,15.0,62.0,47.0,63.198101237299845,305.026228380446,297.9681191000138,286.8449058289165,272.8094573140748
23,11,23,0,0.9592916666666664,24.0,120.41594578792295,12.041594578792296,24.08318915758459,34.132096331752024,37.21558813185679,38.118237105091836,98.18350166906862,74.10802925459562,62.0,49.0,59.0,16.0,44.0,16.0,4.0,15.297058540778355,16.0312195418814,15.5,66.0,47.0,65.27633568147036,307.5662530252628,298.51130631853795,287.2716484444645,273.2398214023717
24,11,24,0,1.0009999999999997,27.018512172212592,121.69634341261039,13.038404810405298,26.076809620810597,34.132096331752024,37.21558813185679,39.11521443121589,105.23307464861035,79.1580697086532,65.5,49.0,62.0,16.5,49.5,19.5,3.5,15.132745950421556,15.132745950421556,15.0,67.0,46.0,64.4980619863884,306.00816982557836,299.1738624947039,287.8975512226528,271.8896835115301
25,11,25,0,1.042708333333333,36.05551275463989,120.93386622447825,14.035668847618199,28.071337695236398,33.24154027718932,38.3275357934736,40.19950248448356,118.3427226321923,90.27181176868004,72.0,52.0,67.0,19.5,58.5,25.5,5.5,15.297058540778355,16.1245154965971,16.0,68.0,45.0,67.36467917239716,305.62885989382613,300.8072472531205,291.4875640571995,273.5141678231678
26,11,26,0,1.084416666666666,42.04759208325728,119.5198728245642,13.152946437965905,29.154759474226502,34.36568055487916,40.44749683231337,39.20459156782532,123.4908903522847,94.33981132056604,73.0,51.0,70.0,21.5,62.5,27.5,7.5,15.297058540778355,15.297058540778355,15.5,70.0,43.0,68.73136110975832,305.3342430845253,301.3784995649159,291.3417237540823,274.3902330623304
27,11,27,0,1.1261249999999994,37.013511046643494,116.40017182117903,12.165525060596439,29.274562336608895,35.510561809129406,39.6232255123179,35.35533905932738,113.63538181394033,84.38009243891595,65.5,50.0,68.0,24.0,54.0,19.0,10.0,15.524174696260024,15.297058540778355,15.0,70.0,43.0,65.62011886609167,307.31254448850603,301.3784995649159,290.3532331488665,274.3902330623304
28,11,28,0,1.1678333333333326,21.095023109728988,111.80339887498948,13.038404810405298,29.154759474226502,33.54101966249684,36.87817782917155,33.37663853655727,96.62815324738438,67.47592163134935,56.5,45.0,65.0,22.0,41.0,7.0,7.0,15.524174696260024,16.1245154965971,16.0,70.0,44.0,66.75327707311455,307.6117683054405,301.6836091006603,288.5307609250702,273.72431386341987
29,11,29,0,1.2095416666666658,9.0,110.8873302050329,14.035668847618199,27.073972741361768,31.400636936215164,33.37663853655727,36.345563690772494,86.37129152675674,59.30430001273095,54.5,47.0,61.0,18.0,32.0,1.0,3.0,16.278820596099706,16.1245154965971,15.5,70.0,45.0,64.77653896280658,307.02605752606735,300.945177731759,288.6468430452687,273.5141678231678
30,11,30,0,1.251249999999999,1.0,112.64102272262978,14.035668847618199,23.08679276123039,29.154759474226502,31.144823004794873,40.311288741492746,78.40918313565064,55.326304774492215,54.5,46.0,58.0,12.0,26.0,1.0,1.0,15.297058540778355,15.132745950421556,15.5,70.0,45.0,62.96824596572466,308.15742729974886,302.9257334727441,290.4961273407961,275.3633962602873
31,11,31,0,1.2929583333333323,6.0,112.53888216967503,15.033296378372908,25.019992006393608,30.066592756745816,32.14031735997639,41.30375285612676,87.28115489611719,62.289646009589745,59.0,49.0,60.0,13.5,32.5,3.5,0.5,16.492422502470642,15.132745950421556,15.5,64.0,37.0,59.53990258641679,309.8596456462183,304.63748948545384,293.3428028774526,274.9872724327437
32,11,32,0,1.3346666666666656,11.0,108.46197490364999,16.0312195418814,29.068883707497267,29.154759474226502,33.24154027718932,40.19950248448356,96.25487000666512,67.1863081289633,61.5,53.0,63.0,18.0,38.0,6.0,2.0,16.278820596099706,16.1245154965971,16.0,70.0,48.0,61.5223536610881,311.3278015211619,304.381339769704,291.23358322830836,274.11676344215067
33,11,33,0,1.3763749999999988,10.0,102.39628899525607,15.033296378372908,27.073972741361768,28.071337695236398,31.144823004794873,43.289721643826724,95.33624704172071,68.26419266350405,63.0,54.0,63.0,15.5,36.5,6.5,0.5,16.492422502470642,16.1245154965971,16.0,71.0,48.0,60.8276253029822,311.4514408378937,305.37354174846257,291.23358322830836,274.2425933366296
34,11,34,0,1.418083333333332,6.0,102.3132444994293,15.033296378372908,26.076809620810597,28.071337695236398,30.14962686336267,46.2709412050371,93.34345183246653,67.26812023536856,64.0,56.0,64.0,14.0,33.0,3.0,1.0,17.46424919657298,16.1245154965971,16.0,70.0,47.0,61.5223536610881,309.99677417676463,304.05591591021545,292.0359566902678,275.0727176584403
35,11,35,0,1.4597916666666653,16.0312195418814,103.58571330062848,16.0312195418814,29.154759474226502,29.068883707497267,31.25699921617557,42.2965719651132,103.31021246711285,74.16872656315464,66.0,56.0,67.0,19.5,41.5,8.5,3.5,17.46424919657298,17.11724276862369,17.0,70.0,49.0,63.50590523722971,307.6117683054405,301.7979456523851,289.6377047278203,272.66096163550804
36,11,36,0,1.5014999999999985,16.0,106.7941945987702,15.033296378372908,31.064449134018133,30.265491900843113,34.36568055487916,38.2099463490856,100.24470060806208,69.18092222571191,61.0,53.0,66.0,21.5,40.5,5.5,5.5,17.26267650163207,17.029386365926403,17.5,70.0,49.0,60.67124524847005,305.1311193569086,300.28819490616013,289.2490276561012,272.2590678012396
37,11,37,0,1.5432083333333315,16.0,107.56393447619885,14.035668847618199,28.071337695236398,31.144823004794873,33.24154027718932,37.21558813185679,95.25754563287887,67.1863081289633,59.0,52.0,63.0,20.5,37.5,5.5,6.5,17.11724276862369,17.11724276862369,16.5,68.0,49.0,61.5223536610881,310.21444195910675,303.14517974066484,290.11894112587686,273.99452549275503
38,11,38,0,1.584916666666665,15.0,103.58571330062848,14.035668847618199,29.017236257093817,29.154759474226502,32.14031735997639,37.33630940518894,95.25754563287887,66.27216610312357,58.5,52.0,63.0,20.5,37.5,4.5,6.5,17.26267650163207,17.11724276862369,17.0,69.0,51.0,63.387695966961914,307.77426793024785,301.9205193424256,290.0,273.99452549275503
39,11,39,0,1.6266249999999982,16.0312195418814,97.51410154434076,15.0,32.0624390837628,27.16615541441225,30.14962686336267,39.319206502675,102.17631819555841,70.11419257183242,62.0,57.0,67.0,23.0,40.0,4.0,8.0,18.24828759089466,17.11724276862369,17.0,70.0,52.0,62.39390995922599,309.76281248723194,303.90788077968625,292.1044333795706,274.2425933366296
40,11,40,0,1.6683333333333314,24.020824298928627,97.62171889492625,15.033296378372908,31.064449134018133,27.16615541441225,31.25699921617557,40.19950248448356,110.16351483136329,79.1012010022604,67.0,60.0,71.0,25.5,44.5,9.5,9.5,18.24828759089466,19.026297590440446,18.5,72.0,54.0,64.28063471995279,311.5461442547476,304.7917321713304,292.7541630788536,272.88275870783775
41,11,41,0,1.710041666666665,29.0,98.6154146165801,15.0,31.016124838541646,28.160255680657446,32.2490309931942,37.21558813185679,112.11155159036913,81.09870529176159,66.5,59.0,70.0,27.5,47.5,12.5,11.5,20.09975124224178,19.026297590440446,19.0,73.0,56.0,65.19202405202648,309.2701084812433,304.38462510448846,292.4414471308744,273.4373785714016
42,11,42,0,1.751749999999998,28.0178514522438,104.6900186264192,15.033296378372908,29.068883707497267,31.25699921617557,34.36568055487916,35.22782990761707,107.16809226630845,78.10249675906654,64.0,55.0,67.0,26.0,46.0,12.0,10.0,20.223748416156685,19.026297590440446,19.5,72.0,56.0,65.37583651472461,310.17736861350795,303.29523570277195,291.3485884640597,273.4373785714016
43,11,43,0,1.7934583333333312,23.0,106.47065323364932,15.033296378372908,30.01666203960727,31.144823004794873,34.23448553724738,36.124783736376884,104.12012293500234,74.10802925459562,62.5,56.0,66.0,25.0,43.0,9.0,10.0,20.09975124224178,19.026297590440446,19.0,73.0,59.0,66.18912297349165,310.92764431616564,305.94280511232813,292.9846412356798,275.138147118861
44,11,44,0,1.8351666666666644,3.1622776601683795,107.11675872616759,15.0,23.021728866442675,28.0178514522438,30.066592756745816,45.17742799230607,86.09297300012354,63.071388124885914,61.5,56.0,61.0,13.5,27.5,1.5,0.5,21.213203435596427,20.09975124224178,20.0,67.0,59.0,59.033888572581766,311.9246703933499,304.9458968407347,292.9846412356798,277.1299334247385
45,11,45,0,1.8768749999999976,3.1622776601683795,105.11898020814318,14.035668847618199,23.0,29.017236257093817,30.066592756745816,47.16990566028302,87.09190547921202,64.1248781675256,62.5,57.0,62.0,12.5,27.5,1.5,0.5,20.223748416156685,20.024984394500787,20.0,66.0,57.0,57.07889277132134,311.8493225902535,305.94280511232813,293.901343991483,278.94981627525766
46,11,46,0,1.9185833333333309,7.0710678118654755,108.16653826391968,15.033296378372908,26.019223662515376,28.0,30.01666203960727,44.28317965096906,92.0869154657707,66.06814663663572,62.5,57.0,63.0,16.0,32.0,3.0,3.0,21.213203435596427,20.024984394500787,20.5,63.0,53.0,55.08175741568164,310.5817122755298,304.6571843892738,292.6841300788275,276.7977601065442
47,11,47,0,1.960291666666664,11.045361017187261,109.1146186356347,15.0,30.0,30.01666203960727,33.015148038438355,41.10960958218893,97.02061636580135,67.02984409947557,61.5,58.0,63.0,19.5,36.5,3.5,4.5,21.095023109728988,20.024984394500787,20.0,63.0,58.0,60.03332407921454,312.360368805007,306.36742646697934,293.43653487594213,276.4633791300396
48,11,48,0,2.0019999999999976,14.035668847618199,108.11567878897121,16.0,32.01562118716424,31.016124838541646,34.132096331752024,39.05124837953327,101.01980003939822,69.00724599634447,62.0,60.0,65.0,23.5,38.5,3.5,8.5,20.09975124224178,19.026297590440446,19.0,62.0,60.0,58.008620049092706,310.23217112349903,304.32219767871027,292.43802762294786,275.5884612969128
49,11,49,0,2.043708333333331,17.0,109.1146186356347,16.0,32.0,32.01562118716424,36.05551275463989,38.01315561749642,103.00485425454472,71.00704190430693,62.5,59.0,64.0,23.5,41.5,6.5,8.5,20.024984394500787,19.0,19.0,59.0,58.0,62.0,312.07851576165893,306.08005488760614,293.1091946698363,275.1817581163403
50,11,50,0,2.085416666666664,12.041594578792296,114.0175425099138,16.0,30.0,31.016124838541646,34.0147027033899,39.01281840626232,97.0,67.0,61.0,58.0,60.0,20.0,38.0,6.0,5.0,21.02379604162864,19.026297590440446,19.5,61.0,62.0,60.00833275470999,311.02572240893517,305.04098085339285,293.0614270080592,278.1150840928985
51,11,51,0,2.1271249999999973,5.0990195135927845,116.00431026474836,15.033296378372908,24.0,31.016124838541646,33.0,40.049968789001575,84.0,60.0,57.5,54.0,55.0,14.5,29.5,3.5,0.5,20.09975124224178,19.026297590440446,19.5,60.0,62.0,56.0357029044876,311.01446911679204,304.0263146505578,293.027302482209,277.04512267859906
52,11,52,0,2.1688333333333305,10.04987562112089,116.00431026474836,15.033296378372908,26.019223662515376,32.0,34.0,39.01281840626232,90.0222194794152,64.00781202322104,59.0,56.0,55.0,16.5,34.5,5.5,2.5,21.02379604162864,20.024984394500787,20.0,60.0,61.0,59.0,311.0,304.00164473239283,292.0068492347397,277.01624501101014
53,11,53,0,2.210541666666664,15.033296378372908,118.0,15.033296378372908,27.018512172212592,32.0,35.0,38.0,95.04735661763561,68.0294054067798,60.5,55.0,55.0,17.0,40.0,11.0,4.0,21.02379604162864,21.02379604162864,21.0,61.0,64.0,61.00819617067857,312.00641019056,304.00164473239283,293.00170647967224,278.01618657912707
54,11,54,0,2.252249999999997,17.029386365926403,117.00427342623003,15.033296378372908,29.017236257093817,32.0,36.013886210738214,39.0,100.04498987955368,71.02816342831905,62.5,57.0,56.0,17.5,43.5,11.5,4.5,20.0,19.026297590440446,19.5,59.0,64.0,62.03224967708329,311.07876816009156,304.08058142538465,292.04280508172087,276.0163038662753
55,11,55,0,2.29395833333333,17.11724276862369,119.06720791217035,14.035668847618199,28.0178514522438,32.0,35.0,38.01315561749642,97.12878049270464,69.1158447825099,60.5,56.0,52.0,16.0,43.0,12.0,3.0,20.024984394500787,19.026297590440446,19.5,62.0,65.0,63.00793600809346,310.195099896823,303.1649715913763,291.10994486619654,276.08875384557047
56,11,56,0,2.3356666666666634,15.132745950421556,121.10326172320876,13.038404810405298,27.018512172212592,32.01562118716424,34.0,39.01281840626232,94.13288479590966,67.11929677819934,59.5,54.0,49.0,12.5,42.5,12.5,1.5,19.026297590440446,18.027756377319946,18.5,60.0,65.0,63.00793600809346,308.27422856930485,302.2383165649253,290.2085457046363,275.14723331336626
57,11,57,0,2.3773749999999967,13.038404810405298,122.14745187681976,13.038404810405298,27.018512172212592,32.01562118716424,35.0,39.05124837953327,92.13576938409967,65.12296062065974,58.5,54.0,48.0,12.0,41.0,12.0,1.0,20.024984394500787,19.026297590440446,19.0,61.0,66.0,65.03076195155643,307.3662310664592,302.3722870899382,291.3863414781139,277.3048863615641
58,11,58,0,2.41908333333333,12.041594578792296,121.26417442921878,13.038404810405298,27.018512172212592,32.01562118716424,35.05709628591621,40.11234224026316,92.19544457292888,65.19202405202648,59.0,54.0,46.0,10.0,42.0,14.0,0.0,19.0,17.029386365926403,18.0,57.0,64.0,61.032778078668514,308.52552568628744,302.66152712229547,290.6217472936256,277.58422145359776
59,11,59,0,2.460791666666663,16.1245154965971,122.40914998479485,12.041594578792296,26.076809620810597,33.06055050963308,35.05709628591621,39.05124837953327,93.26306878931231,67.1863081289633,59.0,55.0,45.0,11.0,43.0,16.0,2.0,20.0,18.027756377319946,18.0,56.0,66.0,61.07372593840988,310.64449134018133,303.7976300105055,292.8275943281302,278.71849597757233
60,11,60,0,2.5024999999999964,19.026297590440446,119.70797801316336,12.041594578792296,27.073972741361768,33.13608305156178,36.124783736376884,40.11234224026316,98.2496819333274,71.17583859709698,61.5,60.0,47.0,13.5,44.5,15.5,5.5,19.0,19.026297590440446,18.5,58.0,67.0,62.07253821135398,311.1735849971845,306.19274975087177,295.3303235362058,281.2045518834999
61,11,61,0,2.5442083333333296,22.02271554554524,114.85643212288984,13.038404810405298,30.066592756745816,30.14962686336267,34.23448553724738,41.19465984809196,106.30145812734649,76.23647421018367,65.0,66.0,52.0,18.0,47.0,16.0,8.0,20.0,19.1049731745428,19.0,59.0,68.0,63.12685640834652,313.2538906382489,308.4623153644542,296.62434155004877,279.5084971874737
62,11,62,0,2.585916666666663,25.019992006393608,111.5437134042076,13.038404810405298,32.0624390837628,30.066592756745816,34.132096331752024,41.19465984809196,111.28791488746656,79.22752047110903,66.5,67.0,56.0,20.5,49.5,16.5,9.5,21.0,19.235384061671343,19.5,57.0,66.0,63.0317380372777,314.2499005568657,307.37111119947497,295.3303235362058,277.22193275424655
63,11,63,0,2.627624999999996,15.132745950421556,110.45361017187261,11.045361017187261,24.08318915758459,28.160255680657446,30.14962686336267,44.10215414239989,94.33981132056604,70.25667228100119,62.5,62.0,52.0,13.0,37.0,12.0,5.0,20.0,19.1049731745428,19.5,58.0,66.0,59.033888572581766,313.16609011832685,307.37111119947497,293.43653487594213,277.22193275424655
64,11,64,0,2.6693333333333293,2.8284271247461903,115.27792503337315,11.0,20.024984394500787,28.071337695236398,29.274562336608895,47.042533945356304,80.15609770940699,60.13318551349163,59.0,59.0,51.0,8.0,25.0,4.0,0.0,20.024984394500787,19.1049731745428,19.0,61.0,66.0,61.00819617067857,315.5138665732459,308.6486675817668,297.7414986191881,280.7863956818421
65,11,65,0,2.7110416666666626,4.123105625617661,118.27087553578015,12.041594578792296,22.090722034374522,29.017236257093817,31.144823004794873,44.01136216933077,82.15229759416349,60.07495318350236,58.0,57.0,49.0,9.0,29.0,6.0,1.0,20.024984394500787,20.09975124224178,20.0,64.0,65.0,62.0,316.30997455028194,310.4657791126101,297.6726389845059,279.71592732627863
66,11,66,0,2.752749999999996,10.04987562112089,114.21471008587291,13.038404810405298,25.079872407968907,29.068883707497267,32.0624390837628,43.0,91.08786966440702,66.03029607687671,61.0,59.0,52.0,12.5,35.5,9.5,2.5,21.02379604162864,20.09975124224178,20.0,60.0,68.0,62.00806399170998,315.5138665732459,308.6486675817668,294.6794869005985,277.58422145359776
67,11,67,0,2.794458333333329,14.035668847618199,108.2266141020775,12.041594578792296,26.019223662515376,31.064449134018133,34.132096331752024,43.01162633521314,95.08417323613851,69.06518659932803,62.0,60.0,53.0,13.5,38.5,10.5,4.5,20.024984394500787,19.1049731745428,19.5,66.0,68.0,71.0,316.51224304914336,308.58548248418947,295.67718883945037,279.71592732627863
68,11,68,0,2.8361666666666623,9.219544457292887,105.38500842150178,13.038404810405298,29.017236257093817,29.068883707497267,32.14031735997639,42.0,93.08598175880189,64.07027391856539,59.5,59.0,50.0,12.5,38.5,8.5,2.5,21.02379604162864,20.09975124224178,20.0,65.0,67.0,68.0,315.6992239458311,307.7872641939559,294.7490457999822,278.792037189013
69,11,69,0,2.8778749999999955,6.324555320336759,101.40019723846694,13.038404810405298,28.071337695236398,28.160255680657446,30.265491900843113,44.0,91.13725912051558,63.071388124885914,60.0,59.0,50.0,10.5,36.5,7.5,1.5,20.024984394500787,19.1049731745428,19.0,66.0,67.0,65.0,316.26729201736936,309.4139621930465,294.49108645254444,279.5174413162799
70,11,70,0,2.9195833333333288,5.830951894845301,100.40418317978589,14.035668847618199,27.018512172212592,26.076809620810597,29.154759474226502,43.0,89.1403387922662,62.12889826803627,59.5,58.0,49.0,10.5,35.5,6.5,0.5,20.09975124224178,20.024984394500787,20.0,66.0,67.0,64.03124237432849,318.2656123428983,310.3159680068043,295.3811097548386,278.4600509947522
71,11,71,0,2.961291666666662,5.385164807134504,106.23088063270491,15.033296378372908,28.071337695236398,28.071337695236398,31.144823004794873,42.0,90.13878188659973,62.07253821135398,59.5,57.0,50.0,11.5,36.5,7.5,0.5,22.02271554554524,21.02379604162864,20.5,66.0,66.0,65.00769185258002,316.1913977324494,309.3169895107606,295.3811097548386,276.3548443577568
72,11,72,0,3.0029999999999952,10.04987562112089,107.0420478129973,15.033296378372908,32.01562118716424,30.0,34.0147027033899,41.012193308819754,98.02040603874276,66.007575322837,61.0,56.0,53.0,13.5,43.5,9.5,0.5,20.024984394500787,20.09975124224178,20.0,66.0,65.0,64.0,316.10124960208555,309.13104017552166,296.13679271579883,277.1154993860863
73,11,73,0,3.0447083333333285,18.027756377319946,107.01868995647442,14.035668847618199,33.015148038438355,30.0,33.015148038438355,40.01249804748511,105.01904589168576,72.00694410957877,63.0,57.0,55.0,16.0,49.0,13.0,4.0,21.02379604162864,20.024984394500787,20.0,67.0,67.0,60.0,314.0573196090166,307.1042168385188,295.1372562046344,277.1154993860863
74,11,74,0,3.0864166666666617,20.024984394500787,108.00462953040486,12.0,31.016124838541646,30.0,34.0147027033899,38.01315561749642,101.00495037373169,70.0,60.0,54.0,53.0,15.5,47.5,14.5,4.5,22.02271554554524,21.095023109728988,21.0,66.0,66.0,61.00819617067857,317.15768948584554,310.16124838541646,295.16944286290885,275.11633902769205
75,11,75,0,3.128124999999995,19.026297590440446,106.01886624558857,11.0,32.0,31.016124838541646,34.0,37.013511046643494,99.0,67.0,57.5,53.0,51.0,15.0,47.0,13.0,5.0,21.095023109728988,21.095023109728988,21.0,64.0,65.0,61.0,317.15768948584554,310.16124838541646,295.16944286290885,275.11633902769205
76,11,76,0,3.169833333333328,17.0,106.01886624558857,12.041594578792296,34.0147027033899,30.0,34.0147027033899,37.0,100.0199980003999,66.007575322837,57.5,55.0,53.0,17.0,46.0,10.0,6.0,22.02271554554524,22.090722034374522,22.0,64.0,65.0,63.0,317.10093030453254,312.1297807002722,297.1683024819437,279.1146717748818
77,11,77,0,3.2115416666666614,6.324555320336759,104.12012293500234,12.041594578792296,28.0178514522438,29.017236257093817,31.016124838541646,45.0,91.08786966440702,63.071388124885914,60.0,57.0,52.0,9.5,36.5,6.5,0.5,21.095023109728988,20.09975124224178,20.5,64.0,65.0,62.00806399170998,319.189598828032,313.22994748267604,298.2029510249689,280.2159881234474
78,11,78,0,3.253249999999994,2.8284271247461903,106.1178590059185,13.038404810405298,21.095023109728988,25.079872407968907,27.073972741361768,47.0,83.15046602394962,62.07253821135398,61.0,55.0,50.0,5.5,30.5,8.5,4.5,23.08679276123039,22.20360331117452,22.5,63.0,66.0,62.0,319.22562553780045,310.23217112349903,294.2872746144488,277.25980595823836
79,11,79,0,3.294958333333328,2.8284271247461903,109.07336980216573,13.0,23.021728866442675,27.073972741361768,29.017236257093817,45.0111097397076,83.09632964216891,60.07495318350236,59.0,53.0,49.0,6.0,32.0,7.0,4.0,22.02271554554524,21.095023109728988,21.5,63.0,66.0,59.00847396772772,315.1920049747455,309.23292192132453,295.2050135075622,278.14564530116235
80,11,80,0,3.336666666666661,7.280109889280518,112.04017136723775,13.038404810405298,29.017236257093817,30.01666203960727,33.0,44.0,93.08598175880189,64.07027391856539,60.5,53.0,50.0,7.5,41.5,11.5,3.5,22.02271554554524,21.02379604162864,21.0,65.0,66.0,61.0,315.1015709259476,308.13146544940844,295.10845463998487,278.08811553175013
81,11,81,0,3.3783749999999944,11.180339887498949,114.0175425099138,14.0,32.01562118716424,30.01666203960727,33.015148038438355,40.0,97.04638066409278,65.03076195155643,59.5,53.0,51.0,12.0,45.0,11.0,0.0,22.02271554554524,21.095023109728988,21.0,64.0,66.0,65.0,316.12813857674865,309.16176995223714,295.1372562046344,277.1461708196597
82,11,82,0,3.420083333333328,8.06225774829855,115.0173899895142,12.0,31.016124838541646,31.0,33.0,39.01281840626232,90.0499861188218,59.033888572581766,55.0,49.0,47.0,9.0,42.0,9.0,1.0,22.02271554554524,20.09975124224178,20.0,64.0,65.0,64.00781202322104,318.1273329973393,311.1301978272119,297.2036338943385,280.1446055165082
83,11,83,0,3.461791666666661,11.045361017187261,114.03946685248927,12.041594578792296,27.0,30.01666203960727,32.01562118716424,40.01249804748511,90.0499861188218,63.071388124885914,57.5,50.0,47.0,8.5,41.5,11.5,0.5,20.024984394500787,20.024984394500787,20.5,64.0,65.0,65.0,318.0770346944274,311.07876816009156,298.10736320996836,281.06404963993526
84,11,84,0,3.503499999999994,11.045361017187261,118.06777714516353,13.0,27.018512172212592,31.016124838541646,33.06055050963308,39.05124837953327,90.08884503644167,63.071388124885914,57.5,49.0,45.0,8.0,43.0,14.0,2.0,21.02379604162864,20.09975124224178,20.0,64.0,66.0,61.00819617067857,318.10061301418455,310.16124838541646,295.2050135075622,279.1451235468748
85,11,85,0,3.545208333333328,11.045361017187261,116.1077086157504,12.041594578792296,27.018512172212592,32.01562118716424,34.058772731852805,40.01249804748511,90.08884503644167,63.071388124885914,57.5,50.0,45.0,7.5,42.5,13.5,1.5,21.02379604162864,21.02379604162864,20.5,64.0,65.0,63.00793600809346,317.1277345171816,309.16176995223714,296.2043213729334,279.17915394957413
86,11,86,0,3.5869166666666605,12.041594578792296,117.10678887237921,11.045361017187261,28.0178514522438,31.064449134018133,34.058772731852805,40.049968789001575,91.13725912051558,63.12685640834652,57.0,50.0,45.0,7.5,43.5,13.5,0.5,21.02379604162864,20.09975124224178,20.5,64.0,65.0,63.00793600809346,319.100297712177,310.16124838541646,296.16887074775434,279.1451235468748
87,11,87,0,3.6286249999999938,13.038404810405298,117.15374513859982,12.041594578792296,29.017236257093817,30.01666203960727,34.058772731852805,40.049968789001575,94.13288479590966,65.12296062065974,58.5,51.0,45.0,8.0,46.0,16.0,2.0,22.02271554554524,21.095023109728988,21.0,64.0,65.0,61.0,318.10061301418455,310.13061764359867,297.1683024819437,280.1446055165082
88,11,88,0,3.670333333333327,10.04987562112089,116.15506876585283,14.035668847618199,33.015148038438355,32.14031735997639,34.132096331752024,41.10960958218893,98.18350166906862,65.19202405202648,60.0,54.0,48.0,10.0,47.0,12.0,1.0,22.02271554554524,20.09975124224178,20.5,65.0,67.0,66.007575322837,315.1015709259476,309.16176995223714,297.2036338943385,279.17915394957413
89,11,89,0,3.71204166666666,13.038404810405298,114.15778554264269,14.035668847618199,32.01562118716424,32.0624390837628,34.0147027033899,42.1070065428546,101.17806086301516,69.18092222571191,62.5,57.0,51.0,12.0,47.0,13.0,1.0,21.02379604162864,19.1049731745428,20.0,63.0,65.0,71.00704190430693,318.2656123428983,310.3159680068043,296.33089612796033,277.25980595823836
90,11,90,0,3.7537499999999935,15.033296378372908,114.28035701729323,13.038404810405298,30.01666203960727,31.064449134018133,34.058772731852805,42.190046219457976,100.24470060806208,70.25667228100119,62.5,59.0,51.0,13.0,45.0,14.0,3.0,21.02379604162864,19.026297590440446,19.0,63.0,64.0,68.0294054067798,315.1015709259476,308.1963659746818,295.24396691549856,278.25887227544064
91,11,91,0,3.795458333333327,13.038404810405298,115.27792503337315,12.041594578792296,29.017236257093817,31.064449134018133,34.058772731852805,42.04759208325728,96.13012014972206,67.11929677819934,60.5,58.0,50.0,12.0,42.0,12.0,2.0,20.09975124224178,19.026297590440446,19.0,61.0,63.0,65.03076195155643,318.1273329973393,310.16124838541646,298.1677380267691,281.1778796420515
92,11,92,0,3.83716666666666,14.142135623730951,113.21660655575224,12.041594578792296,28.0178514522438,32.0624390837628,35.014282800023196,41.048751503547585,95.1892851112981,67.1863081289633,60.0,58.0,51.0,13.5,40.5,11.5,3.5,21.02379604162864,19.0,19.5,62.0,63.0,66.03029607687671,317.0567772497538,309.0792778560219,297.0824801296771,280.08748633239577
93,11,93,0,3.878874999999993,15.132745950421556,115.15641536623133,12.0,28.0178514522438,33.015148038438355,35.014282800023196,41.048751503547585,96.13012014972206,68.11754546370561,60.5,57.0,51.0,13.0,42.0,12.0,3.0,21.02379604162864,19.0,19.5,62.0,62.0,68.00735254367721,316.0395544864598,308.0405817420815,295.0423698386386,279.0447992706547
94,11,94,0,3.9205833333333264,13.038404810405298,116.03878661895772,14.035668847618199,31.016124838541646,32.0,35.0,39.01281840626232,97.082439194738,66.06814663663572,59.5,54.0,51.0,13.5,44.5,10.5,0.5,20.09975124224178,20.0,20.0,61.0,61.0,65.03076195155643,314.10189429546585,307.13189349203054,295.10845463998487,280.11426240018557
95,11,95,0,3.96229166666666,22.02271554554524,119.01680553602503,12.041594578792296,28.0178514522438,33.0,37.0,40.01249804748511,102.07840124139877,74.06078584514209,63.0,55.0,53.0,14.0,48.0,17.0,3.0,19.026297590440446,18.027756377319946,18.5,60.0,61.0,70.00714249274856,314.0780157858872,308.0795351853154,295.0423698386386,280.04463929880893
96,11,96,0,4.003999999999993,30.01666203960727,123.01625908797584,13.0,28.0178514522438,35.0,38.0,38.0,109.01834707974616,81.00617260431454,66.0,54.0,52.0,15.0,56.0,25.0,4.0,19.026297590440446,19.026297590440446,18.5,60.0,63.0,69.00724599634447,312.1602152741441,306.13232433050905,295.0610106401725,280.0285699709942
97,11,97,0,4.045708333333327,33.06055050963308,127.01574705523721,13.0,28.0178514522438,35.0,38.01315561749642,38.01315561749642,112.0714058089752,84.0535543567314,67.5,54.0,52.0,15.0,59.0,28.0,4.0,18.027756377319946,18.027756377319946,18.5,60.0,63.0,68.00735254367721,314.2689930616764,307.19700519373555,295.1372562046344,278.08811553175013
98,11,98,0,4.08741666666666,38.05259518088089,128.01562404644207,11.0,27.018512172212592,35.0,39.01281840626232,39.01281840626232,115.06954418958998,88.05112151472007,69.0,54.0,52.0,14.0,62.0,32.0,4.0,18.027756377319946,18.027756377319946,18.5,59.0,62.0,66.0,312.1938500355188,306.1633550900565,295.10845463998487,278.0647406630334
99,11,99,0,4.129124999999993,40.049968789001575,131.01526628603247,12.0,26.0,35.0,39.0,39.01281840626232,117.03845521878696,91.0494371207203,71.0,53.0,51.0,13.0,65.0,35.0,3.0,17.029386365926403,18.027756377319946,18.0,61.0,61.0,62.00806399170998,308.05843601498725,304.0263146505578,295.01525384291574,278.0017985553331
100,11,100,0,4.170833333333326,41.048751503547585,131.00381673829202,11.0,26.0,36.0,40.0,39.0,117.01709276853532,91.02197536858887,70.5,51.0,50.0,11.5,66.5,37.5,2.5,18.027756377319946,18.027756377319946,18.5,61.0,59.0,65.03076195155643,309.0016181187406,303.00165016052307,295.006779583114,279.0161285660741
101,11,101,0,4.21254166666666,43.04648650006177,133.00375934536586,11.0,26.0,36.013886210738214,40.0,39.0,119.01680553602503,93.02150289046077,71.5,50.0,49.0,10.5,69.5,40.5,2.5,18.110770276274835,17.029386365926403,17.5,64.0,58.0,64.03124237432849,307.04071391266666,303.0412513173743,294.0425139329345,278.0647406630334
102,11,102,0,4.254249999999993,41.012193308819754,134.0,12.0,27.0,37.0,41.012193308819754,38.0,118.00423721205946,91.00549433962765,70.5,48.0,48.0,10.0,70.0,39.0,1.0,18.027756377319946,17.0,17.0,61.0,53.0,62.03224967708329,309.1035425225664,304.13319450530224,295.16944286290885,278.14564530116235
103,11,103,0,4.295958333333326,39.01281840626232,133.0,11.0,27.0,37.013511046643494,41.0,39.0,116.00431026474836,89.00561780022652,69.5,48.0,48.0,9.0,68.0,37.0,0.0,17.11724276862369,16.0,16.0,60.0,53.0,62.07253821135398,310.13061764359867,304.13319450530224,297.1363323459452,279.1451235468748
104,11,104,0,4.337666666666659,37.0,133.01503674397117,11.0,26.0,36.013886210738214,40.0,40.01249804748511,114.00438588054409,88.0056816347672,69.5,47.0,49.0,8.0,66.0,36.0,1.0,17.11724276862369,17.029386365926403,17.0,61.0,53.0,66.06814663663572,310.13061764359867,304.1052449399714,294.0833215264001,277.0649743291274
105,11,105,0,4.3793749999999925,29.017236257093817,132.015150645674,11.0,26.019223662515376,34.0147027033899,38.01315561749642,38.01315561749642,104.00480758118829,78.0,63.5,42.0,44.0,5.0,61.0,32.0,4.0,18.110770276274835,17.0,17.0,63.0,55.0,63.12685640834652,310.13061764359867,303.10559216220344,292.083892058429,275.0654467576762
106,11,106,0,4.421083333333326,27.018512172212592,130.01538370516005,11.0,26.019223662515376,34.0147027033899,37.013511046643494,39.01281840626232,103.00485425454472,77.0,63.5,42.0,44.0,4.0,60.0,31.0,5.0,19.1049731745428,18.0,18.0,66.0,57.0,67.11929677819934,311.1301978272119,304.13319450530224,293.1091946698363,276.08875384557047
107,11,107,0,4.462791666666659,21.02379604162864,126.03570922560003,9.0,26.019223662515376,31.016124838541646,35.05709628591621,40.049968789001575,96.02083107326243,70.00714249274856,59.5,42.0,45.0,3.5,52.5,22.5,4.5,18.110770276274835,17.0,17.0,66.0,55.0,64.19501538281614,313.22994748267604,305.1327579923205,295.0610106401725,279.0447992706547
108,11,108,0,4.504499999999992,18.027756377319946,119.03780911962384,8.0,25.019992006393608,29.017236257093817,33.015148038438355,41.012193308819754,92.00543462209176,67.0,58.0,43.0,46.0,3.5,47.5,19.5,3.5,18.110770276274835,18.0,18.0,68.0,52.0,66.37017402418047,313.5761470520358,306.27601930285044,295.10845463998487,279.06450867138227
109,11,109,0,4.546208333333325,20.0,112.0714058089752,10.0,27.073972741361768,30.01666203960727,33.015148038438355,38.01315561749642,95.04735661763561,68.00735254367721,58.0,45.0,49.0,9.0,48.0,17.0,0.0,19.235384061671343,17.029386365926403,17.5,70.0,52.0,68.3593446428504,311.8493225902535,305.5912302406599,293.33428030150174,278.1797979724624
110,11,110,0,4.587916666666659,28.0,107.16809226630845,12.0,31.064449134018133,29.154759474226502,34.132096331752024,36.124783736376884,107.11675872616759,76.05918747922567,62.0,49.0,55.0,16.0,55.0,21.0,4.0,19.1049731745428,18.0,18.0,71.0,52.0,64.4980619863884,312.0032051117424,305.7220960284029,291.4395306062649,274.3082208028042
111,11,111,0,4.629624999999992,31.0,110.2905254316979,12.041594578792296,32.0624390837628,32.2490309931942,37.21558813185679,34.132096331752024,109.16501271011697,77.10382610480494,61.5,49.0,57.0,19.0,56.0,19.0,6.0,18.24828759089466,18.027756377319946,18.0,70.0,51.0,65.49045732013177,310.92764431616564,305.7220960284029,291.49614062625255,274.4102767754881
112,11,112,0,4.671333333333325,30.0,110.2905254316979,13.038404810405298,32.0624390837628,33.13608305156178,37.12142238654117,33.13608305156178,108.16653826391968,76.10519036176179,61.0,51.0,59.0,22.0,53.0,17.0,9.0,18.24828759089466,18.027756377319946,17.5,70.0,53.0,64.4980619863884,312.84660778087397,306.71974178392884,293.5523803344132,276.40730815229904
113,11,113,0,4.713041666666658,4.47213595499958,110.07270324653611,15.033296378372908,27.018512172212592,28.0,31.016124838541646,44.181444068749045,90.08884503644167,63.071388124885914,61.0,53.0,57.0,11.0,35.0,5.0,2.0,19.235384061671343,18.027756377319946,18.0,67.0,51.0,61.29437168288782,314.9936507296615,307.86035795470644,294.61330587738223,278.5192991517823
114,11,114,0,4.754749999999992,5.0990195135927845,107.0420478129973,14.0,25.019992006393608,26.0,29.0,46.2709412050371,90.13878188659973,65.12296062065974,62.5,55.0,58.0,10.5,33.5,6.5,2.5,19.235384061671343,18.027756377319946,18.5,68.0,52.0,57.3149195236284,315.91296269700615,308.71507899679926,296.54679226051326,279.45840477609545
115,11,115,0,4.796458333333325,7.0710678118654755,107.0420478129973,15.0,27.0,29.017236257093817,32.01562118716424,43.41658669218482,92.13576938409967,65.19202405202648,61.5,55.0,58.0,13.5,35.5,6.5,0.5,19.235384061671343,19.0,18.5,70.0,54.0,61.40032573203501,313.9187793044564,307.7174028227848,295.5486423585803,278.40438214941946
116,11,116,0,4.838166666666658,12.041594578792296,110.07270324653611,15.033296378372908,28.0178514522438,31.064449134018133,34.058772731852805,39.20459156782532,94.13288479590966,66.12110101926616,60.0,54.0,58.0,17.0,38.0,7.0,3.0,19.1049731745428,18.027756377319946,18.5,69.0,55.0,65.27633568147036,315.6342820417326,308.58548248418947,295.4335796757031,278.3522947633089
117,11,117,0,4.879874999999991,18.027756377319946,113.11056537742175,13.0,29.017236257093817,30.066592756745816,34.058772731852805,37.05401462729781,97.082439194738,68.06614430096654,59.0,52.0,57.0,17.5,42.5,10.5,4.5,19.235384061671343,19.026297590440446,19.5,69.0,54.0,66.27216610312357,315.6342820417326,309.5238278388273,296.4877737782791,278.40438214941946
118,11,118,0,4.9215833333333245,22.02271554554524,113.11056537742175,13.0,32.01562118716424,32.0624390837628,35.05709628591621,36.05551275463989,103.07764064044152,71.06335201775947,60.0,53.0,58.0,19.5,47.5,11.5,6.5,19.1049731745428,19.0,19.0,68.0,55.0,64.28063471995279,315.5724956329369,310.5221409175198,296.37982387470305,278.3522947633089
119,11,119,0,4.963291666666658,18.0,114.0701538527936,14.035668847618199,33.015148038438355,32.0624390837628,36.05551275463989,38.05259518088089,103.07764064044152,70.06425622241343,61.0,54.0,58.0,18.0,47.0,11.0,4.0,19.1049731745428,18.0,18.5,66.0,55.0,61.29437168288782,316.1913977324494,309.19573088902763,295.16944286290885,279.1451235468748
120,11,120,0,5.004999999999991,3.1622776601683795,109.01834707974616,14.0,23.0,28.0178514522438,29.017236257093817,46.04345773288535,86.00581375697809,63.00793600809346,61.5,54.0,56.0,9.0,31.0,5.0,3.0,20.223748416156685,19.026297590440446,20.0,67.0,56.0,63.12685640834652,313.31294259892934,306.23520372419625,293.17059879871994,277.1154993860863
121,11,121,0,5.046708333333324,1.4142135623730951,107.01868995647442,12.0,19.0,25.019992006393608,28.0,48.041648597857254,80.00624975587844,61.00819617067857,60.5,52.0,54.0,5.0,27.0,6.0,5.0,21.213203435596427,20.0,20.5,66.0,56.0,62.20128616033595,314.1926160812822,306.1633550900565,292.1095684841563,277.0884335370208
122,11,122,0,5.0884166666666575,2.8284271247461903,108.00462953040486,12.0,21.0,26.0,29.0,48.093658625644196,83.00602387778854,62.00806399170998,61.0,53.0,54.0,5.5,29.5,6.5,4.5,20.223748416156685,19.0,19.5,66.0,55.0,62.289646009589745,310.3626910567699,304.2367499169027,291.20782956507196,276.14670014323906
123,11,123,0,5.130124999999991,6.082762530298219,102.0196059588548,12.041594578792296,24.020824298928627,25.0,28.0178514522438,48.010415536631214,90.0222194794152,66.007575322837,63.0,55.0,57.0,8.0,34.0,8.0,3.0,19.235384061671343,18.0,18.5,67.0,54.0,61.40032573203501,315.3109576275458,307.19700519373555,294.10882339705483,277.04512267859906
124,11,124,0,5.171833333333324,7.0,99.00505037623081,12.041594578792296,26.0,24.020824298928627,27.0,50.0,95.00526301210897,69.00724599634447,65.5,58.0,59.0,8.5,36.5,8.5,1.5,21.213203435596427,19.0,19.5,68.0,55.0,59.30430001273095,315.3109576275458,308.27422856930485,294.1377228442486,277.1154993860863
125,11,125,0,5.213541666666657,6.0,99.0,13.038404810405298,26.019223662515376,24.0,27.0,50.00999900019995,95.04735661763561,69.02897942168927,66.0,58.0,58.0,8.0,37.0,9.0,3.0,20.223748416156685,20.0,20.0,68.0,57.0,63.28506932918696,316.1913977324494,309.13104017552166,295.10845463998487,276.06520968785617
126,11,126,0,5.25524999999999,6.082762530298219,101.0,14.0,27.018512172212592,25.019992006393608,27.018512172212592,48.093658625644196,95.04735661763561,68.0294054067798,65.0,57.0,57.0,9.0,38.0,9.0,3.0,18.24828759089466,17.0,17.5,69.0,57.0,65.27633568147036,316.22776601683796,309.19573088902763,295.0830391601659,279.0447992706547
127,11,127,0,5.296958333333324,8.06225774829855,102.0,13.038404810405298,26.0,26.019223662515376,29.017236257093817,46.04345773288535,93.02150289046077,67.02984409947557,63.0,56.0,56.0,10.0,37.0,9.0,1.0,19.235384061671343,18.0,18.5,68.0,58.0,64.19501538281614,315.22848856028224,307.13189349203054,294.0612181162283,277.02887936097926
128,11,128,0,5.338666666666657,8.06225774829855,109.01834707974616,14.035668847618199,26.0,27.0,30.01666203960727,44.10215414239989,92.04890004774636,66.06814663663572,62.0,54.0,56.0,11.0,37.0,9.0,1.0,20.223748416156685,20.0,20.0,67.0,56.0,60.207972893961475,315.35694062442957,308.23367758893573,295.1372562046344,278.14564530116235
129,11,129,0,5.38037499999999,8.0,109.00458705944443,14.0,27.0,28.0,32.0,43.104524124504614,92.04890004774636,65.06919393998976,61.0,54.0,55.0,11.5,37.5,8.5,0.5,20.223748416156685,19.0,19.0,66.0,54.0,64.1248781675256,316.30997455028194,308.1963659746818,294.10882339705483,278.08811553175013
130,11,130,0,5.422083333333323,9.0,109.01834707974616,14.0,30.01666203960727,30.01666203960727,33.015148038438355,40.11234224026316,93.08598175880189,63.071388124885914,58.5,53.0,55.0,14.0,39.0,7.0,1.0,20.09975124224178,19.0,19.0,66.0,55.0,59.21148537234985,315.2681398428963,308.1963659746818,295.10845463998487,279.0877998050076
131,11,131,0,5.463791666666657,13.0,108.00462953040486,14.0,29.017236257093817,31.016124838541646,33.0,39.05124837953327,95.04735661763561,66.03029607687671,59.5,55.0,56.0,16.5,39.5,7.5,3.5,19.1049731745428,19.0,19.0,67.0,57.0,62.12889826803627,314.2689930616764,308.162294903189,294.10882339705483,278.1150840928985
132,11,132,0,5.50549999999999,15.0,111.00450441310929,15.0,30.0,31.0,34.0,38.05259518088089,98.02040603874276,68.0294054067798,60.5,55.0,56.0,17.5,42.5,10.5,4.5,20.09975124224178,19.026297590440446,19.5,65.0,57.0,61.1310068623117,315.1920049747455,308.13146544940844,293.08360581922693,276.08875384557047
133,11,133,0,5.547208333333323,14.0,110.00454536063498,15.0,31.0,31.016124838541646,33.0,39.05124837953327,99.02019995940222,68.0294054067798,61.0,55.0,56.0,16.5,43.5,10.5,2.5,21.095023109728988,20.024984394500787,20.5,66.0,57.0,63.12685640834652,314.10189429546585,307.07979419037,294.0272096252318,275.02908937056094
134,11,134,0,5.588916666666656,2.23606797749979,113.01769772916099,14.0,23.0,30.0,31.0,42.1070065428546,81.02468759581859,58.034472514187634,57.0,50.0,52.0,9.0,30.0,5.0,2.0,21.095023109728988,20.024984394500787,20.0,66.0,58.0,66.12110101926616,314.1289544120376,306.10455730027934,293.1091946698363,277.1461708196597
135,11,135,0,5.6306249999999896,2.23606797749979,113.01769772916099,13.0,22.0,28.0,31.0,42.04759208325728,79.00632886041473,57.0087712549569,56.0,48.0,50.0,7.0,30.0,5.0,4.0,21.095023109728988,20.024984394500787,20.5,64.0,59.0,60.03332407921454,313.0782649753892,307.07979419037,294.0612181162283,279.0877998050076
136,11,136,0,5.672333333333323,3.1622776601683795,107.00467279516349,14.0,26.0,28.0178514522438,30.01666203960727,44.01136216933077,87.0,61.0,59.5,54.0,53.0,9.5,33.5,5.5,1.5,22.20360331117452,21.02379604162864,21.0,65.0,62.0,61.00819617067857,315.02539580167183,307.04071391266666,294.0425139329345,277.0649743291274
137,11,137,0,5.714041666666656,7.0710678118654755,105.04284840006957,15.0,28.0178514522438,28.0178514522438,30.01666203960727,43.0,93.02150289046077,65.00769185258002,61.5,56.0,53.0,11.5,38.5,8.5,1.5,21.213203435596427,21.02379604162864,20.5,68.0,64.0,62.03224967708329,315.0142853903613,308.0405817420815,296.06080456554866,278.1150840928985
138,11,138,0,5.755749999999989,10.04987562112089,108.01851693112621,15.0,29.017236257093817,30.0,32.0,41.012193308819754,95.00526301210897,66.0,61.0,56.0,54.0,14.0,40.0,9.0,1.0,22.090722034374522,20.09975124224178,20.5,64.0,65.0,58.0,316.0,308.00649343804423,297.0420845604205,279.0877998050076
139,11,139,0,5.7974583333333225,14.035668847618199,113.00442469213318,13.038404810405298,29.017236257093817,30.01666203960727,33.015148038438355,39.01281840626232,95.02105029939419,66.007575322837,59.0,54.0,53.0,14.5,41.5,10.5,2.5,21.095023109728988,20.024984394500787,20.0,63.0,60.0,59.00847396772772,317.00157728314224,310.00645154577023,297.0269348055829,279.0447992706547
140,11,140,0,5.839166666666656,14.035668847618199,117.0,13.038404810405298,29.017236257093817,32.0,35.014282800023196,38.01315561749642,94.02127418834527,65.00769185258002,58.0,52.0,52.0,14.0,42.0,11.0,2.0,21.095023109728988,20.024984394500787,20.0,67.0,63.0,66.03029607687671,315.0,309.0016181187406,296.00675667964066,278.0287754891569
141,11,141,0,5.880874999999989,18.027756377319946,121.00413216084813,15.0,31.0,33.015148038438355,37.013511046643494,39.0,103.00485425454472,72.00694410957877,63.0,54.0,55.0,15.5,48.5,14.5,1.5,21.095023109728988,20.024984394500787,20.0,67.0,64.0,67.00746227100382,311.00160771288625,307.001628660175,294.00680264238787,276.0163038662753
142,11,142,0,5.922583333333322,29.068883707497267,121.00413216084813,13.0,30.0,34.0147027033899,38.05259518088089,40.01249804748511,112.04017136723775,82.05485969764375,67.5,54.0,55.0,14.5,57.5,24.5,2.5,20.024984394500787,19.0,20.0,66.0,63.0,69.02897942168927,309.00647242412253,304.00164473239283,293.0,275.0018181758077
143,11,143,0,5.964291666666656,24.08318915758459,123.0,14.0,31.0,34.0147027033899,38.05259518088089,39.01281840626232,108.04165863221463,77.05841939723393,65.0,53.0,53.0,14.0,55.0,20.0,1.0,21.02379604162864,20.0,20.5,66.0,61.0,74.02702209328699,311.0,306.0,293.00170647967224,276.00724628168734
144,11,144,0,6.005999999999989,19.026297590440446,121.0,13.038404810405298,30.0,33.015148038438355,37.013511046643494,40.0,102.0196059588548,72.02777242147643,62.5,53.0,53.0,13.0,49.0,16.0,1.0,21.095023109728988,20.0,20.0,67.0,62.0,67.06713054842886,310.0016128990299,304.00164473239283,291.0,275.0018181758077
145,11,145,0,6.047708333333322,23.021728866442675,120.00416659433121,13.0,27.0,32.0,35.0,38.0,101.00495037373169,74.00675644831355,62.5,51.0,52.0,13.5,49.5,18.5,2.5,20.09975124224178,20.0,20.0,68.0,61.0,63.12685640834652,313.0015974400131,306.00653587791226,295.0016949103852,275.0018181758077
146,11,146,0,6.089416666666655,18.110770276274835,114.00438588054409,12.0,29.017236257093817,31.0,35.0,39.01281840626232,98.08159868191383,69.06518659932803,60.0,55.0,54.0,15.5,43.5,12.5,5.5,21.095023109728988,20.0,20.0,67.0,60.0,65.03076195155643,312.04006153056696,305.026228380446,291.0068727710739,274.00182481144174
147,11,147,0,6.131124999999988,21.02379604162864,107.01868995647442,12.0,29.017236257093817,31.016124838541646,34.0147027033899,39.05124837953327,101.07917688624102,72.06247289678588,61.5,60.0,58.0,20.0,42.0,11.0,9.0,22.090722034374522,20.024984394500787,20.5,68.0,62.0,65.03076195155643,313.0,305.00163933985664,293.00170647967224,275.0018181758077
148,11,148,0,6.172833333333322,22.090722034374522,97.0051545022222,13.0,30.0,27.018512172212592,31.016124838541646,39.01281840626232,104.04326023342406,74.06078584514209,63.0,63.0,62.0,23.5,41.5,9.5,11.5,24.08318915758459,22.0,23.0,67.0,64.0,63.071388124885914,313.0399335548102,305.04098085339285,291.0154635066666,272.02941017470886
149,11,149,0,6.214541666666655,19.1049731745428,92.02173656261873,15.0,31.016124838541646,26.0,29.0,39.05124837953327,104.12012293500234,73.10950690573696,63.5,65.0,63.0,25.0,40.0,7.0,11.0,23.08679276123039,22.02271554554524,22.5,69.0,66.0,63.00793600809346,309.0016181187406,303.00165016052307,290.0017241328058,272.0018382290826
150,11,150,0,6.256249999999988,14.142135623730951,94.04786015641186,17.029386365926403,31.016124838541646,26.019223662515376,30.01666203960727,42.01190307520001,104.12012293500234,73.10950690573696,66.0,66.0,63.0,22.5,39.5,6.5,7.5,22.02271554554524,22.0,22.0,66.0,65.0,63.00793600809346,310.0403199585499,305.05901068481813,292.04280508172087,273.045783706689
151,11,151,0,6.297958333333321,12.041594578792296,91.0494371207203,17.029386365926403,31.064449134018133,25.019992006393608,29.017236257093817,44.01136216933077,104.12012293500234,73.06161783043132,67.0,68.0,65.0,22.5,37.5,4.5,7.5,22.090722034374522,21.02379604162864,21.5,64.0,65.0,62.00806399170998,313.05750270517393,307.07979419037,294.0612181162283,275.02908937056094
152,11,152,0,6.339666666666655,10.04987562112089,93.08598175880189,17.029386365926403,31.016124838541646,25.019992006393608,28.0178514522438,45.0111097397076,103.07764064044152,72.06247289678588,67.0,69.0,65.0,22.0,36.0,3.0,7.0,22.02271554554524,21.02379604162864,21.0,62.0,66.0,59.00847396772772,315.07776817795315,308.05843601498725,293.0614270080592,275.04545078950133
153,11,153,0,6.381374999999988,11.045361017187261,93.08598175880189,17.029386365926403,31.064449134018133,25.019992006393608,28.0178514522438,44.0,103.07764064044152,72.02777242147643,66.5,69.0,65.0,23.0,36.0,4.0,7.0,23.021728866442675,21.02379604162864,22.0,61.0,65.0,55.036351623268054,315.03968004046726,309.0582469373694,296.06080456554866,278.044960393099
154,11,154,0,6.423083333333321,13.038404810405298,95.04735661763561,17.0,31.016124838541646,26.019223662515376,29.017236257093817,42.01190307520001,103.04368005850722,72.02777242147643,65.5,68.0,65.0,24.5,36.5,3.5,9.5,24.08318915758459,23.021728866442675,23.5,62.0,63.0,56.0,317.0141952657641,311.0401903291599,296.06080456554866,279.0877998050076
155,11,155,0,6.464791666666654,14.035668847618199,94.00531899844816,17.0,32.01562118716424,25.0,30.01666203960727,41.0,104.01922899156675,72.00694410957877,65.0,66.0,65.0,24.5,38.5,4.5,8.5,22.090722034374522,22.02271554554524,22.0,66.0,65.0,58.0,316.00158227451965,310.00645154577023,297.0151511286924,281.0160137785746
156,11,156,0,6.506499999999988,15.0,93.0,17.0,32.0,26.0,30.01666203960727,41.012193308819754,105.00476179678711,73.00684899377592,65.5,65.0,65.0,24.0,40.0,5.0,8.0,22.20360331117452,21.0,21.0,68.0,62.0,60.07495318350236,314.0143308831621,309.0,297.0151511286924,279.0286723618202
157,11,157,0,6.548208333333321,13.0,89.0,16.0,32.0,24.0,27.018512172212592,43.01162633521314,104.00480758118829,72.00694410957877,65.5,66.0,66.0,23.0,38.0,4.0,8.0,22.20360331117452,21.0,21.0,70.0,60.0,61.1310068623117,315.07776817795315,309.01456276363416,295.0016949103852,278.0
158,11,158,0,6.589916666666654,11.045361017187261,89.02246907382428,17.0,32.0,22.0,25.0,44.01136216933077,104.0,72.0,66.5,66.0,68.0,23.0,37.0,3.0,7.0,21.095023109728988,21.0,21.0,70.0,61.0,61.1310068623117,314.0573196090166,308.0259729308553,296.00675667964066,277.0
159,11,159,0,6.631624999999987,7.0710678118654755,88.0056816347672,17.029386365926403,31.0,21.0,25.019992006393608,47.01063709417264,102.00490184299969,71.00704190430693,67.5,66.0,67.0,19.5,35.5,2.5,3.5,22.090722034374522,22.0,22.0,70.0,60.0,58.137767414994535,315.07776817795315,310.0258053775524,296.00675667964066,277.0
160,11,160,0,6.6733333333333205,17.029386365926403,92.02173656261873,15.0,30.0,23.0,26.019223662515376,48.041648597857254,110.00454536063498,80.00624975587844,71.5,68.0,70.0,21.0,41.0,9.0,7.0,23.08679276123039,21.0,21.5,73.0,60.0,62.289646009589745,314.1289544120376,309.0792778560219,295.0423698386386,275.02908937056094
161,11,161,0,6.715041666666654,32.0,90.00555538409837,15.033296378372908,31.0,27.0,30.0,45.044422518220834,123.03657992645927,92.04890004774636,76.0,69.0,70.0,24.5,53.5,19.5,10.5,23.194827009486403,21.0,21.5,74.0,63.0,67.11929677819934,315.12854520020875,309.0582469373694,294.00680264238787,273.00183149568795
162,11,162,0,6.756749999999987,39.0,95.02105029939419,14.0,31.016124838541646,27.018512172212592,32.0,44.10215414239989,128.06248474865697,97.04638066409278,77.5,69.0,71.0,26.0,58.0,24.0,12.0,22.20360331117452,21.0,21.5,75.0,63.0,68.11754546370561,314.2292157008956,308.13146544940844,295.0830391601659,274.0656855573131
163,11,163,0,6.79845833333332,41.0,95.02105029939419,14.0,31.016124838541646,29.068883707497267,32.01562118716424,42.1070065428546,128.06248474865697,97.04638066409278,76.5,69.0,71.0,28.0,58.0,24.0,14.0,22.20360331117452,21.0,21.5,73.0,61.0,70.11419257183242,315.15869018638847,309.1035425225664,296.06080456554866,274.0456166407337
164,11,164,0,6.840166666666653,41.012193308819754,98.02040603874276,14.035668847618199,30.01666203960727,29.017236257093817,33.0,40.11234224026316,125.06398362438324,95.04735661763561,74.5,66.0,68.0,27.0,58.0,25.0,14.0,23.194827009486403,21.0,22.0,73.0,64.0,59.135437767890075,315.1015709259476,309.0792778560219,295.0423698386386,274.0656855573131
165,11,165,0,6.881874999999987,35.0,101.04454463255303,14.0,31.0,29.017236257093817,33.0,38.118237105091836,118.03812943282352,87.05170877128145,69.5,63.0,66.0,26.5,53.5,19.5,12.5,23.08679276123039,22.0,22.0,73.0,64.0,63.198101237299845,315.15869018638847,309.13104017552166,295.1372562046344,275.11633902769205
166,11,166,0,6.92358333333332,30.0,104.04326023342406,13.0,30.0,30.01666203960727,33.0,39.11521443121589,112.04017136723775,82.05485969764375,67.0,61.0,64.0,23.5,49.5,17.5,10.5,23.194827009486403,22.0,22.5,73.0,63.0,66.06814663663572,316.15818825391824,309.1035425225664,294.0612181162283,276.04528613979267
167,11,167,0,6.965291666666653,28.0,104.01922899156675,12.0,28.0,31.016124838541646,34.0,39.05124837953327,107.01868995647442,79.02531240052139,65.0,60.0,62.0,22.0,46.0,15.0,10.0,22.090722034374522,22.02271554554524,22.5,73.0,64.0,66.06814663663572,315.07776817795315,309.0582469373694,294.0425139329345,277.02887936097926
168,11,168,0,7.006999999999986,28.0,108.00462953040486,13.0,29.0,29.0,34.0,39.05124837953327,109.01834707974616,80.02499609497022,66.0,61.0,62.0,22.5,47.5,15.5,10.5,23.08679276123039,22.0,22.5,69.0,62.0,60.03332407921454,317.02523558858843,309.01456276363416,296.0152023123137,278.01618657912707
169,11,169,0,7.04870833333332,29.0,108.0,12.0,28.0178514522438,31.0,34.0,40.0,109.00458705944443,81.0,66.5,63.0,63.0,23.0,46.0,15.0,12.0,23.021728866442675,22.0,22.0,66.0,62.0,59.033888572581766,315.0063491423625,309.0016181187406,296.0,278.0017985553331
170,11,170,0,7.090416666666653,23.0,107.0420478129973,12.041594578792296,30.0,31.0,35.014282800023196,39.05124837953327,104.04326023342406,74.06078584514209,62.5,63.0,60.0,22.5,42.5,10.5,11.5,19.026297590440446,18.0,18.5,60.0,60.0,53.0,313.0255580619576,305.0147537415199,293.01535795927146,277.01624501101014
171,11,171,0,7.132124999999986,21.0,106.1178590059185,12.0,29.017236257093817,30.0,33.06055050963308,40.11234224026316,102.07840124139877,73.06161783043132,62.5,64.0,59.0,21.5,40.5,9.5,10.5,11.045361017187261,9.055385138137417,9.0,54.0,52.0,50.0,312.0256399721023,305.026228380446,291.0154635066666,275.02908937056094
172,11,172,0,7.173833333333319,19.026297590440446,102.23991392797629,13.0,28.0178514522438,30.066592756745816,32.14031735997639,38.05259518088089,98.08159868191383,70.06425622241343,60.5,65.0,58.0,23.5,36.5,7.5,12.5,12.0,12.041594578792296,11.5,54.0,54.0,49.0,310.0790221862808,304.04111564063174,290.01551682625535,275.00727263110696
173,11,173,0,7.2155416666666525,17.029386365926403,101.31633629380802,14.035668847618199,30.01666203960727,28.0178514522438,32.14031735997639,36.05551275463989,97.12878049270464,67.11929677819934,58.5,64.0,56.0,24.0,37.0,6.0,11.0,16.0,15.033296378372908,15.0,54.0,57.0,53.009433122794285,313.26985172531363,305.16389039334257,292.1095684841563,275.0654467576762
174,11,174,0,7.257249999999986,16.0312195418814,100.31948963187563,15.033296378372908,31.016124838541646,29.017236257093817,33.06055050963308,38.118237105091836,100.17983829094555,69.18092222571191,61.0,65.0,57.0,23.0,39.0,7.0,10.0,17.0,17.11724276862369,17.0,57.0,68.0,59.135437767890075,313.5761470520358,305.41938379873665,293.24563082849164,276.1159176867571
175,11,175,0,7.298958333333319,14.142135623730951,100.4987562112089,16.0312195418814,32.0624390837628,26.076809620810597,30.066592756745816,39.20459156782532,101.40019723846694,69.35416353759881,62.0,66.0,56.0,22.0,40.0,7.0,8.0,19.026297590440446,18.110770276274835,18.0,58.0,68.0,59.07622195096772,313.84391024839084,307.6507760432273,294.49108645254444,275.3071012524014
176,11,176,0,7.340666666666652,10.44030650891055,95.75489543621255,16.0312195418814,31.064449134018133,26.30589287593181,29.154759474226502,42.1070065428546,99.40824915468535,68.3593446428504,63.0,68.0,56.0,20.0,37.0,5.0,7.0,18.0,17.029386365926403,17.5,56.0,68.0,63.071388124885914,312.84660778087397,306.65289824164387,293.492759706266,276.3059898011623
177,11,177,0,7.3823749999999855,6.708203932499369,95.88534820294495,16.0312195418814,30.066592756745816,25.179356624028344,28.284271247461902,44.181444068749045,96.51942809610924,66.48308055437865,63.0,68.0,55.0,17.5,34.5,3.5,4.5,19.0,18.027756377319946,18.5,56.0,68.0,57.14017850864661,310.92764431616564,304.7244657063164,293.43653487594213,275.3071012524014
178,11,178,0,7.424083333333319,5.830951894845301,94.89467845985885,16.0312195418814,30.066592756745816,25.179356624028344,27.16615541441225,44.10215414239989,95.42536350467836,65.37583651472461,62.5,68.0,55.0,17.5,33.5,2.5,3.5,20.0,19.1049731745428,19.0,61.0,73.0,63.12685640834652,311.9246703933499,304.5931712957466,291.3365751154496,274.14777037211155
179,11,179,0,7.465791666666652,8.54400374531753,99.60923651951158,16.0312195418814,29.068883707497267,26.1725046566048,29.068883707497267,42.1070065428546,95.42536350467836,66.37017402418047,62.0,65.0,54.0,17.5,35.5,4.5,4.5,20.0,19.1049731745428,19.5,60.0,73.0,60.13318551349163,314.0780157858872,306.86316168611705,293.492759706266,276.3059898011623
180,11,180,0,7.507499999999985,12.165525060596439,100.4987562112089,15.033296378372908,31.064449134018133,27.073972741361768,30.066592756745816,42.1070065428546,100.31948963187563,69.26037828369117,63.0,67.0,57.0,20.0,38.0,6.0,7.0,21.0,19.1049731745428,19.0,56.0,67.0,56.142675390472796,315.83856635946154,308.6486675817668,295.3811097548386,278.21754078418564
181,11,181,0,7.549208333333318,12.36931687685298,99.40824915468535,16.0312195418814,31.064449134018133,25.079872407968907,29.068883707497267,44.10215414239989,103.39245620450265,72.3394774656273,66.0,66.0,57.0,17.5,41.5,8.5,3.5,21.02379604162864,20.09975124224178,20.0,60.0,70.0,62.07253821135398,318.8306760648981,311.57984530453825,297.37854663711033,277.2183255125822
182,11,182,0,7.590916666666652,15.297058540778355,96.51942809610924,15.132745950421556,33.06055050963308,25.079872407968907,29.068883707497267,45.044422518220834,108.37435120913067,75.32595834106593,67.5,68.0,58.0,18.0,45.0,11.0,5.0,20.0,19.026297590440446,19.5,66.0,74.0,68.06614430096654,315.767319398319,309.58359129643804,296.33089612796033,275.21991207032966
183,11,183,0,7.632624999999985,26.1725046566048,94.33981132056604,16.1245154965971,32.14031735997639,26.076809620810597,30.01666203960727,44.04543109109048,118.4229707446997,86.28441342444185,73.0,70.0,62.0,22.0,52.0,17.0,8.0,20.024984394500787,19.1049731745428,19.5,66.0,74.0,74.06078584514209,313.84391024839084,307.5873859572268,295.3811097548386,270.22398117117586
184,11,184,0,7.674333333333318,35.12833614050059,95.25754563287887,14.142135623730951,32.14031735997639,27.073972741361768,32.01562118716424,43.04648650006177,124.4025723206719,92.26592003551474,74.5,69.0,62.0,22.5,58.5,23.5,10.5,20.024984394500787,20.09975124224178,20.0,64.0,74.0,67.06713054842886,316.1550252645053,309.8548047069788,296.4877737782791,273.26360899322106
185,11,185,0,7.716041666666651,35.22782990761707,106.07544484940895,15.033296378372908,32.0624390837628,30.01666203960727,35.014282800023196,40.0,122.20065466273084,90.13878188659973,72.5,63.0,59.0,21.0,61.0,26.0,8.0,20.0,19.235384061671343,19.0,66.0,75.0,69.1158447825099,312.84660778087397,306.65289824164387,294.3331445828009,271.1844390815963
186,11,186,0,7.757749999999985,26.076809620810597,116.00431026474836,14.035668847618199,32.0624390837628,30.0,34.058772731852805,38.01315561749642,110.07270324653611,78.02563681252464,65.0,55.0,54.0,16.5,55.5,20.5,3.5,20.0,19.1049731745428,19.0,66.0,73.0,69.06518659932803,314.6362979695763,309.4139621930465,297.2036338943385,275.0654467576762
187,11,187,0,7.799458333333318,18.110770276274835,119.00420160649792,12.041594578792296,30.01666203960727,32.01562118716424,35.014282800023196,37.013511046643494,97.04638066409278,67.02984409947557,58.0,50.0,49.0,12.5,47.5,14.5,1.5,19.0,19.026297590440446,19.0,66.0,70.0,69.02897942168927,318.2263345482269,311.1028768751585,299.04180309782777,279.00716836669267
188,11,188,0,7.841166666666651,17.11724276862369,121.00413216084813,12.0,29.017236257093817,31.0,35.014282800023196,37.013511046643494,95.02105029939419,66.007575322837,57.5,47.0,48.0,10.5,47.5,15.5,0.5,20.024984394500787,18.110770276274835,18.0,66.0,66.0,65.03076195155643,316.0253154416589,309.0016181187406,296.00168918436935,278.044960393099
189,11,189,0,7.882874999999984,15.033296378372908,120.01666550941998,13.0,29.0,31.016124838541646,34.058772731852805,37.013511046643494,94.0,65.0,57.5,47.0,49.0,11.0,46.0,14.0,0.0,19.1049731745428,19.026297590440446,19.0,65.0,63.0,69.0,316.00158227451965,308.00162337234525,296.0152023123137,279.06450867138227
190,11,190,0,7.924583333333317,14.035668847618199,121.06609764917675,12.0,28.0,31.016124838541646,34.058772731852805,38.01315561749642,92.0,64.0,57.0,45.0,49.0,9.0,45.0,14.0,2.0,19.1049731745428,18.0,18.5,66.0,61.0,64.07027391856539,311.00160771288625,305.026228380446,292.04280508172087,276.06520968785617
191,11,191,0,7.966291666666651,13.038404810405298,121.03718436910205,12.0,27.018512172212592,31.0,34.0147027033899,38.0,90.0,63.00793600809346,56.5,45.0,48.0,8.5,43.5,14.5,1.5,19.1049731745428,18.027756377319946,18.5,66.0,60.0,63.0317380372777,312.01442274356486,305.0147537415199,293.027302482209,277.04512267859906
192,11,192,0,8.007999999999985,13.038404810405298,120.03749414245534,12.0,27.018512172212592,31.016124838541646,33.015148038438355,38.0,90.0,63.00793600809346,56.5,45.0,48.0,8.5,43.5,13.5,2.5,19.026297590440446,19.0,19.5,65.0,59.0,62.07253821135398,313.0399335548102,305.04098085339285,293.04265901059523,278.0647406630334
193,11,193,0,8.049708333333319,14.035668847618199,120.01666550941998,12.0,26.0,31.016124838541646,33.015148038438355,37.0,89.00561780022652,63.00793600809346,56.0,45.0,47.0,9.0,43.0,14.0,2.0,19.026297590440446,18.0,18.5,65.0,59.0,60.03332407921454,313.01437666663173,305.026228380446,293.01535795927146,278.0287754891569
194,11,194,0,8.091416666666653,15.0,119.01680553602503,12.0,27.0,32.0,34.0147027033899,38.0,92.0,65.0,57.5,47.0,49.0,10.0,44.0,15.0,0.0,18.110770276274835,17.0,18.0,64.0,59.0,64.07027391856539,314.02547667346994,306.04084694693944,294.0425139329345,279.0447992706547
195,11,195,0,8.133124999999987,23.0,119.0,11.0,27.0,32.01562118716424,35.0,39.01281840626232,100.00499987500625,73.00684899377592,61.5,51.0,51.0,12.0,49.0,19.0,2.0,19.026297590440446,18.0,18.0,65.0,60.0,65.03076195155643,312.00160255998685,304.00657887618155,292.0068492347397,277.01624501101014
196,11,196,0,8.174833333333321,24.0,119.0,12.0,27.0,34.0,38.0,39.01281840626232,102.00490184299969,75.0066663703967,63.0,53.0,53.0,14.0,49.0,19.0,4.0,19.026297590440446,19.0,19.0,62.0,58.0,66.007575322837,311.0064308016797,305.00655730656024,293.00170647967224,277.01624501101014
197,11,197,0,8.216541666666656,22.0,119.00420160649792,12.041594578792296,28.0,33.0,36.0,38.0,100.00499987500625,72.00694410957877,61.0,53.0,52.0,14.5,47.5,17.5,4.5,18.027756377319946,18.0,18.0,62.0,57.0,64.03124237432849,309.00647242412253,303.014851121195,291.00171820798585,276.00724628168734
198,11,198,0,8.25824999999999,22.0,118.01694793545543,11.045361017187261,25.0,33.0,35.014282800023196,37.0,95.00526301210897,70.00714249274856,59.0,53.0,51.0,15.0,43.0,16.0,5.0,19.026297590440446,18.027756377319946,18.5,61.0,56.0,62.00806399170998,312.00160255998685,304.00164473239283,291.0068727710739,276.00724628168734
199,11,199,0,8.299958333333324,24.0,116.01724009818541,12.041594578792296,25.0,31.016124838541646,34.0,35.014282800023196,96.0,71.0,59.0,53.0,51.0,17.0,44.0,17.0,7.0,21.02379604162864,20.024984394500787,19.5,63.0,59.0,64.03124237432849,310.0016128990299,303.0,291.00171820798585,276.0018115882575
200,11,200,0,8.341666666666658,18.027756377319946,113.01769772916099,13.038404810405298,28.0,31.016124838541646,35.0,37.0,96.02083107326243,68.0294054067798,59.0,55.0,53.0,17.0,42.0,12.0,6.0,19.026297590440446,18.027756377319946,18.0,63.0,56.0,63.0317380372777,311.01446911679204,304.00164473239283,293.0,277.0072201225087
201,11,201,0,8.383374999999992,1.4142135623730951,111.0,14.0,22.0,29.017236257093817,31.0,45.0,82.00609733428362,60.00833275470999,59.5,53.0,53.0,8.0,29.0,5.0,3.0,20.024984394500787,18.027756377319946,18.5,56.0,50.0,58.034472514187634,311.01446911679204,304.00657887618155,291.0,275.0
202,11,202,0,8.425083333333326,3.0,110.00454536063498,14.0,23.0,28.0,30.0,45.0,85.0,62.0,60.5,55.0,56.0,10.5,29.5,4.5,1.5,19.1049731745428,19.0,19.5,62.0,55.0,59.033888572581766,310.1032086257735,304.04111564063174,291.0154635066666,276.00724628168734
203,11,203,0,8.46679166666666,16.0312195418814,110.01818031580054,14.0,28.0178514522438,31.0,33.0,43.04648650006177,101.01980003939822,73.00684899377592,65.0,57.0,59.0,15.0,43.0,13.0,2.0,19.026297590440446,19.0,19.0,64.0,57.0,63.0317380372777,309.16176995223714,303.10559216220344,291.06184909740404,274.0456166407337
204,11,204,0,8.508499999999994,16.0312195418814,110.0,14.035668847618199,29.017236257093817,31.016124838541646,34.0,39.0,98.00510190801293,69.0,61.0,57.0,57.0,18.0,41.0,10.0,5.0,19.1049731745428,19.026297590440446,19.5,63.0,58.0,67.02984409947557,309.04045042680093,303.0264014900352,290.0068964697219,273.00183149568795
205,11,205,0,8.550208333333329,12.0,107.00467279516349,13.0,29.0,30.0,32.0,39.0,93.0,64.0,58.0,57.0,56.0,17.5,36.5,5.5,5.5,18.110770276274835,18.0,18.0,62.0,57.0,67.00746227100382,310.0258053775524,302.00662244394573,290.0017241328058,273.0
206,11,206,0,8.591916666666663,10.04987562112089,104.01922899156675,13.0,25.0,29.0,32.0624390837628,39.01281840626232,87.0,62.0,57.0,56.0,54.0,16.0,32.0,5.0,4.0,19.1049731745428,18.0,18.5,61.0,57.0,62.0,308.0259729308553,301.0265768997814,289.0017300986276,273.00183149568795
207,11,207,0,8.633624999999997,9.055385138137417,104.04326023342406,14.0,25.0,28.0178514522438,31.016124838541646,38.01315561749642,86.0,61.0,56.5,58.0,55.0,18.5,29.5,3.5,6.5,19.1049731745428,18.0,18.5,62.0,58.0,59.07622195096772,306.0261426741186,299.015049788468,288.00694436072195,272.0
208,11,208,0,8.675333333333331,9.055385138137417,104.01922899156675,15.0,25.0,29.017236257093817,32.01562118716424,38.0,87.00574693662483,62.00806399170998,57.5,57.0,55.0,18.0,31.0,5.0,5.0,19.026297590440446,19.0,19.5,62.0,57.0,62.03224967708329,307.02605752606735,300.00666659259423,288.00173610587836,272.0018382290826
209,11,209,0,8.717041666666665,13.038404810405298,106.04244433244644,14.0,26.019223662515376,29.0,32.01562118716424,37.013511046643494,90.00555538409837,64.0,57.5,58.0,55.0,19.5,33.5,5.5,6.5,19.026297590440446,19.0,19.0,62.0,57.0,61.00819617067857,307.01465763054375,300.00166666203705,288.00173610587836,271.0018450121696
210,11,210,0,8.75875,16.0312195418814,106.01886624558857,12.0,26.019223662515376,29.0,32.0,37.0,91.02197536858887,65.00769185258002,57.0,57.0,55.0,19.0,35.0,8.0,8.0,19.1049731745428,19.0,19.5,64.0,58.0,64.07027391856539,307.05862632402955,300.0266654815868,287.0017421549911,271.0
211,11,211,0,8.800458333333333,16.0312195418814,109.00458705944443,12.0,26.019223662515376,31.0,33.015148038438355,37.013511046643494,91.00549433962765,65.0,57.0,56.0,55.0,18.5,35.5,7.5,7.5,20.09975124224178,19.0,19.5,63.0,56.0,60.07495318350236,309.0582469373694,300.0266654815868,287.01567901423084,271.0073799733136
212,11,212,0,8.842166666666667,20.0,112.0,12.0,26.019223662515376,31.0,34.0,36.013886210738214,94.0,68.00735254367721,58.0,54.0,54.0,18.0,40.0,12.0,7.0,20.024984394500787,19.0,19.0,64.0,57.0,63.071388124885914,306.0588178765644,299.02675465583343,286.0069929215018,269.0018587296378
213,11,213,0,8.883875000000002,22.0,106.0,11.0,28.0,30.01666203960727,33.0,40.01249804748511,101.00495037373169,73.00684899377592,62.0,58.0,58.0,18.0,43.0,13.0,8.0,20.09975124224178,19.0,19.0,64.0,58.0,64.1248781675256,308.0146100430952,300.01499962501873,288.00694436072195,271.0073799733136
214,11,214,0,8.925583333333336,12.041594578792296,97.02061636580135,12.0,27.0,26.0,28.0178514522438,44.01136216933077,95.0,68.0,62.0,60.0,58.0,15.0,36.0,7.0,4.0,21.095023109728988,19.026297590440446,19.5,68.0,62.0,65.06919393998976,307.02605752606735,300.04166377354994,289.0432493589843,270.0296280040396
215,11,215,0,8.96729166666667,9.055385138137417,95.0,12.0,27.0,25.0,28.0,44.0,92.00543462209176,65.00769185258002,60.5,60.0,60.0,16.0,32.0,3.0,5.0,21.095023109728988,19.0,19.5,67.0,60.0,59.07622195096772,308.00649343804423,300.01499962501873,289.0155705148081,271.01660465735307
216,11,216,0,9.009000000000004,4.47213595499958,99.00505037623081,13.0,26.019223662515376,25.0,27.0,47.0,90.0499861188218,64.03124237432849,62.0,60.0,59.0,12.5,30.5,2.5,0.5,21.095023109728988,20.0,20.5,66.0,61.0,62.03224967708329,307.001628660175,300.00166666203705,287.0069685565143,269.0167281044062
217,11,217,0,9.050708333333338,3.605551275463989,104.00480758118829,13.0,22.0,25.0,28.0,48.010415536631214,86.00581375697809,64.00781202322104,62.5,58.0,57.0,9.5,28.5,4.5,1.5,23.08679276123039,23.0,22.5,63.0,58.0,57.0350769263968,307.02605752606735,299.04180309782777,285.0631508981826,269.09106265351886
218,11,218,0,9.092416666666672,5.0990195135927845,110.01818031580054,15.0,25.0,28.0,31.0,43.01162633521314,88.0,63.0,60.5,55.0,57.0,13.0,32.0,4.0,0.0,22.090722034374522,21.0,21.0,63.0,60.0,58.008620049092706,306.08005488760614,299.0819285747636,287.1114766079545,271.1180554666177
219,11,219,0,9.134125000000006,10.04987562112089,112.04017136723775,14.0,29.017236257093817,29.017236257093817,33.015148038438355,39.01281840626232,92.00543462209176,63.0,58.0,52.0,55.0,14.5,38.5,7.5,1.5,20.09975124224178,19.0,19.5,62.0,54.0,54.037024344425184,305.1048999934285,299.1070042643602,287.14108030722457,272.1488563268271
220,11,220,0,9.17583333333334,14.0,115.00434774390054,13.0,31.0,33.0,36.0,39.01281840626232,97.0051545022222,66.007575322837,59.0,53.0,54.0,14.5,43.5,10.5,3.5,7.0710678118654755,7.0,7.0,45.0,41.0,44.0,307.1042168385188,301.1345214351885,287.14108030722457,272.1488563268271
221,11,221,0,9.217541666666676,19.0,117.00427342623003,12.0,27.018512172212592,33.0,36.0,39.0,97.0051545022222,70.0,60.5,52.0,53.0,13.5,44.5,14.5,3.5,6.082762530298219,5.0,5.5,45.0,41.0,42.01190307520001,303.0594001181947,297.0824801296771,286.08565151017274,272.1176216271192
222,11,222,0,9.259250000000009,16.0312195418814,117.0,13.0,27.0,33.0,35.0,39.0,95.00526301210897,68.00735254367721,60.0,52.0,52.0,13.0,43.0,13.0,2.0,9.0,9.0,8.5,50.0,45.0,46.010868281309364,305.08031729365956,298.08220342717544,288.0624932197873,273.0897288438362
223,11,223,0,9.300958333333345,14.142135623730951,118.0,12.0,27.0,33.0,36.013886210738214,39.01281840626232,92.04890004774636,65.06919393998976,58.0,52.0,52.0,13.0,40.0,10.0,3.0,11.045361017187261,10.04987562112089,10.5,50.0,44.0,50.039984012787215,307.04071391266666,299.06019460971396,287.06271091871196,274.11676344215067
224,11,224,0,9.342666666666675,15.132745950421556,118.01694793545543,12.0,27.0,33.015148038438355,36.0,39.01281840626232,93.04837451562494,66.06814663663572,58.5,53.0,51.0,13.0,41.0,12.0,3.0,13.038404810405298,14.0,14.0,56.0,53.0,56.0,309.00647242412253,302.0149002946709,289.0276803352925,275.0654467576762
225,11,225,0,9.384375000000013,18.027756377319946,121.01652779682617,12.0,28.0178514522438,33.0,36.0,40.049968789001575,98.08159868191383,70.06425622241343,61.0,53.0,51.0,12.0,46.0,15.0,2.0,17.029386365926403,16.0,16.0,60.0,60.0,60.0,310.00645154577023,303.00165016052307,291.0,274.00182481144174
226,11,226,0,9.426083333333343,21.02379604162864,122.0,12.041594578792296,31.0,34.0,37.0,41.012193308819754,105.04284840006957,74.06078584514209,63.5,55.0,55.0,14.0,50.0,17.0,3.0,18.027756377319946,17.0,17.0,64.0,60.0,66.06814663663572,310.0,304.00164473239283,291.0068727710739,274.0072991728505
227,11,227,0,9.46779166666668,25.019992006393608,122.00409829181969,14.0,31.0,34.0,38.0,41.012193308819754,111.01801655587259,80.02499609497022,67.5,55.0,56.0,14.5,55.5,21.5,2.5,17.029386365926403,17.0,17.0,66.0,61.0,67.00746227100382,310.0016128990299,304.0148022712052,293.027302482209,273.02930245671433
228,11,228,0,9.509500000000012,29.068883707497267,121.00413216084813,13.0,30.0,35.014282800023196,38.0,40.0,112.01785571952357,82.02438661763951,67.5,54.0,55.0,14.5,57.5,23.5,3.5,18.027756377319946,17.029386365926403,17.0,68.0,62.0,69.02897942168927,311.0401903291599,304.059204761178,291.06184909740404,272.0900586203031
229,11,229,0,9.551208333333348,32.01562118716424,121.0,11.0,28.0,35.014282800023196,39.0,41.012193308819754,112.01785571952357,84.02380615040002,68.0,55.0,55.0,14.0,57.0,26.0,5.0,18.110770276274835,18.0,18.0,68.0,61.0,72.02777242147643,309.01456276363416,301.0265768997814,289.0276803352925,271.01660465735307
230,11,230,0,9.592916666666682,25.019992006393608,119.0,11.0,31.016124838541646,34.0147027033899,38.0,40.0,107.01868995647442,76.00657866263946,63.5,56.0,56.0,16.0,51.0,17.0,6.0,19.1049731745428,17.0,17.5,69.0,61.0,72.02777242147643,312.04006153056696,304.059204761178,291.06184909740404,274.0456166407337
231,11,231,0,9.634625000000016,20.024984394500787,114.00438588054409,12.0,29.0,33.015148038438355,35.014282800023196,39.01281840626232,100.0199980003999,71.02816342831905,61.0,56.0,55.0,16.5,44.5,12.5,5.5,19.1049731745428,18.0,18.0,66.0,58.0,66.06814663663572,313.0399335548102,305.05901068481813,292.04280508172087,274.0656855573131
232,11,232,0,9.67633333333335,19.026297590440446,108.00462953040486,11.0,28.0,30.01666203960727,33.015148038438355,38.0,96.00520819205592,68.00735254367721,58.5,55.0,54.0,16.5,41.5,10.5,6.5,18.027756377319946,18.0,18.0,65.0,58.0,66.03029607687671,312.07851576165893,305.05901068481813,292.0616373302047,276.08875384557047
233,11,233,0,9.718041666666684,16.0,106.00471687618433,13.0,30.0,30.01666203960727,34.0,36.013886210738214,95.00526301210897,65.00769185258002,57.0,55.0,56.0,19.5,39.5,6.5,7.5,18.110770276274835,18.0,18.0,63.0,59.0,60.03332407921454,311.07876816009156,305.1048999934285,292.083892058429,275.11633902769205
234,11,234,0,9.759750000000018,21.0,105.00476179678711,12.0,29.0,31.0,35.0,36.0,98.0,69.0,58.5,56.0,57.0,20.5,41.5,9.5,9.5,19.1049731745428,18.0,18.0,67.0,57.0,64.1248781675256,312.1297807002722,305.1048999934285,292.1095684841563,275.0890764825096
235,11,235,0,9.801458333333352,16.0,101.00495037373169,14.0,30.0,29.017236257093817,32.01562118716424,37.0,97.0,67.0,59.0,58.0,59.0,21.5,38.5,5.5,8.5,19.1049731745428,18.0,18.0,67.0,56.0,63.12685640834652,310.16124838541646,303.1336338976591,291.1391419922783,273.11719096387907
236,11,236,0,9.843166666666686,5.0990195135927845,95.00526301210897,14.0,28.0,24.0,27.018512172212592,42.0,89.00561780022652,61.00819617067857,58.5,57.0,56.0,14.5,32.5,2.5,1.5,19.1049731745428,18.0,18.5,61.0,52.0,54.037024344425184,310.3626910567699,303.3232599059953,290.2481696755382,273.18308878845335
237,11,237,0,9.88487500000002,4.123105625617661,93.02150289046077,14.0,26.0,24.020824298928627,27.018512172212592,44.01136216933077,88.02272433866155,62.03224967708329,60.0,59.0,57.0,14.0,30.0,2.0,2.0,20.09975124224178,19.0,19.0,66.0,56.0,60.13318551349163,309.23292192132453,301.20092961343926,288.1405906844782,272.0900586203031
238,11,238,0,9.926583333333356,4.123105625617661,94.0,15.0,27.018512172212592,24.0,27.0,44.0,90.0222194794152,63.00793600809346,61.0,59.0,59.0,15.0,31.0,2.0,2.0,19.1049731745428,19.0,19.0,66.0,57.0,62.07253821135398,307.19700519373555,300.1666203960727,288.1110896859057,271.0903908293321
239,11,239,0,9.968291666666689,12.0,100.0,15.033296378372908,28.0178514522438,28.0178514522438,31.016124838541646,41.012193308819754,96.00520819205592,68.0,62.0,60.0,60.0,19.0,36.0,7.0,5.0,20.09975124224178,19.0,19.0,66.0,59.0,61.032778078668514,307.13189349203054,299.1070042643602,286.0629301395062,269.0669061776271
240,11,240,0,10.010000000000025,17.029386365926403,105.00476179678711,14.0,28.0178514522438,29.017236257093817,32.0,38.01315561749642,97.0051545022222,69.0,60.5,57.0,58.0,19.5,39.5,9.5,6.5,20.024984394500787,19.0,19.5,68.0,60.0,63.12685640834652,306.04084694693944,299.02675465583343,287.0278732109479,269.0074348414928
241,11,241,0,10.051708333333355,16.0312195418814,107.01868995647442,13.038404810405298,27.0,30.01666203960727,33.015148038438355,38.0,94.02127418834527,67.02984409947557,59.0,55.0,57.0,18.0,38.0,9.0,6.0,18.110770276274835,18.0,18.5,67.0,58.0,63.198101237299845,308.0405817420815,300.0266654815868,287.01567901423084,268.01679051880313
242,11,242,0,10.093416666666691,15.033296378372908,109.00458705944443,12.041594578792296,28.0178514522438,30.0,33.015148038438355,37.013511046643494,92.02173656261873,64.00781202322104,56.5,54.0,55.0,17.5,37.5,7.5,6.5,19.1049731745428,19.0,19.0,67.0,60.0,65.06919393998976,304.00657887618155,298.00167784762556,285.00175438056516,267.0
243,11,243,0,10.135125000000023,14.142135623730951,107.0,12.041594578792296,26.019223662515376,29.017236257093817,32.0624390837628,37.013511046643494,89.05054744357274,63.0317380372777,56.0,52.0,52.0,15.0,37.0,8.0,4.0,20.09975124224178,19.0,19.5,66.0,62.0,65.03076195155643,304.0148022712052,298.0067113338221,285.00175438056516,266.0
244,11,244,0,10.17683333333336,4.123105625617661,104.01922899156675,12.041594578792296,24.020824298928627,27.0,29.0,40.01249804748511,80.09993757800315,56.08029957123981,54.0,51.0,49.0,10.0,30.0,5.0,0.0,20.024984394500787,20.024984394500787,19.5,64.0,65.0,63.00793600809346,304.0148022712052,298.0067113338221,286.00174824640493,269.0018587296378
245,11,245,0,10.218541666666694,2.23606797749979,98.02040603874276,10.0,20.0,26.0,27.018512172212592,43.04648650006177,74.10802925459562,54.147945482723536,53.5,51.0,49.0,7.0,24.0,2.0,1.0,21.095023109728988,20.024984394500787,20.0,64.0,65.0,59.00847396772772,304.0263146505578,298.0067113338221,285.0,267.01685340067957
246,11,246,0,10.260250000000028,2.23606797749979,90.08884503644167,11.0,20.024984394500787,23.021728866442675,25.019992006393608,44.04543109109048,76.16429609731846,56.142675390472796,55.5,54.0,50.0,8.0,24.0,3.0,0.0,21.095023109728988,20.024984394500787,20.0,67.0,65.0,61.00819617067857,301.0066444449358,296.00168918436935,283.0070670495703,263.0171097096157
247,11,247,0,10.301958333333362,1.4142135623730951,90.08884503644167,11.0,23.021728866442675,24.020824298928627,26.076809620810597,45.044422518220834,80.09993757800315,57.07889277132134,56.5,54.0,50.0,7.0,28.0,4.0,1.0,21.095023109728988,21.095023109728988,20.5,68.0,67.0,63.00793600809346,301.0016611249845,295.0,282.0070921094007,263.00760445279906
248,11,248,0,10.343666666666696,3.1622776601683795,92.13576938409967,13.038404810405298,26.019223662515376,24.08318915758459,26.019223662515376,44.04543109109048,86.14522621712709,60.13318551349163,58.5,56.0,51.0,9.5,32.5,5.5,0.5,21.095023109728988,19.026297590440446,19.5,65.0,64.0,61.032778078668514,304.1052449399714,298.0603965641863,283.01590061337544,264.0018939326004
249,11,249,0,10.38537500000003,14.142135623730951,93.1933474020544,12.041594578792296,28.071337695236398,27.073972741361768,30.01666203960727,41.048751503547585,95.25754563287887,67.1863081289633,60.0,58.0,52.0,14.0,40.0,10.0,5.0,20.09975124224178,20.024984394500787,19.5,66.0,64.0,64.03124237432849,301.10629352439645,295.0610106401725,282.0159569953445,264.0018939326004
250,11,250,0,10.427083333333364,14.142135623730951,97.25224933131366,13.038404810405298,31.016124838541646,29.068883707497267,31.016124838541646,38.05259518088089,96.18731725128839,65.19202405202648,58.0,58.0,51.0,16.5,41.5,9.5,5.5,21.095023109728988,19.026297590440446,19.5,65.0,64.0,63.0317380372777,304.13319450530224,296.10808837314795,283.0282671395209,264.0075756488817
251,11,251,0,10.468791666666698,15.033296378372908,96.18731725128839,12.041594578792296,28.0178514522438,28.071337695236398,31.064449134018133,39.05124837953327,94.13288479590966,66.12110101926616,58.5,57.0,51.0,15.0,40.0,10.0,5.0,21.095023109728988,19.026297590440446,19.5,63.0,63.0,62.03224967708329,304.0263146505578,296.00675667964066,283.0017667789373,263.0304164920856
252,11,252,0,10.510500000000032,10.198039027185569,97.12878049270464,13.0,29.0,28.0178514522438,30.01666203960727,40.049968789001575,92.0869154657707,63.12685640834652,58.0,55.0,50.0,12.5,39.5,8.5,1.5,21.095023109728988,20.024984394500787,20.0,66.0,61.0,62.00806399170998,304.00164473239283,297.0151511286924,283.01590061337544,264.04734423962685
253,11,253,0,10.552208333333366,9.055385138137417,97.082439194738,13.038404810405298,30.01666203960727,27.018512172212592,30.066592756745816,37.05401462729781,89.1403387922662,59.135437767890075,54.5,53.0,49.0,14.0,38.0,7.0,3.0,21.095023109728988,19.026297590440446,19.5,66.0,60.0,62.03224967708329,306.00653587791226,298.0067113338221,285.0157890363269,268.02984908401527
254,11,254,0,10.5939166666667,10.04987562112089,95.08417323613851,15.033296378372908,32.01562118716424,27.073972741361768,30.066592756745816,38.05259518088089,95.13148795220224,63.12685640834652,58.0,57.0,53.0,17.0,40.0,6.0,5.0,22.090722034374522,21.0,20.5,70.0,60.0,64.19501538281614,305.0147537415199,299.0066888883926,287.0017421549911,267.0074905316328
255,11,255,0,10.635625000000037,26.076809620810597,92.04890004774636,14.0,32.0,27.018512172212592,31.016124838541646,40.01249804748511,112.04017136723775,80.05623023850174,67.0,64.0,61.0,22.5,49.5,15.5,9.5,22.090722034374522,20.0,20.5,70.0,60.0,64.28063471995279,306.00653587791226,300.00166666203705,287.0069685565143,265.0075470623431
256,11,256,0,10.677333333333369,36.013886210738214,96.08329719571451,14.0,29.017236257093817,27.018512172212592,31.064449134018133,40.0,119.01680553602503,90.00555538409837,72.0,66.0,62.0,24.0,55.0,24.0,12.0,22.090722034374522,21.0,21.5,66.0,62.0,61.07372593840988,306.0016339825655,301.0016611249845,287.0069685565143,266.0018796926067
257,11,257,0,10.719041666666705,32.01562118716424,103.04368005850722,14.0,30.01666203960727,29.017236257093817,33.015148038438355,38.01315561749642,114.03946685248927,84.02380615040002,68.0,61.0,58.0,21.5,54.5,21.5,9.5,23.08679276123039,21.02379604162864,21.5,66.0,63.0,61.032778078668514,309.00647242412253,303.00660058817203,291.0,273.00183149568795
258,11,258,0,10.760750000000035,22.02271554554524,108.04165863221463,13.038404810405298,31.016124838541646,30.01666203960727,33.06055050963308,39.0,105.04284840006957,74.02702209328699,63.0,56.0,53.0,15.5,50.5,17.5,4.5,22.02271554554524,20.024984394500787,20.0,66.0,61.0,66.06814663663572,312.04006153056696,304.0263146505578,291.02749011047047,272.01654361453825
259,11,259,0,10.802458333333371,18.027756377319946,114.0175425099138,11.045361017187261,31.016124838541646,32.0,35.014282800023196,38.0,98.04590761474952,67.02984409947557,58.0,52.0,50.0,13.0,47.0,14.0,3.0,21.095023109728988,20.024984394500787,20.0,67.0,60.0,65.12296062065974,315.07776817795315,307.05862632402955,293.0614270080592,274.0456166407337
260,11,260,0,10.844166666666704,24.020824298928627,117.06835610018618,12.041594578792296,29.0,32.01562118716424,36.013886210738214,37.013511046643494,102.04410811016969,73.06161783043132,61.0,52.0,48.0,13.0,52.0,21.0,4.0,21.095023109728988,20.024984394500787,20.0,66.0,61.0,69.06518659932803,313.12936623702353,305.1048999934285,293.1091946698363,276.06520968785617
261,11,261,0,10.88587500000004,28.0178514522438,116.06894502837527,12.041594578792296,28.0178514522438,32.01562118716424,36.05551275463989,36.013886210738214,104.0768946500615,76.05918747922567,62.0,53.0,49.0,15.0,53.0,23.0,5.0,21.02379604162864,20.0,20.5,65.0,60.0,67.06713054842886,312.10254725009855,304.08058142538465,292.0616373302047,273.02930245671433
262,11,262,0,10.927583333333374,28.0178514522438,116.06894502837527,12.041594578792296,27.073972741361768,32.01562118716424,35.05709628591621,37.05401462729781,104.17293314484334,77.10382610480494,63.0,54.0,50.0,15.0,52.0,22.0,5.0,21.02379604162864,19.0,19.5,65.0,61.0,69.18092222571191,310.16124838541646,304.13319450530224,291.1391419922783,273.0897288438362
263,11,263,0,10.969291666666708,7.280109889280518,112.11155159036913,13.038404810405298,25.019992006393608,29.017236257093817,31.064449134018133,46.17358552246078,91.35097153287424,66.37017402418047,62.5,56.0,51.0,7.5,37.5,10.5,3.5,22.090722034374522,19.1049731745428,20.0,64.0,63.0,64.00781202322104,308.1038785864274,301.1345214351885,290.13962156175774,274.0656855573131
264,11,264,0,11.011000000000042,2.23606797749979,110.07270324653611,13.0,19.026297590440446,27.073972741361768,29.068883707497267,48.16637831516918,81.30190649671138,62.289646009589745,61.5,54.0,50.0,4.0,29.0,8.0,6.0,21.095023109728988,19.026297590440446,19.5,64.0,60.0,65.06919393998976,308.0795351853154,303.1336338976591,291.1391419922783,276.181100005051
265,11,265,0,11.052708333333376,2.23606797749979,109.07336980216573,15.0,24.020824298928627,28.071337695236398,30.066592756745816,46.09772228646444,87.14355971613737,63.12685640834652,62.0,56.0,52.0,8.0,33.0,8.0,4.0,20.09975124224178,19.026297590440446,19.5,64.0,58.0,67.06713054842886,309.04045042680093,304.059204761178,292.0616373302047,277.04512267859906
266,11,266,0,11.09441666666671,11.40175425099138,109.04127658827184,15.0,28.0,29.068883707497267,32.0624390837628,44.04543109109048,98.12746812182611,70.178344238091,64.5,58.0,55.0,12.5,41.5,12.5,0.5,21.095023109728988,18.0,19.0,67.0,59.0,71.11258679024411,307.01465763054375,301.01494979485653,290.02758489495443,273.00732590903124
267,11,267,0,11.136125000000044,12.165525060596439,108.04165863221463,13.0,28.0,29.068883707497267,31.064449134018133,45.044422518220834,98.08159868191383,70.11419257183242,64.0,58.0,55.0,11.5,41.5,11.5,0.5,21.02379604162864,18.027756377319946,18.5,66.0,58.0,67.06713054842886,308.00649343804423,302.0149002946709,290.0068964697219,274.0072991728505
268,11,268,0,11.177833333333378,7.0710678118654755,107.0420478129973,13.0,25.0,28.0178514522438,30.01666203960727,44.10215414239989,89.08984229416954,64.1248781675256,60.5,56.0,53.0,10.5,34.5,8.5,0.5,21.095023109728988,19.0,19.5,65.0,57.0,64.07027391856539,305.0147537415199,299.015049788468,287.01567901423084,271.0073799733136
269,11,269,0,11.219541666666712,11.045361017187261,108.04165863221463,15.0,26.0,30.0,33.015148038438355,40.049968789001575,92.04890004774636,66.06814663663572,60.5,56.0,53.0,14.5,37.5,9.5,1.5,20.09975124224178,18.0,18.5,65.0,59.0,65.12296062065974,308.00162337234525,300.0,288.00173610587836,271.0
270,11,270,0,11.261250000000048,16.0312195418814,109.01834707974616,14.0,30.0,31.0,34.0,39.01281840626232,99.02019995940222,69.02897942168927,61.0,56.0,54.0,16.0,44.0,12.0,3.0,20.09975124224178,19.026297590440446,19.5,66.0,57.0,66.12110101926616,307.02605752606735,300.0266654815868,287.0435507026765,269.0167281044062
271,11,271,0,11.30295833333338,17.0,111.01801655587259,14.035668847618199,31.016124838541646,30.0,33.015148038438355,37.05401462729781,99.08077512817509,68.06614430096654,59.5,56.0,54.0,18.0,44.0,11.0,5.0,20.09975124224178,19.026297590440446,19.5,62.0,59.0,62.00806399170998,307.04071391266666,300.0599940011997,288.0624932197873,270.0166661522951
272,11,272,0,11.344666666666717,13.038404810405298,109.01834707974616,12.041594578792296,27.018512172212592,30.01666203960727,32.0,40.01249804748511,92.0869154657707,65.06919393998976,58.5,55.0,53.0,14.0,38.0,9.0,4.0,21.095023109728988,20.024984394500787,20.0,63.0,57.0,62.03224967708329,307.00651458886017,301.01494979485653,288.00173610587836,270.0018518455012
273,11,273,0,11.386375000000047,10.04987562112089,108.01851693112621,12.0,24.020824298928627,30.01666203960727,33.0,39.01281840626232,85.05292469985967,61.032778078668514,56.0,53.0,51.0,13.0,33.0,7.0,3.0,20.09975124224178,19.0,19.5,64.0,57.0,60.03332407921454,308.00649343804423,301.0,287.0,270.0
274,11,274,0,11.428083333333385,1.0,108.00462953040486,13.0,23.021728866442675,29.0,30.0,39.05124837953327,76.05918747922567,53.03772242470448,52.5,51.0,50.0,11.5,25.5,0.5,0.5,20.09975124224178,19.0,19.5,65.0,58.0,60.03332407921454,308.00162337234525,300.00166666203705,287.0,270.0
275,11,275,0,11.469791666666715,2.23606797749979,107.07474025184464,12.0,20.024984394500787,29.017236257093817,31.016124838541646,38.05259518088089,71.17583859709698,51.15662224971465,50.5,51.0,47.0,11.0,22.0,0.0,1.0,10.04987562112089,10.04987562112089,10.0,64.0,58.0,58.034472514187634,308.0405817420815,300.01499962501873,288.0,271.0018450121696
276,11,276,0,11.511500000000051,2.23606797749979,106.07544484940895,12.0,22.02271554554524,29.017236257093817,31.064449134018133,38.01315561749642,73.10950690573696,51.088159097779204,50.5,50.0,46.0,10.0,25.0,2.0,0.0,7.0710678118654755,8.06225774829855,7.5,66.0,60.0,57.07889277132134,308.00649343804423,301.0016611249845,288.00694436072195,272.0073528417936
277,11,277,0,11.553208333333384,1.4142135623730951,105.07616285342742,12.0,22.0,30.01666203960727,31.064449134018133,38.05259518088089,73.06161783043132,51.088159097779204,50.5,50.0,46.0,10.0,25.0,1.0,1.0,11.045361017187261,11.045361017187261,11.0,60.0,59.0,56.00892785976178,310.0016128990299,302.00165562460086,287.0069685565143,273.0164830188829
278,11,278,0,11.59491666666672,7.0710678118654755,103.01941564578979,11.0,24.0,30.0,31.016124838541646,36.013886210738214,78.02563681252464,54.037024344425184,50.5,48.0,46.0,11.0,31.0,5.0,2.0,13.038404810405298,13.0,13.0,64.0,58.0,61.032778078668514,311.0,302.0,287.0017421549911,270.0018518455012
279,11,279,0,11.636625000000054,10.04987562112089,99.04544411531506,12.0,27.0,28.0,30.0,35.05709628591621,84.0535543567314,57.07889277132134,52.0,52.0,49.0,15.5,33.5,4.5,4.5,16.1245154965971,14.0,14.5,65.0,57.0,63.071388124885914,307.0,299.0,286.00174824640493,268.00186566514793
280,11,280,0,11.678333333333388,1.4142135623730951,102.12247548899312,13.038404810405298,24.020824298928627,28.0178514522438,30.066592756745816,42.04759208325728,80.15609770940699,56.142675390472796,55.5,54.0,49.0,9.5,28.5,3.5,1.5,17.029386365926403,16.0312195418814,16.0,63.0,58.0,59.07622195096772,303.0,295.01525384291574,282.04432275796654,266.04698833100895
281,11,281,0,11.720041666666722,3.1622776601683795,98.12746812182611,11.0,20.024984394500787,26.019223662515376,27.16615541441225,43.104524124504614,77.1621668954417,57.14017850864661,55.5,54.0,49.0,8.5,25.5,4.5,0.5,18.027756377319946,16.0312195418814,16.0,63.0,58.0,56.08029957123981,301.0265768997814,293.04265901059523,280.06427833624196,264.09278672466615
282,11,282,0,11.761750000000056,2.23606797749979,97.18538984847466,12.041594578792296,23.021728866442675,25.019992006393608,26.019223662515376,42.04759208325728,79.1580697086532,56.142675390472796,55.0,54.0,48.0,9.0,28.0,3.0,1.0,18.027756377319946,17.0,17.0,64.0,59.0,60.07495318350236,300.0599940011997,293.0614270080592,279.0447992706547,263.04752422328556
283,11,283,0,11.80345833333339,3.605551275463989,98.18350166906862,12.041594578792296,25.019992006393608,27.073972741361768,29.017236257093817,43.01162633521314,83.15046602394962,58.137767414994535,56.5,55.0,49.0,9.0,31.0,5.0,0.0,19.1049731745428,18.027756377319946,18.5,63.0,60.0,58.034472514187634,303.0594001181947,296.10808837314795,282.0868660537034,265.06791582535976
284,11,284,0,11.845166666666724,3.605551275463989,98.2496819333274,13.0,25.019992006393608,26.076809620810597,28.0178514522438,43.04648650006177,84.1486779456457,59.135437767890075,57.5,56.0,49.0,9.5,31.5,5.5,0.5,20.024984394500787,19.026297590440446,19.0,61.0,62.0,56.0,303.1336338976591,297.1363323459452,284.1126537132762,266.0676605677586
285,11,285,0,11.886875000000058,7.280109889280518,100.31948963187563,13.038404810405298,26.076809620810597,27.073972741361768,30.066592756745816,41.012193308819754,87.20665112249179,61.1310068623117,57.5,57.0,49.0,12.0,34.0,6.0,1.0,20.024984394500787,19.1049731745428,19.0,55.0,62.0,52.08646657242167,303.1649715913763,296.16887074775434,283.14307337457507,266.12027356065903
286,11,286,0,11.928583333333393,13.152946437965905,110.11357772772621,14.035668847618199,29.017236257093817,30.01666203960727,33.0,36.013886210738214,92.13576938409967,63.12685640834652,56.5,54.0,49.0,15.5,40.5,10.5,3.5,20.09975124224178,19.1049731745428,19.0,59.0,61.0,55.00909015790027,302.0595967685847,295.0830391601659,283.14307337457507,266.0676605677586
287,11,287,0,11.970291666666729,14.035668847618199,112.11155159036913,14.035668847618199,29.068883707497267,32.01562118716424,35.014282800023196,35.05709628591621,92.19544457292888,63.12685640834652,56.0,53.0,48.0,15.5,41.5,11.5,3.5,20.024984394500787,18.027756377319946,18.0,61.0,58.0,60.03332407921454,299.1070042643602,293.1381926668717,282.177249260106,265.1527861441399
288,11,288,0,12.01200000000006,22.090722034374522,115.15641536623133,12.0,29.017236257093817,33.06055050963308,35.05709628591621,36.124783736376884,99.18165152889924,70.178344238091,59.0,53.0,47.0,14.0,49.0,18.0,4.0,20.024984394500787,19.1049731745428,18.5,57.0,59.0,58.0,301.10629352439645,295.1372562046344,283.17662332897464,266.1522120892479
289,11,289,0,12.053708333333397,28.0178514522438,114.28035701729323,12.041594578792296,29.017236257093817,33.06055050963308,37.12142238654117,37.05401462729781,106.1178590059185,77.10382610480494,63.0,55.0,47.0,14.0,55.0,25.0,5.0,19.026297590440446,17.11724276862369,17.5,62.0,59.0,62.0,300.1666203960727,294.24479604574145,283.2984292226132,264.27258654654287
290,11,290,0,12.095416666666727,36.013886210738214,114.28035701729323,11.0,29.017236257093817,32.0624390837628,36.124783736376884,36.124783736376884,112.11155159036913,83.09632964216891,65.0,56.0,48.0,16.0,60.0,29.0,7.0,19.0,18.027756377319946,17.5,63.0,60.0,61.00819617067857,300.1666203960727,295.24396691549856,284.29737951659,265.228203628498
291,11,291,0,12.137125000000063,38.05259518088089,111.22050170719426,10.04987562112089,29.017236257093817,31.064449134018133,35.05709628591621,36.124783736376884,113.21660655575224,84.2140130857092,65.0,56.0,49.0,16.5,60.5,29.5,9.5,19.026297590440446,18.027756377319946,18.0,61.0,57.0,60.03332407921454,299.2824752637548,293.28825411188905,283.2984292226132,265.228203628498
292,11,292,0,12.178833333333396,22.20360331117452,106.30145812734649,11.045361017187261,26.019223662515376,28.071337695236398,31.064449134018133,38.118237105091836,97.32933781753577,71.34423592694787,60.0,55.0,47.0,13.0,46.0,18.0,4.0,19.026297590440446,18.027756377319946,18.0,60.0,57.0,57.0087712549569,300.2399040767233,294.20571034566956,283.17662332897464,266.1879035568671
293,11,293,0,12.220541666666731,2.23606797749979,103.31021246711285,14.0,22.090722034374522,26.1725046566048,27.16615541441225,43.104524124504614,78.31347265956222,56.22277118748239,56.5,54.0,46.0,7.0,28.0,5.0,3.0,20.09975124224178,18.110770276274835,18.0,59.0,55.0,58.077534382926416,298.24151287169934,292.2892403082946,281.2561110447202,267.1872002922296
294,11,294,0,12.262250000000066,2.8284271247461903,104.23531071570709,13.038404810405298,23.08679276123039,26.1725046566048,28.160255680657446,44.04543109109048,82.29823813423954,59.21148537234985,58.0,55.0,48.0,7.5,30.5,6.5,2.5,21.095023109728988,19.1049731745428,19.0,59.0,59.0,56.00892785976178,301.20092961343926,294.24479604574145,281.2561110447202,265.1527861441399
295,11,295,0,12.3039583333334,6.324555320336759,100.31948963187563,13.038404810405298,25.019992006393608,27.16615541441225,29.154759474226502,43.104524124504614,87.28115489611719,62.289646009589745,59.0,57.0,49.0,10.0,34.0,8.0,1.0,18.027756377319946,16.0312195418814,16.5,64.0,56.0,66.18912297349165,301.04152537482264,292.0616373302047,280.08748633239577,264.09278672466615
296,11,296,0,12.345666666666734,9.055385138137417,100.40418317978589,11.045361017187261,25.019992006393608,25.179356624028344,27.294688127912362,44.28317965096906,89.35882720806042,64.38167441127949,59.5,57.0,48.0,8.5,36.5,10.5,0.5,20.024984394500787,17.029386365926403,17.5,61.0,60.0,57.0087712549569,302.16551755618974,294.20571034566956,281.2561110447202,263.2299375071156
297,11,297,0,12.387375000000068,8.06225774829855,99.60923651951158,12.041594578792296,26.076809620810597,26.1725046566048,29.274562336608895,43.41658669218482,89.56003573022959,63.50590523722971,59.0,59.0,48.0,10.5,35.5,8.5,1.5,18.027756377319946,15.033296378372908,15.5,63.0,57.0,59.07622195096772,302.1340761979688,294.24479604574145,283.2543027034188,266.2273464541162
298,11,298,0,12.429083333333402,9.055385138137417,96.62815324738438,12.0,26.076809620810597,26.30589287593181,29.274562336608895,43.41658669218482,90.44888059008801,64.38167441127949,59.5,61.0,50.0,12.5,34.5,7.5,3.5,20.09975124224178,17.11724276862369,17.0,63.0,57.0,62.12889826803627,299.2824752637548,294.2872746144488,282.3473038652928,265.31867631209076
299,11,299,0,12.470791666666736,12.041594578792296,97.41663102366043,12.0,26.076809620810597,26.1725046566048,29.154759474226502,42.2965719651132,92.34717104492157,66.27216610312357,60.0,60.0,51.0,13.5,36.5,9.5,4.5,21.02379604162864,19.026297590440446,19.0,61.0,61.0,55.036351623268054,302.2383165649253,294.2872746144488,281.30055101261354,263.2736219221364
300,11,300,0,12.51250000000007,13.038404810405298,96.51942809610924,13.0,28.0178514522438,25.079872407968907,28.284271247461902,41.30375285612676,95.25754563287887,67.26812023536856,60.5,61.0,51.0,15.0,39.0,11.0,4.0,19.1049731745428,17.029386365926403,17.0,63.0,60.0,55.08175741568164,301.1345214351885,295.2050135075622,284.2534080710379,266.27053911388697
301,11,301,0,12.554208333333404,9.0,93.34345183246653,13.0,28.0178514522438,25.179356624028344,28.284271247461902,43.41658669218482,93.26306878931231,65.27633568147036,60.5,60.0,52.0,13.0,37.0,9.0,3.0,19.026297590440446,17.029386365926403,17.0,63.0,60.0,57.0087712549569,304.1052449399714,298.1677380267691,285.21220170252184,267.22649569232465
302,11,302,0,12.59591666666674,6.082762530298219,94.19129471453293,13.0,28.0178514522438,24.08318915758459,26.1725046566048,46.2709412050371,93.26306878931231,65.27633568147036,62.0,60.0,54.0,11.0,36.0,7.0,1.0,19.1049731745428,18.027756377319946,18.0,65.0,59.0,59.07622195096772,303.0594001181947,297.0824801296771,286.11186623417075,268.1193763979023
303,11,303,0,12.637625000000073,14.035668847618199,95.13148795220224,13.038404810405298,26.019223662515376,25.079872407968907,27.073972741361768,46.09772228646444,99.18165152889924,73.17103251970687,66.0,62.0,57.0,13.5,39.5,11.5,2.5,20.09975124224178,18.027756377319946,17.5,62.0,57.0,51.03920062069938,304.0263146505578,298.0268444284843,286.04370295463593,267.0468123756582
304,11,304,0,12.679333333333409,25.019992006393608,101.1236866416568,14.0,27.018512172212592,27.018512172212592,30.066592756745816,44.10215414239989,110.11357772772621,83.09632964216891,70.5,64.0,59.0,17.5,48.5,20.5,5.5,18.027756377319946,18.027756377319946,18.0,64.0,58.0,60.07495318350236,304.059204761178,297.0420845604205,285.0438562747845,266.03007348794233
305,11,305,0,12.72104166666674,31.064449134018133,107.11675872616759,14.035668847618199,27.018512172212592,29.068883707497267,33.06055050963308,41.048751503547585,113.1591799192624,86.14522621712709,70.5,62.0,57.0,18.5,53.5,24.5,6.5,20.024984394500787,18.027756377319946,18.0,63.0,59.0,60.03332407921454,306.13232433050905,301.16606714568627,289.1729586251107,268.1510768205118
306,11,306,0,12.762750000000077,29.017236257093817,112.0714058089752,13.038404810405298,28.0178514522438,30.01666203960727,34.058772731852805,40.049968789001575,110.11357772772621,82.09750300709517,67.5,58.0,54.0,16.0,54.0,24.0,5.0,19.026297590440446,18.110770276274835,18.0,63.0,60.0,58.077534382926416,306.1633550900565,300.13496963866106,290.1103238424996,270.06665843824555
307,11,307,0,12.80445833333341,21.02379604162864,114.0701538527936,11.045361017187261,27.018512172212592,32.0624390837628,34.0147027033899,38.05259518088089,97.12878049270464,70.11419257183242,59.5,53.0,49.0,13.0,46.0,18.0,4.0,19.026297590440446,18.027756377319946,18.0,62.0,59.0,62.0,308.1038785864274,302.08111493438315,290.0431002454635,273.02930245671433
308,11,308,0,12.846166666666743,14.035668847618199,117.06835610018618,11.0,27.018512172212592,32.0,34.0147027033899,38.118237105091836,90.13878188659973,63.12685640834652,56.0,50.0,46.0,10.0,42.0,12.0,1.0,19.026297590440446,17.029386365926403,17.0,62.0,60.0,62.00806399170998,310.16124838541646,303.1649715913763,291.1391419922783,276.1159176867571
309,11,309,0,12.887875000000076,15.132745950421556,117.10678887237921,11.0,27.0,31.016124838541646,35.05709628591621,37.12142238654117,90.13878188659973,63.198101237299845,55.5,50.0,45.0,10.5,42.5,13.5,1.5,19.026297590440446,18.027756377319946,18.0,62.0,59.0,62.00806399170998,308.1038785864274,302.105941682715,290.1103238424996,274.0894014733149
310,11,310,0,12.929583333333412,8.06225774829855,113.11056537742175,13.0,28.0178514522438,29.017236257093817,32.01562118716424,40.19950248448356,89.20201791439474,61.204574992397426,57.0,52.0,47.0,9.5,39.5,9.5,1.5,20.09975124224178,19.1049731745428,19.0,63.0,61.0,62.03224967708329,310.0790221862808,303.08084729985825,291.08418026406036,274.0656855573131
311,11,311,0,12.971291666666746,2.23606797749979,110.07270324653611,12.0,22.02271554554524,28.0178514522438,30.066592756745816,46.17358552246078,82.21921916437786,60.207972893961475,59.0,52.0,48.0,4.0,32.0,8.0,5.0,20.09975124224178,18.027756377319946,18.5,61.0,60.0,61.032778078668514,309.16176995223714,301.20092961343926,290.2085457046363,274.14777037211155
312,11,312,0,13.01300000000008,3.1622776601683795,112.04017136723775,12.0,22.02271554554524,28.0178514522438,30.066592756745816,45.09988913511872,82.15229759416349,60.13318551349163,58.5,51.0,48.0,4.5,32.5,8.5,4.5,18.110770276274835,17.029386365926403,17.5,62.0,59.0,58.034472514187634,308.0795351853154,302.105941682715,290.13962156175774,275.11633902769205
313,11,313,0,13.054708333333414,5.0990195135927845,114.00438588054409,12.041594578792296,24.0,31.0,32.01562118716424,44.01136216933077,85.05292469985967,61.07372593840988,58.5,48.0,47.0,3.5,37.5,11.5,6.5,19.1049731745428,17.029386365926403,17.5,62.0,61.0,62.03224967708329,307.1042168385188,301.10629352439645,290.1103238424996,275.02908937056094
314,11,314,0,13.096416666666748,9.219544457292887,116.00431026474836,11.0,25.0,32.0,35.0,42.04759208325728,87.09190547921202,62.12889826803627,57.5,48.0,47.0,5.5,39.5,11.5,3.5,18.110770276274835,16.0312195418814,16.5,62.0,59.0,65.00769185258002,308.0259729308553,300.04166377354994,289.0432493589843,274.0164228654918
315,11,315,0,13.138125000000082,10.04987562112089,119.00420160649792,11.0,26.0,31.0,34.0147027033899,41.012193308819754,88.02272433866155,62.03224967708329,57.0,46.0,47.0,5.5,41.5,12.5,3.5,17.11724276862369,15.0,15.5,62.0,60.0,66.03029607687671,308.0146100430952,301.01494979485653,289.0155705148081,275.00727263110696
316,11,316,0,13.179833333333416,10.198039027185569,121.01652779682617,11.045361017187261,26.0,33.0,36.0,39.01281840626232,86.02325267042627,60.03332407921454,55.0,44.0,46.0,6.0,41.0,12.0,3.0,17.11724276862369,16.0312195418814,16.0,62.0,59.0,65.03076195155643,307.001628660175,301.0016611249845,290.0017241328058,276.0018115882575
317,11,317,0,13.22154166666675,10.0,121.00413216084813,11.0,27.0,31.0,34.0147027033899,39.01281840626232,87.00574693662483,60.00833275470999,55.0,43.0,44.0,4.5,43.5,13.5,4.5,17.11724276862369,17.029386365926403,17.0,62.0,59.0,64.03124237432849,307.02605752606735,301.04152537482264,290.02758489495443,273.0164830188829
318,11,318,0,13.263250000000085,11.180339887498949,121.01652779682617,11.0,26.019223662515376,33.0,35.014282800023196,39.0,87.00574693662483,61.032778078668514,55.5,43.0,45.0,5.0,43.0,13.0,4.0,17.029386365926403,16.0,16.5,60.0,57.0,66.03029607687671,305.0,298.00167784762556,288.00173610587836,273.0
319,11,319,0,13.30495833333342,11.045361017187261,122.01639234135715,11.0,27.018512172212592,32.01562118716424,34.0147027033899,38.01315561749642,87.00574693662483,60.03332407921454,54.5,41.0,43.0,4.0,45.0,15.0,5.0,17.11724276862369,16.0,16.5,61.0,57.0,64.03124237432849,308.0146100430952,300.00666659259423,289.0069203323685,275.0018181758077
320,11,320,0,13.346666666666753,12.041594578792296,121.00413216084813,10.0,26.0,31.0,35.014282800023196,38.01315561749642,86.02325267042627,60.03332407921454,54.0,40.0,41.0,2.5,45.5,16.5,5.5,17.11724276862369,16.0,16.5,61.0,56.0,64.07027391856539,308.00649343804423,301.0066444449358,290.0017241328058,274.0
321,11,321,0,13.388375000000089,11.0,123.01625908797584,11.0,26.0,32.0,34.0,37.013511046643494,85.00588214941364,59.00847396772772,53.5,39.0,41.0,3.0,45.0,17.0,5.0,18.027756377319946,17.0,16.5,61.0,58.0,64.00781202322104,308.00162337234525,300.0,289.0017300986276,274.0072991728505
322,11,322,0,13.43008333333342,4.123105625617661,125.0,11.0,26.0,31.0,33.0,38.01315561749642,79.02531240052139,53.03772242470448,51.0,39.0,39.0,1.0,40.0,12.0,8.0,18.027756377319946,17.0,17.5,59.0,58.0,63.00793600809346,307.0,301.0016611249845,290.0017241328058,275.0
323,11,323,0,13.471791666666755,1.4142135623730951,126.0,11.0,22.0,30.01666203960727,32.01562118716424,39.01281840626232,73.02739212103907,51.03920062069938,50.5,37.0,37.0,2.0,36.0,12.0,10.0,18.027756377319946,17.029386365926403,17.5,60.0,59.0,60.00833275470999,306.01470552899906,299.02675465583343,289.0276803352925,275.0163631495406
324,11,324,0,13.51350000000009,0.0,130.0,11.0,20.024984394500787,31.0,33.015148038438355,39.01281840626232,70.02856560004639,50.00999900019995,50.0,36.0,36.0,3.0,34.0,12.0,12.0,19.026297590440446,17.11724276862369,17.5,59.0,58.0,58.008620049092706,306.04084694693944,300.04166377354994,289.06227702694105,276.02898398537786
325,11,325,0,13.555208333333423,0.0,128.0,12.041594578792296,23.021728866442675,31.016124838541646,33.015148038438355,40.0,75.02666192761077,52.009614495783374,52.0,37.0,37.0,3.0,38.0,13.0,12.0,17.029386365926403,17.029386365926403,17.5,59.0,58.0,62.00806399170998,306.04084694693944,300.0599940011997,290.0431002454635,276.0163038662753
326,11,326,0,13.596916666666758,11.045361017187261,127.00393694685216,12.0,25.0,32.01562118716424,34.0,38.0,86.00581375697809,61.00819617067857,55.5,41.0,40.0,2.5,45.5,17.5,6.5,17.029386365926403,17.11724276862369,17.0,58.0,57.0,58.0,307.02605752606735,300.0266654815868,289.0155705148081,275.00727263110696
327,11,327,0,13.638625000000092,20.0,130.00384609695206,11.045361017187261,26.019223662515376,35.0,38.0,38.01315561749642,95.04735661763561,69.02897942168927,59.0,43.0,42.0,4.5,52.5,23.5,4.5,17.029386365926403,17.029386365926403,17.0,48.0,48.0,52.03844732503075,308.00649343804423,300.01499962501873,289.0155705148081,274.0072991728505
328,11,328,0,13.680333333333426,24.08318915758459,128.01562404644207,11.0,25.0,34.0,37.0,39.01281840626232,99.04544411531506,74.06078584514209,62.0,45.0,43.0,5.0,55.0,27.0,4.0,17.029386365926403,17.029386365926403,17.0,57.0,57.0,62.00806399170998,305.04098085339285,299.06019460971396,289.06227702694105,273.045783706689
329,11,329,0,13.72204166666676,25.019992006393608,128.03515142334936,10.0,26.019223662515376,34.0,38.01315561749642,39.01281840626232,100.04498987955368,74.02702209328699,61.5,47.0,44.0,6.5,54.5,25.5,1.5,16.0312195418814,16.0312195418814,16.5,57.0,59.0,64.00781202322104,306.13232433050905,299.1070042643602,289.0432493589843,274.0164228654918
330,11,330,0,13.763750000000094,27.073972741361768,126.03570922560003,11.0,25.019992006393608,34.0,37.0,38.05259518088089,101.1236866416568,76.10519036176179,62.5,48.0,45.0,8.5,54.5,26.5,0.5,17.029386365926403,16.0312195418814,16.5,56.0,60.0,64.0,304.19894805866767,297.1363323459452,287.0853531617383,271.0461215365385
331,11,331,0,13.805458333333428,26.019223662515376,125.06398362438324,11.045361017187261,26.019223662515376,34.0147027033899,36.013886210738214,38.05259518088089,101.1236866416568,75.1065909225016,62.0,49.0,45.0,9.0,54.0,26.0,1.0,16.0312195418814,16.0312195418814,16.5,56.0,60.0,63.00793600809346,303.27874966769434,296.2043213729334,287.1741631832502,272.06616842231597
332,11,332,0,13.847166666666762,25.019992006393608,124.06449935416659,11.0,26.019223662515376,33.0,36.013886210738214,37.05401462729781,99.08077512817509,73.06161783043132,60.5,48.0,44.0,9.0,53.0,24.0,0.0,16.0,16.0312195418814,16.0,55.0,58.0,60.0,303.37105992497044,296.37982387470305,285.34365246137855,271.2231553536681
333,11,333,0,13.888875000000096,22.02271554554524,122.06555615733703,12.041594578792296,26.019223662515376,33.015148038438355,35.014282800023196,38.05259518088089,98.12746812182611,72.11102550927978,61.0,50.0,46.0,10.0,50.0,21.0,1.0,15.033296378372908,15.033296378372908,15.0,54.0,58.0,64.00781202322104,303.37105992497044,294.2872746144488,283.2543027034188,269.2248131209306
334,11,334,0,13.93058333333343,24.020824298928627,122.06555615733703,11.0,27.018512172212592,33.0,36.013886210738214,38.05259518088089,100.07996802557443,73.06161783043132,61.0,51.0,47.0,11.0,51.0,22.0,1.0,16.0312195418814,16.1245154965971,16.0,41.0,54.0,56.142675390472796,300.60106453570654,293.492759706266,282.3473038652928,267.22649569232465
335,11,335,0,13.972291666666765,24.0,122.06555615733703,12.041594578792296,28.071337695236398,34.0147027033899,37.013511046643494,37.05401462729781,101.1236866416568,73.06161783043132,61.0,52.0,48.0,13.0,51.0,20.0,3.0,16.0,15.132745950421556,15.5,53.0,57.0,61.032778078668514,301.23910768690047,294.24479604574145,282.21445746098834,268.1510768205118
336,11,336,0,14.0140000000001,26.019223662515376,122.10241602851272,12.041594578792296,26.019223662515376,33.0,37.013511046643494,37.05401462729781,101.1236866416568,75.1065909225016,62.0,53.0,48.0,13.5,50.5,22.5,3.5,17.029386365926403,16.0312195418814,16.5,54.0,58.0,63.0,302.42354405700627,295.3811097548386,283.3972476930572,268.26852219371546
337,11,337,0,14.055708333333431,21.02379604162864,121.10326172320876,11.045361017187261,25.019992006393608,32.01562118716424,35.014282800023196,38.05259518088089,95.13148795220224,70.11419257183242,59.5,52.0,47.0,11.5,45.5,18.5,2.5,17.029386365926403,17.029386365926403,16.5,56.0,60.0,63.00793600809346,303.37105992497044,295.3811097548386,285.2963371654112,269.2675249635574
338,11,338,0,14.097416666666769,20.024984394500787,118.15244390193544,13.038404810405298,27.018512172212592,31.016124838541646,35.12833614050059,36.05551275463989,96.13012014972206,69.1158447825099,59.0,52.0,46.0,13.0,47.0,19.0,2.0,16.0312195418814,15.033296378372908,15.5,55.0,59.0,64.00781202322104,302.2796718272666,295.24396691549856,284.29737951659,270.22398117117586
339,11,339,0,14.1391250000001,22.090722034374522,120.26637102698326,12.041594578792296,25.079872407968907,33.06055050963308,35.12833614050059,36.05551275463989,95.25754563287887,70.178344238091,59.0,53.0,45.0,13.0,46.0,19.0,4.0,16.0312195418814,16.0312195418814,16.0,56.0,61.0,66.0,303.42214816983943,296.4321170183825,286.44720281406137,271.3613826615718
340,11,340,0,14.180833333333435,22.02271554554524,121.2023102090055,12.041594578792296,25.079872407968907,33.06055050963308,36.124783736376884,37.05401462729781,96.18731725128839,71.11258679024411,60.0,53.0,46.0,12.5,46.5,19.5,2.5,18.027756377319946,17.11724276862369,17.0,57.0,60.0,65.00769185258002,304.2367499169027,296.33089612796033,285.3944638566067,270.31278179176064
341,11,341,0,14.22254166666677,20.09975124224178,120.20399327809372,12.041594578792296,27.018512172212592,33.06055050963308,35.12833614050059,37.05401462729781,96.18731725128839,69.18092222571191,59.0,52.0,45.0,11.5,47.5,18.5,2.5,17.029386365926403,16.0312195418814,16.5,56.0,59.0,59.00847396772772,306.23520372419625,299.2824752637548,287.29427422070216,272.26457720386617
342,11,342,0,14.264250000000104,20.024984394500787,117.2092146548214,14.035668847618199,30.066592756745816,34.0147027033899,37.013511046643494,36.013886210738214,100.12492197250393,70.06425622241343,60.0,54.0,47.0,14.5,49.5,16.5,2.5,16.0312195418814,16.0312195418814,16.0,57.0,59.0,62.00806399170998,307.2751210234893,300.32648900821255,288.29325347638644,272.31048455760936
343,11,343,0,14.305958333333438,20.024984394500787,114.21471008587291,14.035668847618199,32.01562118716424,32.01562118716424,37.013511046643494,35.014282800023196,101.07917688624102,69.06518659932803,59.0,55.0,48.0,16.5,49.5,15.5,4.5,17.0,16.0312195418814,16.5,60.0,61.0,66.0,309.23292192132453,302.2796718272666,289.29223978530774,272.26457720386617
344,11,344,0,14.347666666666772,17.11724276862369,112.21853679316978,12.0,32.01562118716424,33.015148038438355,37.05401462729781,36.013886210738214,97.082439194738,65.06919393998976,56.5,54.0,47.0,14.5,46.5,12.5,4.5,18.027756377319946,15.033296378372908,15.5,60.0,62.0,63.0317380372777,309.19573088902763,302.2002647252315,289.20926679482454,273.18308878845335
345,11,345,0,14.389375000000106,12.36931687685298,111.28791488746656,12.041594578792296,30.01666203960727,33.06055050963308,36.05551275463989,37.0,91.13725912051558,61.1310068623117,55.0,52.0,44.0,11.0,43.0,11.0,2.0,18.027756377319946,17.029386365926403,17.5,59.0,61.0,66.03029607687671,311.1028768751585,304.1052449399714,292.1095684841563,275.11633902769205
346,11,346,0,14.43108333333344,2.8284271247461903,109.22453936730518,12.0,25.019992006393608,30.01666203960727,32.0624390837628,41.048751503547585,80.15609770940699,55.14526271584895,54.0,50.0,43.0,5.5,33.5,6.5,3.5,18.027756377319946,17.029386365926403,17.5,61.0,60.0,60.03332407921454,317.0394297244429,308.05843601498725,294.0833215264001,276.04528613979267
347,11,347,0,14.472791666666774,3.605551275463989,107.16809226630845,14.035668847618199,26.019223662515376,30.066592756745816,32.0624390837628,41.0,84.09518416651456,58.077534382926416,56.5,52.0,46.0,8.0,35.0,7.0,3.0,18.110770276274835,17.029386365926403,17.0,61.0,60.0,60.07495318350236,316.0569568922665,307.05862632402955,293.0614270080592,276.04528613979267
348,11,348,0,14.514500000000108,8.54400374531753,107.11675872616759,15.0,28.0178514522438,32.0624390837628,34.0147027033899,41.012193308819754,92.04890004774636,64.03124237432849,60.0,54.0,49.0,10.5,40.5,10.5,1.5,18.110770276274835,17.0,17.0,61.0,59.0,66.03029607687671,316.00158227451965,307.00651458886017,294.00680264238787,278.0071941515183
349,11,349,0,14.556208333333442,17.11724276862369,107.07474025184464,13.038404810405298,27.0,32.01562118716424,35.014282800023196,40.01249804748511,97.02061636580135,70.02856560004639,61.5,55.0,51.0,13.0,44.0,15.0,3.0,18.110770276274835,17.0,17.0,61.0,58.0,67.02984409947557,312.0,305.00163933985664,293.0068258590574,278.0071941515183
350,11,350,0,14.597916666666777,15.033296378372908,104.04326023342406,13.0,30.0,30.01666203960727,33.015148038438355,39.0,97.0051545022222,67.00746227100382,59.5,56.0,53.0,15.5,42.5,10.5,4.5,19.1049731745428,18.0,17.5,64.0,59.0,66.12110101926616,312.0256399721023,304.0148022712052,293.01535795927146,277.0018050482704
351,11,351,0,14.63962500000011,14.035668847618199,100.07996802557443,12.041594578792296,28.0,29.0,31.016124838541646,41.0,95.02105029939419,67.02984409947557,60.0,58.0,54.0,15.0,39.0,9.0,4.0,18.110770276274835,18.0,18.0,63.0,56.0,62.07253821135398,311.0401903291599,304.0148022712052,292.0068492347397,275.0
352,11,352,0,14.681333333333445,23.021728866442675,99.04544411531506,13.0,30.0,28.0,32.0,38.0,104.00480758118829,74.00675644831355,62.5,60.0,57.0,20.5,45.5,13.5,8.5,18.110770276274835,18.0,17.5,65.0,58.0,61.1310068623117,312.0256399721023,305.0147537415199,293.0068258590574,273.00183149568795
353,11,353,0,14.72304166666678,19.026297590440446,100.00499987500625,16.0,31.016124838541646,28.0,31.016124838541646,42.0,108.01851693112621,77.00649323271382,67.5,62.0,61.0,19.5,46.5,12.5,4.5,18.110770276274835,18.0,18.0,63.0,57.0,60.13318551349163,310.0016128990299,304.0,291.0,271.0018450121696
354,11,354,0,14.764750000000111,5.385164807134504,103.01941564578979,14.035668847618199,23.0,27.018512172212592,29.017236257093817,48.010415536631214,90.0222194794152,67.02984409947557,64.5,59.0,57.0,10.0,32.0,6.0,2.0,18.110770276274835,17.0,18.0,63.0,56.0,60.13318551349163,309.02588888311607,302.026488904533,290.01551682625535,273.00732590903124
355,11,355,0,14.806458333333447,5.0990195135927845,106.01886624558857,15.033296378372908,26.019223662515376,27.018512172212592,31.016124838541646,45.0111097397076,91.02197536858887,65.00769185258002,62.5,58.0,56.0,12.0,34.0,6.0,1.0,19.1049731745428,18.027756377319946,18.5,63.0,58.0,60.03332407921454,310.0258053775524,303.014851121195,290.0068964697219,275.0163631495406
