,video_id,frame_seq,time_seconds,m1,m3,m4,m5,m6,m7,m8,m9,m10,m11,m12,m13,m14,m15,m16,m17,e1,e2,e3,b1,b2,b3
0,69,0,0.0,2.5969098926447107,163.47130076842532,7.345170380878244,18.362925952195496,47.77890774483834,47.77890774483857,33.509195378596736,60.70884409472128,42.39410659481582,41.31658339243995,23.87180373785418,20.199218547415057,11.017755571317366,38.56214449961067,16.52663335697605,14.690340761756488,16.62833667602293,16.62833667602293,15.608487059366212,58.76136304702578,62.43394823746485,66.20847108818944
1,69,1,0.0333666666666666,1.830534215823036,157.43658484184945,5.491602647468994,18.30534215823002,45.79995144732167,47.62907918338585,33.00042488320565,58.60569002393216,40.313334331457874,39.356485640194705,21.96641058987609,20.13587637405317,11.898472402849507,37.525951424371556,15.559540834495465,13.729006618672543,18.396641189227292,18.396641189227292,17.390075050318615,58.577094906336185,58.577094906336185,62.26507713960262
2,69,2,0.0667333333333332,0.0,161.8858931545712,7.584426645814033,20.234430227931853,46.02411659607126,47.826835084202685,35.38336697303289,62.650896408333075,42.46800884671263,42.30835411294845,23.913417542101342,22.073923885016598,11.956708771050671,39.54911362732139,15.635696085220161,13.796202428135416,15.168853291628011,18.486682459542216,17.475189742304792,58.86379702671093,60.703290683795615,62.5698298705079
3,69,3,0.1000999999999998,2.587926373248061,162.864685608434,5.489820863205637,20.129343165087334,47.57844748111552,47.57844748111552,33.1416281704727,60.415749501080626,40.30025442212591,39.34371618630712,20.129343165087334,20.129343165087334,12.809582014146486,40.25868633017478,16.46946258961691,14.639522301881698,16.871215836966126,18.661802471742885,17.384432733484516,60.388029495262,62.217969782997216,64.07404674191665
4,69,4,0.1334666666666664,2.6014368777483687,163.72526938842313,7.357974628338866,18.39493657084722,47.86219688946566,49.666328741287316,31.487059499662543,58.89253210141569,40.5106455578114,39.54911362732139,18.394936570847108,16.555442913762477,13.796202428135416,41.388607284406135,17.475189742304792,15.635696085220047,16.657323524062974,16.65732352406303,16.555442913762477,60.703290683795615,60.703290683795615,64.4085511180129
5,69,5,0.166833333333333,2.623839451126311,168.83545484589536,9.276673343181074,20.408681354998407,50.09403605317766,51.94937072181392,29.9163726157984,61.254148745871504,40.859507649163646,39.88969537567857,16.698012017725887,16.698012017725887,12.98734268045348,44.52803204726911,18.553346686362147,18.553346686362147,16.800769984639505,18.553346686362147,18.553346686362147,59.37070939635879,61.22604406499505,66.89504280913845
6,69,6,0.2001999999999996,2.5761722414208306,165.7782350362385,9.108144307065913,20.037917475544873,49.217701565345344,51.005608119568706,29.37288280490514,60.141346530647716,40.1172142444577,39.16502052038322,18.216288614131713,16.394659752718553,11.840587599185596,42.80827824320954,19.12710304483835,15.483845322011916,18.307143485046446,20.36642981947696,19.127103044838293,61.935381288047665,61.935381288047665,65.60393453313038
7,69,7,0.2335666666666662,2.5879263732481417,166.53462049734355,9.149701438676061,21.95928345282266,49.44226393859593,49.408387768850616,27.69202147873829,60.41574950108062,38.47229137770432,37.513775898571794,16.46946258961691,14.639522301881698,11.894611870278936,44.83353704951287,19.214373021219785,17.384432733484573,16.570814085236336,18.299402877352122,17.384432733484516,60.388029495262,60.388029495262,67.80663418882223
8,69,8,0.2669333333333328,5.518480971254235,169.2334164517938,7.357974628338866,20.234430227931853,49.666328741287316,49.666328741287316,27.83659019007486,60.81467296219897,40.63574306265358,37.70961997023676,14.715949256677732,14.715949256677732,12.876455599592987,45.98734142711794,22.073923885016598,16.555442913762477,14.830471989777308,16.55544291376242,15.635696085220047,58.86379702671087,62.5427843408803,62.650896408332954
9,69,9,0.3002999999999994,1.830534215823036,177.57125442751482,10.983205294938102,21.96641058987609,49.45831099186542,51.287635737178505,27.701009241603696,60.43535812482329,38.48477800068556,38.44121853228319,14.64427372658406,12.813739510761025,13.729006618672543,46.678622503486736,22.88167769778761,19.22060926614165,16.57619233281567,16.57619233281567,16.47480794240704,58.577094906336185,60.40762912215922,64.09484270794556
10,69,10,0.333666666666666,2.5997879634411505,167.2878205722625,9.191638492981497,20.221604684559225,49.63484786209983,51.47317556069606,29.642143463839542,60.692661112318305,40.484967985682985,39.52404551982033,14.706621588770304,14.706621588770304,14.706621588770304,45.95819246490737,22.05993238315557,18.383276985962993,16.94854394428148,18.47496472175416,17.46411313666482,60.66481405367762,60.66481405367762,62.611185293161085
11,69,11,0.3670333333333326,5.8186511762482445,171.13166512042648,9.200095313481143,20.323674825986476,49.6805146927984,51.520533755494625,26.345063692702183,60.971024477959325,40.64734965197284,37.7203907852728,12.8801334388736,11.040114376177371,13.800142970221827,48.76050516145028,24.8402573463992,19.320200158310513,18.491962720588592,20.32367482598642,19.320200158310456,60.72062906897577,64.40066719436822,62.668791078647885
12,69,12,0.4003999999999992,5.815206731275591,171.02047452083139,9.194649167786565,22.143647514543254,49.65110550604777,51.49003533960513,24.187345603957123,60.796032645993165,38.66128575557542,35.85913175436792,9.194649167786679,9.194649167786679,14.71143866845864,51.49003533960513,25.745017669802564,20.228228169130603,18.481016103219655,18.481016103219655,18.389298335573244,57.00682484027715,58.845754673834506,64.46754023806304
13,69,13,0.4337666666666658,7.324361399316331,170.29140253410537,9.155451749145413,21.973084197949106,51.270529795214316,53.1016201450434,24.08423329437829,62.3646900763178,40.45010793789998,36.62180699658177,9.155451749145413,9.155451749145413,14.648722798632775,53.101620145043626,27.466355247436354,20.141993848120023,18.67353084985992,18.67353084985992,18.310903498290884,56.76380084470179,62.25707189418904,64.32315731242308
14,69,14,0.4671333333333324,5.845492374457511,173.76948972109128,7.394027979372481,22.182083938117557,49.94390874058911,51.79119438994825,26.46659238637865,61.11265887042145,38.99429777471161,36.04588639944109,9.242534974215687,7.394027979372595,17.560816451009714,52.682449353029256,28.651858420068493,21.25783044069601,18.8511464754358,18.577265382945424,18.48506994843126,57.30371684013704,62.84923782466643,63.28268598045782
15,69,15,0.5004999999999991,7.328355304866477,177.7503871564333,9.341856675513831,21.985065914599318,51.298487134065226,53.162154314309305,24.919102139169087,62.53303230475198,40.67897352814911,36.641776524332386,14.656710609732954,10.992532957299659,10.992532957299659,49.46639830784852,25.649243567032613,16.488799435949545,20.236082501117316,22.061270877635916,20.152977088382784,54.962664786498465,62.291020091364885,59.08308933894454
16,69,16,0.5338666666666656,9.478247207640317,182.1755302206342,5.576511630740129,20.447209312713653,48.329767466414296,52.08062483059528,27.63360175760117,61.79061199315389,41.564863612176914,36.247325599810665,11.153023261480257,9.29418605123351,15.800116287096898,51.11802328178419,28.81197675882379,17.658953497343646,18.681082762890643,18.956494415280577,18.588372102466906,55.765116307400945,63.200465148387764,63.44601072518557
17,69,17,0.5672333333333321,9.515928492824006,182.92833989274726,5.598681354791893,18.662271182639643,50.42268011092826,52.387491652795845,28.97163580682781,61.83945678387163,43.286815168545075,38.257655924411324,13.06358982784775,9.331135591319821,16.796044064375792,50.38813219312715,27.993406773959578,16.796044064375792,20.6131522612905,22.472350350082586,21.461611860035646,55.9868135479191,65.31794913923892,63.889325289426765
18,69,18,0.6005999999999987,9.297399114222685,182.3143869221048,11.156878937067063,20.454278051289748,52.098629454902486,53.95696533477836,24.80855513041271,65.32043226336083,44.97481682859914,39.97881619115719,14.87583858275616,9.297399114222571,12.086618848489366,52.99517495106886,28.821937254090017,17.665058317022954,20.53862594749315,22.621548384488424,21.384017962711937,57.64387450818015,66.94127362240272,59.966422438132184
19,69,19,0.6339666666666652,11.36407457442715,185.76776696671755,7.576049716284842,22.7281491488543,51.17339786918181,53.16746249543248,24.911844032415033,66.39857609267084,43.72667243716121,37.88024858142387,13.258087003498304,5.682037287213575,15.152099432569571,56.82037287213586,32.198211294210296,18.940124290711992,22.806929798068943,23.041655670946707,22.7281491488543,54.92636044306465,66.2904350174918,62.76015315039339
20,69,20,0.6673333333333318,11.57978291670517,192.5096258837329,9.518522923611044,20.94075043194414,53.33771226370218,55.33856718671909,25.03932443656119,66.87397456433351,46.04447111594414,39.97779627916623,15.229636677777648,5.711113754166604,14.277784385416453,56.159285249304844,33.31483023263843,18.085193554860894,22.92363880701284,23.15956583341021,21.89260272430522,55.20743295694382,68.53336504999919,65.1723470728638
21,69,21,0.7006999999999983,13.321105277569018,188.55220520936464,7.612060158610802,22.836180475832407,53.31839269237544,55.31852288128288,25.389387368026384,68.7460067545266,46.027793245706086,39.011808312880476,15.224120317221605,7.612060158610802,13.321105277568904,57.09045118958113,32.35125567409602,17.127135356874305,22.91533558484222,23.15117715558691,21.884672956006057,57.09045118958113,70.41155646715004,65.14874085215486
22,69,22,0.7340666666666649,15.421511106315014,187.54250985447382,7.886688962702927,21.127600098838162,53.59263134908391,57.41596231105322,23.270253283050163,66.97542647953243,46.06639736214767,38.256060740726184,11.476818222217844,5.738409111108922,14.346022777772305,58.3404926296073,35.38685618517161,16.258825814808574,24.939900319452075,23.27025328305011,22.953636444435688,55.471288074052836,68.86090933330695,61.68604442525979
23,69,23,0.7674333333333314,17.212275561122055,193.3965289147503,9.751747662166313,23.029249342831825,55.59351518085029,59.409984294353244,21.805570672028722,70.78741684660697,47.96463054708246,39.205738778111254,15.299800498775198,5.737425187040685,10.518612842907942,60.24296446392714,35.38078865341754,14.343562967601656,22.94970074816274,23.266263298746914,22.949700748162684,55.46177680805988,68.84910224448817,65.4725998622609
24,69,24,0.800799999999998,16.974335242187976,188.75454758817227,7.544148996527952,22.63244698958397,52.94358852617908,54.82499746302612,24.806946917841703,71.76861193728203,49.18183428337235,40.54980085633781,13.202260743923944,5.658111747395992,15.088297993056017,62.23922922135591,37.720744982639985,16.974335242187976,22.710895914548136,22.710895914548136,22.63244698958391,54.69508022482785,67.89734096875179,62.69478318130052
25,69,25,0.8341666666666645,20.84465470301234,191.72924929181102,7.813155733640674,20.844654703012452,55.084622134981984,57.132596490132904,23.053288106270617,72.0337366380535,51.19923243808252,40.74182510134233,17.054717484282833,5.684905828094315,11.36981165618863,60.63899549967243,37.899372187295285,13.26478026555344,20.84465470301234,21.186393128839292,20.844654703012395,53.05912106221325,68.21886993713139,62.791837220013164
26,69,26,0.867533333333331,21.216573138474736,188.48895939756574,7.683433110229885,21.216573138474622,55.83720588890156,57.75366357474466,23.75970471063429,73.017884623948,52.00526464660995,41.29845296748556,15.36686622045977,5.762574832672385,12.48557880412352,62.4278940206176,39.37759468992806,14.40643708168102,23.050299330689597,21.475848418808248,22.089870191910904,53.78403177160902,69.15089799206874,61.94581812648429
27,69,27,0.9008999999999976,16.81582178943927,190.7258004251376,9.527133715716525,20.55267107598138,54.216519302371765,56.1771628458982,22.49881205529444,69.13171180102813,48.57904072504675,40.17112983032712,14.947397146168214,7.473698573084107,11.210547859626331,57.92116394140203,35.50006822214971,14.947397146168328,18.777435272311024,20.889622565949093,20.552671075981323,54.18431465485986,69.13171180102808,66.05878676965004
28,69,28,0.934266666666664,17.154281480363704,186.12159212779372,7.8107019631044015,18.943734825940396,53.17759775079827,55.23000323938184,24.699608328158266,68.22375104278152,49.2901273439524,40.729029875771744,18.943734825940396,5.68312044778213,12.313427636861206,55.88401773652413,35.04590942798973,14.207801119455326,19.038217880019648,23.04604807662712,21.785295049831404,56.831204477821075,70.09181885597934,62.97189242168907
29,69,29,0.9676333333333308,15.13772111047897,180.49422315361093,7.510412880894819,18.77603220223716,52.70683405256316,52.70683405256339,22.842029029488167,63.86611533083717,45.10157705609644,37.55206440447421,15.020825761789752,5.632809660671114,12.204420931454138,53.51169177637587,34.73565957413871,14.082024151677842,20.7388054144043,22.842029029488224,21.592437032572718,56.32809660671148,71.34892236850118,62.414423069647
