,frame_seq,video_id,gap,time_seconds,m1,m3,m4,m5,m6,m7,m8,m9,m10,m11,m12,m13,m14,m15,m16,m17,e1,e2,e3,b1,b2,b3,label_measures,label_inf
0,217,16,1,7.240566666666676,5.0990195135927845,32.14031735997639,3.0,5.0990195135927845,8.06225774829855,9.055385138137416,8.06225774829855,21.213203435596427,16.1245154965971,13.5,14.0,11.0,4.5,8.5,3.5,2.5,3.1622776601683795,3.0,3.5,9.0,13.0,10.198039027185567,{},{}
1,218,16,0,7.273933333333343,4.123105625617661,30.14962686336267,3.0,6.0,8.06225774829855,9.055385138137416,6.082762530298219,19.1049731745428,13.152946437965904,11.0,13.0,10.0,5.5,7.5,1.5,2.5,4.0,4.123105625617661,3.5,9.0,12.0,10.04987562112089,{},{}
2,219,16,0,7.3073000000000095,3.0,29.068883707497267,3.0,5.0990195135927845,9.0,9.055385138137416,6.324555320336759,17.26267650163207,12.16552506059644,10.5,12.0,10.0,5.0,6.0,1.0,2.0,4.0,3.0,3.0,8.0,10.0,11.0,{},{}
3,220,16,0,7.340666666666676,2.0,29.068883707497267,3.0,6.0,8.0,9.0,6.324555320336759,17.11724276862369,11.180339887498947,10.0,12.0,10.0,5.0,6.0,0.0,2.0,4.0,4.0,4.0,8.0,9.0,10.0,{},{}
4,221,16,0,7.374033333333343,1.4142135623730951,28.0713376952364,3.0,5.0,8.06225774829855,8.0,6.324555320336759,15.297058540778355,10.44030650891055,9.5,11.0,9.0,4.0,5.0,0.0,2.0,3.1622776601683795,3.0,3.0,8.0,9.0,9.0,{},{}
5,222,16,0,7.40740000000001,2.0,27.018512172212592,3.0,4.0,7.0,8.0,5.385164807134504,14.142135623730953,10.198039027185567,9.0,10.0,9.0,4.5,4.5,0.5,1.5,3.0,3.0,3.0,9.0,9.0,8.0,{},{}
6,223,16,0,7.440766666666676,1.0,26.019223662515376,3.0,5.0,8.0,7.0,5.385164807134504,14.142135623730953,9.219544457292889,8.5,10.0,9.0,4.5,4.5,0.5,1.5,3.1622776601683795,3.0,3.0,7.0,8.0,8.0,{},{}
7,224,16,0,7.474133333333343,2.0,26.019223662515376,3.0,4.123105625617661,8.0,7.0,5.385164807134504,14.317821063276352,10.198039027185567,9.0,10.0,9.0,4.5,4.5,0.5,1.5,3.1622776601683795,3.0,3.0,7.0,7.0,8.06225774829855,{},{}
8,225,16,0,7.50750000000001,1.0,25.019992006393608,3.0,5.0,7.0,8.06225774829855,5.385164807134504,14.142135623730953,9.219544457292889,8.5,10.0,9.0,4.5,4.5,0.5,1.5,2.23606797749979,3.0,3.0,7.0,8.0,7.071067811865476,{},{}
9,226,16,0,7.540866666666677,1.0,24.020824298928627,3.0,5.0990195135927845,7.0,7.0,5.385164807134504,14.317821063276352,9.219544457292889,8.5,10.0,9.0,4.5,4.5,0.5,1.5,3.0,2.0,2.0,7.0,8.0,7.0,{},{}
10,227,16,0,7.574233333333344,1.0,22.02271554554524,3.0,5.0990195135927845,6.0,7.0,4.47213595499958,13.341664064126334,8.246211251235321,7.5,9.0,8.0,4.5,4.5,0.5,1.5,2.0,3.0,3.0,5.0,7.0,7.071067811865476,{},{}
11,228,16,0,7.60760000000001,1.4142135623730951,21.02379604162864,2.23606797749979,5.0990195135927845,7.0,6.082762530298219,4.123105625617661,12.16552506059644,7.071067811865476,6.5,8.0,7.0,3.5,4.5,0.5,1.5,3.0,2.0,2.0,6.0,7.0,7.0,{},{}
12,229,16,0,7.640966666666677,1.0,22.0,2.0,4.0,6.0,7.0,4.123105625617661,11.04536101718726,7.071067811865476,6.5,7.0,7.0,3.0,4.0,0.0,1.0,3.0,3.0,2.5,6.0,6.0,7.071067811865476,{},{}
13,230,16,0,7.674333333333344,1.4142135623730951,18.110770276274835,2.0,4.0,6.0,6.0,4.123105625617661,11.180339887498947,7.280109889280518,6.5,9.0,7.0,4.0,3.0,1.0,2.0,3.0,2.0,2.0,6.0,6.0,7.071067811865476,{},{}
14,231,16,0,7.707700000000011,2.0,20.0,2.0,4.0,6.0,6.0,4.47213595499958,12.16552506059644,8.246211251235321,7.0,8.0,8.0,4.0,4.0,1.0,2.0,2.23606797749979,2.0,2.0,6.0,6.0,6.0,{},{}
15,232,16,0,7.741066666666677,2.0,17.029386365926403,2.0,3.0,5.0,5.0,7.071067811865476,10.04987562112089,7.071067811865476,8.0,11.0,10.0,3.5,0.5,3.5,1.5,3.1622776601683795,2.0,2.0,6.0,6.0,6.0,{},{}
16,299,16,1,9.976633333333298,24.0,84.29116205154607,5.0,11.0,22.02271554554524,24.08318915758459,17.029386365926403,57.0087712549569,46.01086828130936,34.0,20.0,27.0,6.5,33.5,19.5,1.5,8.06225774829855,7.0,7.0,36.0,21.0,36.013886210738214,{},{}
17,366,16,1,12.212199999999912,5.0990195135927845,40.311288741492746,4.123105625617661,8.06225774829855,10.04987562112089,11.04536101718726,11.180339887498947,28.442925306655784,20.396078054371134,17.5,14.0,9.0,0.5,16.5,7.5,2.5,2.23606797749979,2.8284271247461903,2.0,12.0,20.0,19.235384061671343,{},{}
18,367,16,0,12.245566666666578,5.0,38.3275357934736,4.123105625617661,8.246211251235321,10.04987562112089,11.04536101718726,10.198039027185567,27.459060435491963,19.235384061671343,16.5,14.0,9.0,1.5,15.5,6.5,1.5,2.0,2.23606797749979,1.5,11.0,19.0,18.24828759089466,{},{}
19,368,16,0,12.278933333333244,4.0,37.12142238654117,4.123105625617661,8.06225774829855,10.04987562112089,11.04536101718726,10.198039027185567,26.30589287593181,18.24828759089466,16.0,12.0,9.0,0.5,15.5,7.5,2.5,1.4142135623730951,2.23606797749979,2.0,11.0,19.0,18.110770276274835,{},{}
20,369,16,0,12.31229999999991,4.0,35.22782990761707,4.123105625617661,8.06225774829855,9.055385138137416,10.04987562112089,10.198039027185567,26.30589287593181,18.24828759089466,16.0,13.0,9.0,1.0,15.0,6.0,2.0,2.23606797749979,2.8284271247461903,2.0,11.0,18.0,16.1245154965971,{},{}
21,370,16,0,12.345666666666576,3.0,33.37663853655727,4.123105625617661,8.06225774829855,9.055385138137416,10.04987562112089,9.219544457292889,24.33105012119288,16.278820596099706,14.5,13.0,8.0,1.5,13.5,5.5,1.5,1.4142135623730951,2.8284271247461903,2.0,10.0,17.0,16.1245154965971,{},{}
22,371,16,0,12.379033333333242,3.1622776601683795,34.23448553724738,4.0,7.0,9.055385138137416,9.0,9.219544457292889,23.194827009486403,16.278820596099706,14.5,12.0,8.0,1.0,13.0,6.0,2.0,1.0,2.8284271247461903,1.5,9.0,16.0,16.1245154965971,{},{}
23,372,16,0,12.412399999999908,3.0,33.13608305156178,4.123105625617661,7.071067811865476,9.0,9.055385138137416,9.055385138137416,23.194827009486403,16.1245154965971,14.5,11.0,8.0,0.5,13.5,6.5,2.5,2.23606797749979,2.23606797749979,1.0,10.0,16.0,16.1245154965971,{},{}
24,373,16,0,12.445766666666572,5.0,25.495097567963924,3.1622776601683795,5.0990195135927845,7.280109889280518,7.280109889280518,6.0,19.1049731745428,14.0356688476182,11.5,6.0,11.0,2.5,10.5,4.5,0.5,2.23606797749979,3.1622776601683795,2.5,14.0,7.0,13.152946437965904,{},{}
25,374,16,0,12.47913333333324,3.0,30.265491900843116,3.0,7.071067811865476,8.06225774829855,9.055385138137416,9.219544457292889,22.20360331117452,15.132745950421556,13.5,12.0,8.0,1.0,12.0,5.0,1.0,1.0,2.8284271247461903,2.0,8.0,14.0,15.132745950421556,{},{}
26,375,16,0,12.512499999999903,2.0,30.14962686336267,4.0,7.071067811865476,8.0,8.06225774829855,8.246211251235321,21.213203435596427,14.142135623730953,13.0,10.0,7.0,0.5,12.5,5.5,2.5,2.23606797749979,1.4142135623730951,1.0,8.0,15.0,15.132745950421556,{},{}
27,376,16,0,12.545866666666573,3.0,30.14962686336267,3.0,6.082762530298219,8.06225774829855,8.0,8.246211251235321,20.223748416156685,14.142135623730953,12.5,10.0,7.0,0.5,11.5,5.5,1.5,2.0,2.23606797749979,2.0,8.0,14.0,14.0356688476182,{},{}
28,377,16,0,12.579233333333235,2.0,29.42787793912432,3.1622776601683795,6.082762530298219,7.071067811865476,8.0,8.246211251235321,19.4164878389476,13.341664064126334,12.0,10.0,5.0,0.5,11.5,5.5,2.5,2.0,1.4142135623730951,1.0,8.0,14.0,13.152946437965904,{},{}
29,378,16,0,12.612599999999905,4.0,29.27456233660889,2.0,5.0990195135927845,8.0,8.06225774829855,8.246211251235321,19.235384061671343,14.142135623730953,12.0,10.0,6.0,0.0,11.0,5.0,2.0,1.0,1.4142135623730951,1.0,7.0,14.0,14.142135623730953,{},{}
30,379,16,0,12.645966666666569,3.0,26.1725046566048,2.0,6.082762530298219,7.071067811865476,8.0,8.246211251235321,19.235384061671343,13.152946437965904,11.5,9.0,6.0,0.5,11.5,5.5,1.5,1.0,1.4142135623730951,1.5,8.0,13.0,13.152946437965904,{},{}
31,380,16,0,12.679333333333236,3.0,27.16615541441225,2.23606797749979,6.0,7.0,8.06225774829855,7.071067811865476,18.110770276274835,12.16552506059644,10.5,8.0,5.0,0.5,11.5,5.5,2.5,1.0,1.4142135623730951,1.0,8.0,13.0,13.152946437965904,{},{}
32,381,16,0,12.7126999999999,2.0,26.1725046566048,2.0,6.082762530298219,6.0,8.0,8.246211251235321,18.24828759089466,12.16552506059644,11.0,9.0,6.0,0.5,10.5,4.5,2.5,1.4142135623730951,1.4142135623730951,1.5,8.0,13.0,12.041594578792296,{},{}
33,382,16,0,12.746066666666566,3.0,25.079872407968907,2.23606797749979,5.0,7.0,7.071067811865476,7.071067811865476,17.11724276862369,12.16552506059644,10.5,8.0,6.0,0.0,10.0,5.0,2.0,1.0,1.4142135623730951,1.0,7.0,12.0,12.16552506059644,{},{}
34,383,16,0,12.779433333333232,2.0,26.1725046566048,2.0,5.0990195135927845,6.082762530298219,8.0,8.246211251235321,17.26267650163207,12.16552506059644,11.0,9.0,6.0,0.5,9.5,4.5,1.5,1.0,1.4142135623730951,1.0,7.0,12.0,12.041594578792296,{},{}
35,384,16,0,12.812799999999898,3.0,24.186773244895647,2.0,5.0990195135927845,6.0,6.0,7.071067811865476,17.11724276862369,12.041594578792296,10.5,9.0,6.0,0.5,9.5,4.5,1.5,1.4142135623730951,1.4142135623730951,1.0,6.0,12.0,12.041594578792296,{},{}
36,396,16,1,13.213199999999889,1.4142135623730951,51.24451190127583,4.123105625617661,8.06225774829855,14.0356688476182,15.033296378372908,16.278820596099706,29.61418578992169,21.587033144922906,20.5,14.0,19.0,0.5,12.5,3.5,3.5,4.0,4.0,4.0,15.0,9.0,15.132745950421556,{},{}
37,397,16,0,13.246566666666554,1.0,50.15974481593781,4.123105625617661,8.0,14.0356688476182,15.033296378372908,16.1245154965971,28.284271247461906,20.396078054371134,20.0,14.0,18.0,0.0,12.0,3.0,4.0,3.1622776601683795,4.0,4.0,13.0,7.0,15.132745950421556,{},{}
38,398,16,0,13.27993333333322,1.0,49.16299421312742,4.0,7.071067811865476,14.0356688476182,15.033296378372908,15.297058540778355,26.476404589747453,19.4164878389476,19.0,13.0,17.0,0.0,11.0,3.0,3.0,3.0,3.0,3.0,13.0,8.0,15.033296378372908,{},{}
39,399,16,0,13.313299999999886,1.4142135623730951,44.181444068749045,3.0,7.071067811865476,12.041594578792296,13.038404810405298,14.142135623730953,25.317977802344327,18.24828759089466,17.5,13.0,17.0,1.0,10.0,2.0,2.0,3.1622776601683795,4.0,3.5,12.0,6.0,13.038404810405298,{},{}
40,400,16,0,13.346666666666552,1.4142135623730951,43.10452412450461,3.0,6.082762530298219,12.041594578792296,12.0,13.152946437965904,23.345235059857504,17.26267650163207,16.5,12.0,15.0,0.5,9.5,2.5,2.5,2.0,3.1622776601683795,2.5,11.0,7.0,12.041594578792296,{},{}
41,401,16,0,13.380033333333218,1.0,40.311288741492746,3.0,7.0,12.041594578792296,13.038404810405298,13.341664064126334,23.345235059857504,16.492422502470642,16.0,11.0,16.0,0.5,9.5,1.5,2.5,2.0,2.0,2.0,10.0,5.0,12.041594578792296,{},{}
42,402,16,0,13.413399999999884,1.4142135623730951,38.11823710509184,3.0,5.0,12.041594578792296,12.041594578792296,12.16552506059644,21.213203435596427,16.278820596099706,15.5,11.0,14.0,0.5,8.5,1.5,2.5,3.0,3.0,2.5,9.0,5.0,12.041594578792296,{},{}
43,403,16,0,13.44676666666655,0.0,38.2099463490856,3.1622776601683795,6.082762530298219,11.04536101718726,12.041594578792296,12.16552506059644,21.37755832643195,15.297058540778355,15.0,11.0,15.0,1.0,8.0,1.0,2.0,2.23606797749979,3.0,2.5,10.0,5.0,11.180339887498947,{},{}
44,404,16,0,13.480133333333216,1.0,36.12478373637688,2.23606797749979,5.0990195135927845,11.04536101718726,11.04536101718726,11.180339887498947,19.4164878389476,14.317821063276352,13.5,10.0,13.0,0.5,7.5,1.5,1.5,3.0,3.0,3.0,9.0,5.0,11.180339887498947,{},{}
45,405,16,0,13.51349999999988,1.0,20.0,2.0,2.0,6.0,6.0,5.0,10.0,8.0,7.5,8.0,8.0,3.0,2.0,0.0,1.0,3.0,3.0,3.0,7.0,7.0,9.055385138137416,{},{}
46,406,16,0,13.546866666666547,1.4142135623730951,32.14031735997639,2.0,4.0,10.04987562112089,10.0,10.198039027185567,17.26267650163207,13.341664064126334,12.5,8.0,11.0,0.5,7.5,2.5,2.5,2.0,2.0,2.0,8.0,5.0,9.0,{},{}
47,407,16,0,13.580233333333211,1.0,33.06055050963308,3.0,5.0,9.055385138137416,9.055385138137416,9.055385138137416,17.11724276862369,12.16552506059644,12.0,9.0,11.0,1.0,7.0,2.0,2.0,2.0,2.23606797749979,2.0,8.0,4.0,9.055385138137416,{},{}
48,408,16,0,13.61359999999988,1.4142135623730951,30.14962686336267,2.0,4.0,9.055385138137416,9.055385138137416,9.219544457292889,16.278820596099706,12.36931687685298,11.5,8.0,11.0,0.5,6.5,1.5,1.5,1.4142135623730951,2.0,2.0,7.0,4.0,9.219544457292889,{},{}
49,409,16,0,13.646966666666543,1.0,29.154759474226505,2.23606797749979,4.123105625617661,9.055385138137416,9.055385138137416,9.055385138137416,16.278820596099706,12.16552506059644,11.5,8.0,11.0,0.5,6.5,1.5,1.5,1.0,2.0,2.0,8.0,4.0,9.055385138137416,{},{}
50,410,16,0,13.68033333333321,1.0,27.16615541441225,3.0,4.0,8.0,9.055385138137416,8.06225774829855,15.132745950421556,11.180339887498947,11.0,7.0,10.0,0.5,6.5,1.5,1.5,2.0,2.0,1.5,8.0,5.0,8.0,{},{}
51,411,16,0,13.713699999999877,1.0,27.073972741361768,2.23606797749979,3.1622776601683795,8.06225774829855,9.0,9.055385138137416,15.297058540778355,12.16552506059644,11.5,8.0,10.0,0.0,6.0,2.0,2.0,1.0,1.0,1.5,8.0,4.0,8.06225774829855,{},{}
52,412,16,0,13.747066666666544,0.0,26.0768096208106,2.23606797749979,4.123105625617661,8.06225774829855,8.0,8.06225774829855,14.317821063276352,10.198039027185567,10.0,7.0,9.0,0.0,6.0,2.0,2.0,1.0,1.0,1.5,7.0,4.0,7.0,{},{}
53,413,16,0,13.780433333333209,0.0,25.079872407968907,2.23606797749979,3.0,7.071067811865476,7.0,8.06225774829855,13.152946437965904,10.198039027185567,10.0,7.0,9.0,0.0,5.0,1.0,2.0,2.23606797749979,1.4142135623730951,1.5,7.0,4.0,7.071067811865476,{},{}
54,414,16,0,13.813799999999874,1.0,24.186773244895647,2.0,3.1622776601683795,6.082762530298219,8.0,7.071067811865476,13.152946437965904,10.04987562112089,9.5,6.0,9.0,0.5,5.5,1.5,1.5,1.4142135623730951,2.0,1.5,6.0,3.0,7.071067811865476,{},{}
55,415,16,0,13.84716666666654,1.0,24.08318915758459,2.0,3.0,7.0,8.0,8.06225774829855,13.152946437965904,10.198039027185567,10.0,7.0,9.0,0.0,5.0,1.0,1.0,1.4142135623730951,2.0,1.5,7.0,5.0,6.082762530298219,{},{}
56,416,16,0,13.880533333333206,1.0,22.20360331117452,2.0,4.0,7.071067811865476,8.06225774829855,7.071067811865476,13.152946437965904,9.219544457292889,9.0,6.0,9.0,0.5,5.5,1.5,1.5,1.0,2.0,1.5,7.0,5.0,7.071067811865476,{},{}
57,702,16,1,23.42339999999965,9.0,99.503768772846,7.0,13.038404810405298,24.186773244895647,26.1725046566048,17.029386365926403,46.04345773288535,33.015148038438355,28.5,20.0,30.0,8.0,21.0,5.0,1.0,9.055385138137416,9.0,9.0,27.0,23.0,28.0178514522438,{},{}
58,703,16,0,23.456766666666315,5.0,94.19129471453292,10.0,13.038404810405298,23.08679276123039,25.079872407968907,24.33105012119288,52.23983154643591,39.20459156782532,36.5,36.0,42.0,15.0,13.0,2.0,5.0,8.06225774829855,9.055385138137416,8.5,33.0,35.0,40.049968789001575,{},{}
59,704,16,0,23.49013333333298,4.123105625617661,91.19758768739445,8.06225774829855,12.041594578792296,23.021728866442675,25.079872407968907,30.14962686336267,54.147945482723536,42.1070065428546,40.0,40.0,46.0,13.0,11.0,2.0,5.0,8.0,9.055385138137416,9.0,30.0,33.0,49.09175083453431,{},{}
60,705,16,0,23.523499999999647,4.0,93.34345183246651,9.055385138137416,13.038404810405298,22.09072203437452,24.08318915758459,31.016124838541646,57.07889277132134,44.04543109109048,42.0,41.0,49.0,14.0,12.0,2.0,5.0,10.04987562112089,9.219544457292889,9.0,38.0,26.0,34.23448553724738,{},{}
61,706,16,0,23.55686666666632,5.0,93.26306878931231,8.06225774829855,12.041594578792296,23.021728866442675,24.08318915758459,31.016124838541646,56.08029957123981,44.04543109109048,41.5,40.0,47.0,12.5,12.5,0.5,4.5,8.0,8.246211251235321,7.5,36.0,25.0,31.144823004794876,{},{}
62,707,16,0,23.59023333333298,5.0,91.26883367283708,7.071067811865476,10.198039027185567,22.09072203437452,22.09072203437452,32.01562118716424,54.147945482723536,44.04543109109048,41.5,40.0,47.0,11.5,10.5,0.5,4.5,6.0,8.06225774829855,7.5,34.0,26.0,44.04543109109048,{},{}
63,708,16,0,23.623599999999644,7.0,93.1933474020544,6.082762530298219,9.219544457292889,23.08679276123039,23.08679276123039,32.01562118716424,54.147945482723536,45.044422518220834,41.5,39.0,45.0,10.0,12.0,2.0,3.0,8.0,9.055385138137416,8.5,36.0,28.0,33.06055050963308,{},{}
64,709,16,0,23.65696666666631,4.0,94.19129471453292,6.082762530298219,10.198039027185567,22.09072203437452,23.08679276123039,33.015148038438355,53.150729063673246,43.04648650006177,41.0,37.0,43.0,7.0,13.0,2.0,1.0,6.082762530298219,7.280109889280518,6.5,36.0,27.0,34.132096331752024,{},{}
65,710,16,0,23.690333333332976,3.1622776601683795,95.25754563287887,7.071067811865476,9.055385138137416,22.09072203437452,23.021728866442675,32.01562118716424,51.15662224971465,42.1070065428546,40.5,35.0,42.0,6.5,12.5,2.5,0.5,6.0,7.280109889280518,6.5,36.0,27.0,33.13608305156178,{},{}
66,711,16,0,23.72369999999964,5.0990195135927845,98.12746812182613,9.055385138137416,11.180339887498947,24.08318915758459,25.079872407968907,28.0178514522438,53.23532661682466,42.1070065428546,39.5,33.0,38.0,7.5,17.5,4.5,1.5,6.082762530298219,7.071067811865476,7.0,36.0,27.0,34.132096331752024,{},{}
67,712,16,0,23.757066666666308,1.4142135623730951,95.08417323613853,7.0,8.06225774829855,23.08679276123039,24.020824298928627,31.016124838541646,47.09564735726647,39.05124837953327,38.5,31.0,35.0,2.0,14.0,3.0,4.0,7.071067811865476,8.246211251235321,8.0,35.0,26.0,35.12833614050059,{},{}
68,713,16,0,23.79043333333297,1.4142135623730951,98.02040603874276,8.06225774829855,10.04987562112089,25.019992006393608,25.019992006393608,26.0,45.0111097397076,35.0,34.5,30.0,32.0,5.0,14.0,2.0,2.0,9.055385138137416,10.04987562112089,10.0,35.0,28.0,35.12833614050059,{},{}
69,714,16,0,23.82379999999964,0.0,96.02083107326244,10.0,12.041594578792296,25.019992006393608,26.019223662515376,23.0,45.0111097397076,33.0,33.0,30.0,32.0,8.0,14.0,0.0,1.0,9.055385138137416,10.04987562112089,10.0,34.0,28.0,37.12142238654117,{},{}
70,715,16,0,23.857166666666306,1.0,94.02127418834527,8.06225774829855,11.0,26.0,27.018512172212592,27.018512172212592,47.0,36.0,35.5,30.0,32.0,4.0,16.0,2.0,2.0,9.055385138137416,8.06225774829855,8.0,35.0,29.0,32.0624390837628,{},{}
71,716,16,0,23.89053333333297,4.0,90.0499861188218,5.0,13.038404810405298,25.0,26.019223662515376,31.0,53.009433122794285,40.0,38.0,30.0,33.0,0.5,21.5,5.5,2.5,8.06225774829855,9.055385138137416,9.0,35.0,29.0,34.058772731852805,{},{}
72,717,16,0,23.92389999999964,7.0,91.0494371207203,5.0990195135927845,14.0,25.0,26.019223662515376,30.01666203960727,56.0,42.0,38.5,29.0,32.0,0.5,25.5,8.5,2.5,10.04987562112089,11.0,10.5,35.0,29.0,34.0147027033899,{},{}
73,718,16,0,23.957266666666303,2.23606797749979,97.082439194738,7.0,12.041594578792296,26.019223662515376,27.018512172212592,28.0,49.04079934095692,37.01351104664349,36.0,24.0,28.0,2.0,23.0,8.0,7.0,8.06225774829855,9.0,9.0,35.0,29.0,35.12833614050059,{},{}
74,719,16,0,23.99063333333297,1.4142135623730951,100.07996802557444,9.0,12.041594578792296,28.0,28.0,24.0,44.04543109109048,32.01562118716424,32.5,21.0,25.0,1.0,21.0,6.0,7.0,9.219544457292889,9.0,9.5,35.0,29.0,37.12142238654117,{},{}
75,720,16,0,24.023999999999635,2.23606797749979,103.04368005850722,8.0,10.04987562112089,28.0,29.0,21.02379604162864,41.10960958218893,31.064449134018133,30.0,20.0,23.0,0.5,19.5,5.5,5.5,10.198039027185567,10.0,10.0,35.0,28.0,31.144823004794876,{},{}
76,721,16,0,24.0573666666663,1.0,102.04410811016967,9.0,13.038404810405298,27.018512172212592,28.0,19.0,41.04875150354759,28.0178514522438,28.0,18.0,21.0,0.5,21.5,6.5,6.5,10.04987562112089,10.0,10.0,36.0,29.0,32.14031735997639,{},{}
77,722,16,0,24.090733333332967,1.0,103.07764064044152,8.0,11.04536101718726,27.0,29.0,19.0,38.05259518088089,27.018512172212592,27.0,18.0,22.0,1.0,18.0,4.0,5.0,10.04987562112089,10.0,10.0,36.0,28.0,33.06055050963308,{},{}
78,723,16,0,24.12409999999964,1.0,103.07764064044152,8.0,13.0,28.0178514522438,29.0,19.0,40.01249804748511,27.018512172212592,27.0,17.0,21.0,0.0,21.0,5.0,6.0,10.04987562112089,10.0,10.0,36.0,28.0,33.13608305156178,{},{}
79,724,16,0,24.1574666666663,1.0,104.12012293500234,8.06225774829855,13.038404810405298,28.0178514522438,30.01666203960727,20.0,40.049968789001575,27.018512172212592,27.5,16.0,21.0,1.5,21.5,5.5,7.5,10.04987562112089,10.0,9.5,37.0,28.0,33.13608305156178,{},{}
80,725,16,0,24.190833333332964,1.0,102.1763181955584,6.0,12.16552506059644,27.073972741361768,28.0178514522438,24.0,42.1070065428546,30.01666203960727,30.0,16.0,22.0,5.0,23.0,8.0,9.0,9.219544457292889,10.0,10.0,37.0,27.0,34.132096331752024,{},{}
81,726,16,0,24.22419999999963,2.23606797749979,100.24470060806208,5.0990195135927845,11.04536101718726,27.073972741361768,28.0713376952364,26.019223662515376,44.181444068749045,33.13608305156178,32.0,17.0,24.0,5.5,23.5,8.5,8.5,9.219544457292889,10.04987562112089,10.0,36.0,27.0,34.23448553724738,{},{}
82,727,16,0,24.257566666666296,3.605551275463989,100.24470060806208,4.0,11.04536101718726,28.0178514522438,29.017236257093817,27.073972741361768,45.27692569068709,34.23448553724738,32.5,18.0,25.0,5.5,23.5,8.5,7.5,7.071067811865476,8.0,8.0,36.0,25.0,33.24154027718932,{},{}
83,728,16,0,24.29093333333296,3.1622776601683795,98.18350166906862,5.0,12.16552506059644,29.017236257093817,30.01666203960727,26.0768096208106,46.2709412050371,34.132096331752024,32.5,20.0,26.0,3.0,23.0,8.0,6.0,6.082762530298219,7.071067811865476,7.0,35.0,25.0,38.11823710509184,{},{}
84,729,16,0,24.324299999999628,7.071067811865476,98.2496819333274,3.0,12.041594578792296,28.0178514522438,30.01666203960727,27.073972741361768,49.16299421312742,37.12142238654117,33.5,20.0,27.0,3.5,25.5,9.5,4.5,6.082762530298219,7.0,7.0,33.0,24.0,33.13608305156178,{},{}
85,730,16,0,24.357666666666294,8.06225774829855,98.32598842625484,4.123105625617661,12.041594578792296,26.019223662515376,28.0713376952364,28.16025568065745,52.3450093132096,40.311288741492746,36.0,21.0,29.0,3.0,27.0,11.0,5.0,9.055385138137416,9.055385138137416,9.0,38.0,27.0,31.25699921617557,{},{}
86,731,16,0,24.39103333333296,7.071067811865476,96.33275663033837,4.0,12.041594578792296,25.019992006393608,26.0768096208106,29.27456233660889,52.3450093132096,40.311288741492746,36.5,22.0,30.0,3.0,26.0,10.0,5.0,8.06225774829855,10.04987562112089,10.0,36.0,25.0,30.14962686336267,{},{}
87,732,16,0,24.424399999999626,6.082762530298219,93.34345183246651,3.1622776601683795,12.041594578792296,25.079872407968907,26.0768096208106,30.14962686336267,51.35172830587107,39.319206502675,36.0,23.0,31.0,3.0,24.0,9.0,5.0,9.219544457292889,10.04987562112089,10.0,37.0,25.0,35.12833614050059,{},{}
88,733,16,0,24.45776666666629,6.082762530298219,90.55385138137416,5.0990195135927845,12.041594578792296,23.08679276123039,24.186773244895647,29.27456233660889,52.46903848937962,40.44749683231337,37.0,23.0,33.0,1.0,24.0,9.0,5.0,10.198039027185567,10.04987562112089,10.5,38.0,25.0,34.23448553724738,{},{}
89,734,16,0,24.49113333333296,6.082762530298219,91.54780172128658,5.0990195135927845,11.180339887498947,23.08679276123039,24.186773244895647,30.4138126514911,52.773099207835045,41.593268686170845,38.0,25.0,35.0,0.0,22.0,8.0,4.0,11.180339887498947,11.04536101718726,12.0,38.0,24.0,34.23448553724738,{},{}
90,735,16,0,24.524499999999623,8.06225774829855,92.7793080379456,4.123105625617661,12.16552506059644,23.194827009486403,25.179356624028344,30.59411708155671,54.91812087098393,42.7551166528639,38.0,24.0,36.0,0.0,24.0,9.0,4.0,11.180339887498947,11.180339887498947,12.0,41.0,24.0,31.400636936215164,{},{}
91,736,16,0,24.55786666666629,7.071067811865476,94.04786015641186,4.123105625617661,12.36931687685298,23.194827009486403,24.515301344262525,31.04834939252005,54.57105459856901,42.20189569201838,37.5,23.0,37.0,0.0,23.0,8.0,4.0,11.180339887498947,11.180339887498947,11.5,39.0,22.0,33.54101966249684,{},{}
92,737,16,0,24.591233333332955,7.071067811865476,94.2019108086455,5.385164807134504,12.36931687685298,22.20360331117452,24.33105012119288,29.8328677803526,54.57105459856901,42.20189569201838,37.5,23.0,38.0,1.5,22.5,7.5,3.5,10.198039027185567,11.180339887498947,11.0,39.0,21.0,31.575306807693888,{},{}
93,738,16,0,24.62459999999962,7.071067811865476,95.1892851112981,6.324555320336759,11.40175425099138,24.33105012119288,25.495097567963924,28.861739379323623,53.60037313302959,42.20189569201838,37.5,23.0,38.0,2.5,21.5,7.5,4.5,12.16552506059644,11.40175425099138,11.5,42.0,21.0,36.6742416417845,{},{}
94,739,16,0,24.657966666666287,5.0990195135927845,96.0260381354974,6.082762530298219,11.40175425099138,24.33105012119288,24.33105012119288,30.083217912982647,52.630789467763066,41.23105625617661,37.5,24.0,38.0,2.0,20.0,6.0,5.0,10.198039027185567,11.40175425099138,11.0,39.0,19.0,34.713109915419565,{},{}
95,740,16,0,24.69133333333296,9.219544457292889,98.3107318658548,5.0990195135927845,10.198039027185567,25.317977802344327,26.30589287593181,30.083217912982647,54.57105459856901,44.384682042344295,38.5,22.0,38.0,1.0,23.0,9.0,4.0,9.219544457292889,9.486832980505138,9.5,39.0,17.0,34.52535300326414,{},{}
96,741,16,0,24.72469999999962,6.324555320336759,99.46356116689168,6.082762530298219,11.40175425099138,24.515301344262525,24.73863375370596,28.861739379323623,52.630789467763066,41.23105625617661,37.0,20.0,37.0,0.5,22.5,8.5,6.5,10.198039027185567,11.40175425099138,11.5,40.0,19.0,35.6931365951495,{},{}
97,742,16,0,24.758066666666284,6.324555320336759,96.33794683301072,6.324555320336759,11.40175425099138,23.345235059857504,24.515301344262525,30.59411708155671,54.57105459856901,43.17406628984581,39.0,22.0,38.0,0.0,23.0,9.0,6.0,10.198039027185567,11.180339887498947,11.5,41.0,19.0,33.54101966249684,{},{}
98,743,16,0,24.79143333333295,5.0990195135927845,97.32420048477152,5.385164807134504,10.44030650891055,21.37755832643195,22.56102834535696,31.400636936215164,52.172789842982326,41.77319714841085,38.5,21.0,37.0,2.0,22.0,9.0,7.0,10.44030650891055,10.198039027185567,10.5,41.0,19.0,36.87817782917155,{},{}
99,744,16,0,24.824799999999616,4.0,95.35197952848172,5.385164807134504,9.486832980505138,21.37755832643195,22.56102834535696,33.54101966249684,52.172789842982326,42.7551166528639,40.0,22.0,38.0,3.0,21.0,8.0,8.0,9.486832980505138,9.219544457292889,9.5,41.0,18.0,32.984845004941285,{},{}
100,745,16,0,24.85816666666628,2.0,96.33794683301072,4.47213595499958,10.44030650891055,21.37755832643195,22.56102834535696,34.36568055487916,50.99019513592785,40.60788100849391,39.0,22.0,38.0,4.0,20.0,6.0,9.0,8.54400374531753,8.54400374531753,8.5,41.0,18.0,32.984845004941285,{},{}
101,746,16,0,24.891533333332948,2.23606797749979,98.65596788841516,6.082762530298219,10.44030650891055,24.33105012119288,25.70992026436488,31.400636936215164,50.00999900019995,39.6232255123179,38.0,19.0,37.0,3.0,21.0,7.0,9.0,9.219544457292889,9.219544457292889,9.5,42.0,18.0,32.984845004941285,{},{}
102,747,16,0,24.924899999999614,2.0,96.6902270139025,5.385164807134504,10.44030650891055,23.53720459187964,24.73863375370596,31.400636936215164,49.03060268852505,38.63935817272331,37.0,19.0,37.0,3.0,20.0,6.0,9.0,10.198039027185567,10.198039027185567,10.5,41.0,18.0,36.87817782917155,{},{}
103,748,16,0,24.95826666666628,3.1622776601683795,97.49358953285082,5.0990195135927845,11.180339887498947,20.396078054371134,22.56102834535696,32.2490309931942,51.62363799656123,40.44749683231337,38.5,20.0,37.0,3.5,22.5,8.5,8.5,8.246211251235321,8.246211251235321,8.5,39.0,17.0,34.92849839314596,{},{}
104,749,16,0,24.991633333332945,6.0,96.5090669315583,5.385164807134504,11.40175425099138,21.37755832643195,23.769728648009423,30.14962686336267,52.61178575186362,41.30375285612676,38.0,20.0,37.0,1.5,23.5,9.5,7.5,12.36931687685298,12.16552506059644,12.5,41.0,19.0,36.6742416417845,{},{}
105,750,16,0,25.02499999999961,7.0,97.32420048477152,6.324555320336759,11.180339887498947,21.37755832643195,22.80350850198276,30.14962686336267,54.45181356024793,43.28972164382672,39.5,23.0,39.0,1.0,23.0,9.0,6.0,10.198039027185567,9.219544457292889,10.0,40.0,20.0,35.6931365951495,{},{}
106,751,16,0,25.05836666666628,9.0,95.1892851112981,6.324555320336759,11.180339887498947,19.235384061671343,21.840329667841555,31.144823004794876,57.42821606144492,46.2709412050371,41.5,25.0,40.0,1.5,24.5,10.5,5.5,10.198039027185567,9.219544457292889,9.0,42.0,22.0,34.36568055487916,{},{}
107,752,16,0,25.091733333332943,9.055385138137416,95.1892851112981,6.082762530298219,11.180339887498947,20.396078054371134,21.840329667841555,31.25699921617557,57.55866572463264,46.389654018972806,41.5,25.0,40.0,1.5,24.5,10.5,5.5,8.246211251235321,8.54400374531753,8.5,39.0,19.0,35.35533905932738,{},{}
108,753,16,0,25.12509999999961,7.071067811865476,90.4267659490264,6.324555320336759,10.198039027185567,19.4164878389476,21.587033144922906,32.14031735997639,55.57877292636101,45.39823785126467,41.5,25.0,41.0,1.0,22.0,9.0,6.0,4.47213595499958,5.830951894845301,5.0,40.0,20.0,34.36568055487916,{},{}
109,754,16,0,25.158466666666275,4.123105625617661,93.55746896961249,7.071067811865476,10.44030650891055,22.56102834535696,23.769728648009423,31.400636936215164,52.952809179494906,42.579337712087536,40.0,23.0,40.0,0.5,20.5,6.5,7.5,3.605551275463989,6.708203932499369,6.0,40.0,19.0,36.6742416417845,{},{}
110,755,16,0,25.19183333333294,7.071067811865476,90.60905032059436,6.082762530298219,10.44030650891055,22.360679774997894,23.769728648009423,31.25699921617557,54.74486277268398,44.40720662234904,40.5,24.0,41.0,1.5,21.5,7.5,4.5,4.47213595499958,5.656854249492381,4.0,40.0,19.0,31.78049716414141,{},{}
111,756,16,0,25.225199999999607,11.180339887498947,91.78235124467012,5.385164807134504,11.40175425099138,22.360679774997894,24.73863375370596,31.144823004794876,58.85575587824864,47.51841748206689,41.5,25.0,43.0,3.0,24.0,9.0,3.0,5.385164807134504,6.4031242374328485,5.5,40.0,19.0,33.734255586866,{},{}
112,757,16,0,25.258566666666272,11.180339887498947,92.57429448826494,7.280109889280518,12.16552506059644,22.56102834535696,23.769728648009423,30.4138126514911,61.0,48.83646178829912,42.5,28.0,45.0,6.5,23.5,8.5,2.5,6.324555320336759,8.246211251235321,7.5,42.0,22.0,33.734255586866,{},{}
113,758,16,0,25.29193333333294,14.142135623730953,96.5090669315583,6.324555320336759,11.40175425099138,25.495097567963924,26.68332812825267,28.635642126552707,60.41522986797286,49.03060268852505,41.0,27.0,44.0,7.5,23.5,8.5,0.5,7.280109889280518,8.246211251235321,8.5,41.0,18.0,36.87817782917155,{},{}
114,759,16,0,25.325299999999604,13.152946437965904,97.49358953285082,6.324555320336759,11.40175425099138,24.515301344262525,26.68332812825267,28.635642126552707,59.43904440685432,48.05205510693585,40.5,26.0,43.0,6.5,23.5,8.5,0.5,8.246211251235321,8.54400374531753,8.5,40.0,19.0,35.510561809129406,{},{}
115,760,16,0,25.35866666666627,12.041594578792296,96.88137075826292,7.280109889280518,13.601470508735444,25.495097567963924,27.65863337187866,27.65863337187866,60.41522986797286,46.87216658103186,40.0,25.0,44.0,7.5,24.5,7.5,0.5,8.246211251235321,9.219544457292889,9.0,40.0,20.0,38.63935817272331,{},{}
116,761,16,0,25.392033333332936,11.04536101718726,96.5090669315583,7.280109889280518,12.36931687685298,25.495097567963924,26.68332812825267,28.442925306655784,59.033888572581766,46.69047011971501,40.5,26.0,43.0,6.5,23.5,7.5,1.5,8.246211251235321,8.54400374531753,8.5,39.0,18.0,37.65634076752546,{},{}
117,762,16,0,25.4253999999996,7.071067811865476,94.36630754670864,5.385164807134504,12.36931687685298,22.360679774997894,23.53720459187964,30.265491900843116,54.91812087098393,42.579337712087536,38.5,25.0,41.0,3.0,21.0,5.0,3.0,8.54400374531753,9.219544457292889,9.5,40.0,20.0,34.92849839314596,{},{}
118,763,16,0,25.458766666666268,4.123105625617661,93.2148056909416,5.385164807134504,10.198039027185567,22.20360331117452,23.345235059857504,31.400636936215164,50.99019513592785,40.79215610874228,38.0,24.0,39.0,0.5,18.5,5.5,4.5,9.219544457292889,9.486832980505138,9.0,40.0,19.0,33.734255586866,{},{}
119,764,16,0,25.492133333332934,3.1622776601683795,93.2148056909416,6.324555320336759,11.180339887498947,23.345235059857504,24.33105012119288,30.4138126514911,50.99019513592785,39.81205847478876,37.5,24.0,39.0,1.5,18.5,4.5,5.5,13.152946437965904,12.16552506059644,12.5,40.0,18.0,37.48332962798263,{},{}
120,765,16,0,25.5254999999996,1.0,89.26925562588724,6.324555320336759,12.36931687685298,22.20360331117452,23.345235059857504,31.25699921617557,50.80354318352215,38.47076812334269,37.5,25.0,40.0,1.5,17.5,2.5,4.5,13.152946437965904,13.152946437965904,13.5,40.0,19.0,35.6931365951495,{},{}
121,766,16,0,25.558866666666265,5.0990195135927845,87.96590248499699,6.324555320336759,12.16552506059644,21.213203435596427,22.20360331117452,30.14962686336267,53.60037313302959,41.43669871020132,38.5,26.0,39.0,2.5,20.5,5.5,3.5,9.219544457292889,8.54400374531753,8.5,37.0,16.0,37.65634076752546,{},{}
122,767,16,0,25.59223333333293,5.385164807134504,84.01190391843289,7.280109889280518,14.142135623730953,20.223748416156685,21.213203435596427,31.144823004794876,57.706152185014034,43.56604182158393,40.5,29.0,42.0,4.5,21.5,4.5,2.5,10.198039027185567,10.198039027185567,10.5,40.0,20.0,37.48332962798263,{},{}
123,768,16,0,25.6255999999996,5.0990195135927845,85.0,6.324555320336759,12.16552506059644,20.09975124224178,21.213203435596427,33.37663853655727,56.88585061331157,44.7213595499958,41.5,29.0,42.0,2.5,20.5,4.5,2.5,9.219544457292889,9.486832980505138,9.0,39.0,20.0,33.54101966249684,{},{}
124,769,16,0,25.658966666666263,1.4142135623730951,85.84287972802403,6.082762530298219,13.152946437965904,20.223748416156685,21.213203435596427,34.23448553724738,54.589376255824725,41.43669871020132,40.5,28.0,40.0,0.0,20.0,4.0,5.0,10.04987562112089,9.219544457292889,9.5,38.0,19.0,35.35533905932738,{},{}
125,770,16,0,25.69233333333293,2.23606797749979,87.82368700982668,5.0990195135927845,12.16552506059644,20.223748416156685,21.213203435596427,34.23448553724738,53.60037313302959,41.43669871020132,40.0,28.0,40.0,0.0,19.0,4.0,5.0,9.219544457292889,8.246211251235321,8.5,40.0,21.0,33.734255586866,{},{}
126,771,16,0,25.725699999999595,3.1622776601683795,85.0,6.082762530298219,12.16552506059644,18.110770276274835,20.223748416156685,33.24154027718932,54.589376255824725,42.42640687119285,40.5,29.0,42.0,2.5,18.5,3.5,2.5,10.198039027185567,12.36931687685298,11.5,39.0,20.0,34.52535300326414,{},{}
127,772,16,0,25.75906666666626,4.0,87.82368700982668,5.385164807134504,14.142135623730953,20.223748416156685,22.20360331117452,32.38826948140329,55.731499172371095,41.593268686170845,39.0,28.0,40.0,2.0,21.0,5.0,3.0,8.06225774829855,8.246211251235321,9.0,39.0,22.0,32.55764119219941,{},{}
128,773,16,0,25.792433333332927,4.0,85.84287972802403,6.082762530298219,13.152946437965904,19.1049731745428,20.223748416156685,32.38826948140329,55.57877292636101,42.42640687119285,40.0,29.0,41.0,3.0,20.0,4.0,2.0,9.055385138137416,9.219544457292889,9.5,37.0,19.0,36.345563690772494,{},{}
129,774,16,0,25.825799999999592,3.0,85.84287972802403,5.0990195135927845,12.16552506059644,19.1049731745428,20.09975124224178,32.55764119219941,52.773099207835045,40.60788100849391,38.5,28.0,40.0,2.0,18.0,3.0,2.0,9.055385138137416,8.246211251235321,8.5,37.0,20.0,35.35533905932738,{},{}
130,775,16,0,25.85916666666626,3.1622776601683795,84.8528137423857,6.082762530298219,13.038404810405298,20.09975124224178,20.09975124224178,31.400636936215164,53.60037313302959,40.60788100849391,38.5,28.0,40.0,3.0,19.0,4.0,3.0,11.180339887498947,11.180339887498947,11.0,38.0,21.0,34.36568055487916,{},{}
131,776,16,0,25.892533333332924,5.0,82.60750571225353,6.082762530298219,13.038404810405298,19.1049731745428,20.09975124224178,32.38826948140329,56.43580423808985,43.41658669218482,40.5,30.0,40.0,3.0,21.0,5.0,2.0,8.06225774829855,8.246211251235321,8.5,37.0,22.0,34.36568055487916,{},{}
132,777,16,0,25.92589999999959,7.071067811865476,83.86298349093002,6.082762530298219,13.152946437965904,18.24828759089466,19.235384061671343,32.38826948140329,58.69412236331676,45.5411901469428,41.5,29.0,41.0,3.0,23.0,7.0,3.0,7.071067811865476,7.071067811865476,8.0,36.0,21.0,38.3275357934736,{},{}
133,778,16,0,25.959266666666256,7.071067811865476,81.74350127074322,5.0990195135927845,13.152946437965904,18.027756377319943,19.1049731745428,32.2490309931942,57.55866572463264,44.40720662234904,40.5,30.0,41.0,3.5,21.5,6.5,0.5,9.055385138137416,10.198039027185567,11.0,37.0,21.0,39.319206502675,{},{}
134,779,16,0,25.99263333333292,5.0990195135927845,83.72574275573791,5.0990195135927845,12.16552506059644,19.026297590440446,20.09975124224178,33.24154027718932,55.57877292636101,43.41658669218482,40.5,29.0,40.0,1.5,20.5,5.5,2.5,9.055385138137416,9.219544457292889,9.5,37.0,23.0,35.35533905932738,{},{}
135,780,16,0,26.025999999999588,2.23606797749979,87.82368700982668,6.082762530298219,13.152946437965904,21.095023109728988,21.213203435596427,31.25699921617557,52.61178575186362,39.45883931389772,38.0,27.0,39.0,2.0,19.0,4.0,3.0,10.04987562112089,10.198039027185567,10.5,37.0,22.0,32.38826948140329,{},{}
136,781,16,0,26.059366666666254,4.123105625617661,86.83317338436964,6.082762530298219,13.152946437965904,20.223748416156685,21.213203435596427,30.265491900843116,53.60037313302959,40.44749683231337,38.0,28.0,40.0,4.0,19.0,3.0,2.0,8.06225774829855,8.246211251235321,8.5,36.0,22.0,36.345563690772494,{},{}
137,782,16,0,26.09273333333292,5.0990195135927845,89.80534505250787,7.071067811865476,13.152946437965904,22.09072203437452,22.20360331117452,30.4138126514911,55.731499172371095,42.579337712087536,39.5,28.0,40.0,4.0,21.0,5.0,2.0,10.198039027185567,9.219544457292889,10.0,38.0,24.0,36.345563690772494,{},{}
138,783,16,0,26.126099999999585,9.055385138137416,89.67719888578144,6.082762530298219,12.16552506059644,22.09072203437452,22.20360331117452,30.4138126514911,57.706152185014034,45.5411901469428,40.5,29.0,40.0,4.5,22.5,7.5,1.5,8.246211251235321,9.219544457292889,9.5,36.0,24.0,36.22154055254967,{},{}
139,784,16,0,26.15946666666625,7.071067811865476,91.7877987534291,5.0990195135927845,10.198039027185567,21.095023109728988,22.20360331117452,31.25699921617557,53.60037313302959,43.41658669218482,39.5,26.0,38.0,1.0,21.0,9.0,3.0,9.055385138137416,9.219544457292889,10.0,37.0,23.0,34.52535300326414,{},{}
140,785,16,0,26.19283333333292,5.0990195135927845,87.46427842267951,5.0990195135927845,11.04536101718726,20.09975124224178,21.095023109728988,33.24154027718932,54.45181356024793,43.41658669218482,40.5,28.0,37.0,0.5,21.5,8.5,4.5,10.04987562112089,10.198039027185567,10.0,35.0,23.0,35.12833614050059,{},{}
141,786,16,0,26.226199999999583,3.1622776601683795,86.57944328765345,6.082762530298219,10.198039027185567,20.024984394500787,21.213203435596427,32.14031735997639,51.47815070493501,41.30375285612676,39.5,26.0,36.0,1.0,20.0,7.0,6.0,9.055385138137416,9.219544457292889,9.0,37.0,23.0,32.2490309931942,{},{}
142,787,16,0,26.25956666666625,2.23606797749979,85.37564055396598,6.0,11.04536101718726,20.024984394500787,21.02379604162864,33.13608305156178,52.23983154643591,41.19465984809196,40.0,28.0,36.0,1.0,20.0,7.0,5.0,11.04536101718726,10.198039027185567,10.5,36.0,24.0,35.22782990761707,{},{}
143,788,16,0,26.292933333332915,3.1622776601683795,85.28774824088158,5.0990195135927845,11.04536101718726,19.026297590440446,21.213203435596427,33.015148038438355,52.15361924162119,41.10960958218893,39.5,28.0,35.0,1.5,20.5,7.5,5.5,11.04536101718726,11.180339887498947,11.0,35.0,22.0,34.36568055487916,{},{}
144,789,16,0,26.32629999999958,2.0,86.28441342444185,6.082762530298219,11.180339887498947,22.09072203437452,23.08679276123039,33.015148038438355,52.15361924162119,41.04875150354759,40.0,29.0,36.0,0.5,19.5,6.5,5.5,11.180339887498947,11.04536101718726,11.0,35.0,23.0,32.14031735997639,{},{}
145,790,16,0,26.359666666666246,3.0,88.2779700718135,5.0990195135927845,13.038404810405298,22.02271554554524,23.08679276123039,33.06055050963308,54.147945482723536,41.10960958218893,39.5,28.0,35.0,1.5,22.5,7.5,5.5,12.041594578792296,12.041594578792296,12.0,35.0,23.0,34.132096331752024,{},{}
146,791,16,0,26.393033333332912,3.1622776601683795,88.2779700718135,6.082762530298219,12.041594578792296,23.08679276123039,25.079872407968907,32.01562118716424,53.150729063673246,41.10960958218893,39.5,29.0,36.0,0.5,20.5,5.5,4.5,9.055385138137416,9.055385138137416,9.0,34.0,23.0,32.2490309931942,{},{}
147,792,16,0,26.42639999999958,3.0,90.19977827023745,6.082762530298219,12.041594578792296,22.0,23.08679276123039,32.01562118716424,53.08483775994799,41.04875150354759,39.5,28.0,34.0,1.0,22.0,8.0,5.0,12.041594578792296,11.04536101718726,11.0,36.0,24.0,34.23448553724738,{},{}
148,793,16,0,26.459766666666244,3.1622776601683795,90.19977827023745,6.082762530298219,12.041594578792296,22.09072203437452,23.08679276123039,31.0,52.08646657242167,40.049968789001575,38.5,27.0,33.0,1.0,22.0,7.0,6.0,11.04536101718726,10.198039027185567,10.0,34.0,23.0,36.22154055254967,{},{}
149,794,16,0,26.49313333333291,3.1622776601683795,94.26027795418386,7.071067811865476,13.152946437965904,23.021728866442675,24.08318915758459,30.01666203960727,53.23532661682466,40.11234224026316,38.5,26.0,33.0,0.5,23.5,7.5,5.5,11.180339887498947,11.04536101718726,11.0,36.0,24.0,35.35533905932738,{},{}
150,795,16,0,26.526499999999576,3.1622776601683795,94.19129471453292,6.082762530298219,13.152946437965904,24.020824298928627,24.186773244895647,30.01666203960727,52.23983154643591,39.11521443121589,37.5,26.0,32.0,1.0,23.0,8.0,5.0,10.04987562112089,9.055385138137416,9.5,36.0,25.0,34.36568055487916,{},{}
151,796,16,0,26.55986666666624,3.0,95.1892851112981,7.071067811865476,13.038404810405298,23.08679276123039,24.08318915758459,29.0,52.03844732503075,39.01281840626232,37.5,25.0,31.0,1.0,24.0,8.0,7.0,6.0,7.071067811865476,7.0,36.0,25.0,32.14031735997639,{},{}
152,797,16,0,26.593233333332908,3.0,94.13288479590966,6.082762530298219,13.038404810405298,23.021728866442675,25.019992006393608,30.0,52.03844732503075,39.01281840626232,37.5,24.0,29.0,3.5,25.5,9.5,7.5,5.0990195135927845,5.385164807134504,5.5,37.0,27.0,36.12478373637688,{},{}
153,798,16,0,26.626599999999573,2.23606797749979,97.082439194738,6.0,13.038404810405298,26.019223662515376,27.018512172212592,30.0,51.03920062069938,38.01315561749642,37.0,25.0,29.0,3.0,24.0,8.0,7.0,6.082762530298219,7.071067811865476,6.5,35.0,28.0,34.132096331752024,{},{}
154,799,16,0,26.65996666666624,3.1622776601683795,99.02019995940222,6.082762530298219,13.0,26.0,26.0,29.017236257093817,51.0098029794274,38.01315561749642,36.5,24.0,26.0,4.0,26.0,10.0,8.0,6.082762530298219,6.082762530298219,5.5,33.0,29.0,38.05259518088089,{},{}
155,800,16,0,26.693333333332905,3.0,101.01980003939822,5.0990195135927845,11.0,26.019223662515376,27.018512172212592,29.068883707497267,48.010415536631214,37.01351104664349,35.5,25.0,23.0,5.0,24.0,11.0,7.0,5.0,6.082762530298219,5.5,31.0,29.0,38.0,{},{}
156,801,16,0,26.72669999999957,3.0,101.01980003939822,4.0,12.0,26.0,26.0,28.0,47.0,35.0,33.5,23.0,21.0,6.0,25.0,11.0,8.0,7.0,8.06225774829855,7.5,31.0,29.0,35.0,{},{}
157,802,16,0,26.76006666666624,3.0,105.04284840006956,5.0,12.0,28.0713376952364,29.017236257093817,27.0,47.0,35.0,33.5,22.0,19.0,6.5,26.5,13.5,8.5,8.0,9.0,8.5,31.0,31.0,35.0,{},{}
158,803,16,0,26.793433333332903,3.0,104.12012293500234,5.0990195135927845,11.04536101718726,28.0178514522438,29.068883707497267,27.018512172212592,46.09772228646444,35.05709628591621,33.5,23.0,18.0,6.5,25.5,12.5,8.5,7.0,8.0,8.0,30.0,32.0,35.0142828000232,{},{}
159,804,16,0,26.82679999999957,2.0,105.11898020814318,5.0990195135927845,13.038404810405298,28.0713376952364,29.068883707497267,27.073972741361768,47.16990566028302,34.132096331752024,33.0,22.0,17.0,7.5,27.5,13.5,8.5,8.0,9.055385138137416,8.5,30.0,33.0,34.0,{},{}
160,805,16,0,26.860166666666235,2.0,105.30432089900204,5.0990195135927845,12.041594578792296,28.0713376952364,30.066592756745816,25.179356624028344,44.28317965096906,32.2490309931942,31.0,21.0,13.0,8.0,27.0,13.0,9.0,7.0,8.06225774829855,8.0,26.0,32.0,35.0,{},{}
161,806,16,0,26.8935333333329,3.0,104.3072384832424,4.0,11.04536101718726,28.16025568065745,29.154759474226505,25.317977802344327,43.28972164382672,32.2490309931942,30.5,20.0,12.0,9.0,27.0,15.0,9.0,8.06225774829855,7.071067811865476,7.5,26.0,34.0,38.01315561749642,{},{}
162,807,16,0,26.926899999999566,3.0,105.47511554864494,4.123105625617661,12.16552506059644,30.14962686336267,31.25699921617557,24.515301344262525,43.73785545725808,31.575306807693888,29.5,20.0,10.0,9.0,28.0,15.0,9.0,6.324555320336759,8.06225774829855,8.0,23.0,33.0,35.12833614050059,{},{}
163,808,16,0,26.960266666666232,3.0,107.37783756436892,5.0,13.038404810405298,29.154759474226505,30.265491900843116,24.33105012119288,45.27692569068709,32.2490309931942,30.5,18.0,9.0,10.5,31.5,17.5,10.5,7.071067811865476,8.246211251235321,8.0,26.0,37.0,36.05551275463989,{},{}
164,809,16,0,26.99363333333289,4.47213595499958,107.46627377926528,5.0,14.0356688476182,29.154759474226505,31.25699921617557,23.345235059857504,46.52956049652737,32.55764119219941,30.0,17.0,7.0,11.0,34.0,18.0,11.0,10.198039027185567,9.055385138137416,9.5,30.0,37.0,36.05551275463989,{},{}
165,810,16,0,27.026999999999564,1.0,111.1125555461668,6.0,14.0356688476182,27.073972741361768,29.154759474226505,22.80350850198276,43.56604182158393,29.61418578992169,28.5,13.0,8.0,11.5,32.5,15.5,14.5,9.055385138137416,9.055385138137416,9.5,33.0,35.0,39.01281840626232,{},{}
166,811,16,0,27.06036666666623,3.1622776601683795,109.32977636490436,7.280109889280518,15.033296378372908,27.29468812791236,29.42787793912432,22.56102834535696,46.32493928760188,31.622776601683796,29.5,24.0,7.0,6.5,29.5,14.5,7.5,8.06225774829855,7.280109889280518,7.5,26.0,40.0,30.265491900843116,{},{}
167,826,16,1,27.56086666666621,8.06225774829855,97.67292357659824,6.082762530298219,13.341664064126334,23.769728648009423,25.96150997149434,37.21558813185679,64.00781202322104,51.15662224971465,47.0,40.0,58.0,12.0,15.0,3.0,4.0,13.601470508735444,16.1245154965971,15.0,37.0,14.0,29.120439557122072,{},{}
168,827,16,0,27.59423333333288,6.082762530298219,104.3072384832424,6.082762530298219,13.038404810405298,25.179356624028344,27.29468812791236,33.13608305156178,58.034472514187634,45.09988913511872,42.0,33.0,41.0,4.0,21.0,5.0,2.0,9.219544457292889,12.0,11.5,35.0,24.0,27.16615541441225,{},{}
169,828,16,0,27.62759999999955,3.0,111.04053313993047,6.0,14.0356688476182,27.018512172212592,28.0,29.068883707497267,52.08646657242167,38.05259518088089,36.5,26.0,23.0,4.5,27.5,12.5,8.5,6.082762530298219,9.055385138137416,8.5,33.0,35.0,26.019223662515376,{},{}
170,829,16,0,27.660966666666216,5.0,82.49242389456137,5.0990195135927845,14.0356688476182,24.08318915758459,25.079872407968907,23.769728648009423,47.29693436154187,33.52610922848042,30.0,26.0,17.0,1.5,24.5,9.5,3.5,9.055385138137416,9.055385138137416,9.5,30.0,43.0,20.615528128088304,{},{}
171,830,16,0,27.69433333333288,5.830951894845301,80.4114419718985,4.123105625617661,14.142135623730953,21.213203435596427,23.345235059857504,26.68332812825267,50.44799302251776,36.40054944640259,32.5,36.0,21.0,2.5,20.5,5.5,2.5,10.04987562112089,9.055385138137416,9.0,27.0,36.0,27.16615541441225,{},{}
172,831,16,0,27.727699999999547,4.123105625617661,101.1236866416568,4.123105625617661,12.041594578792296,26.019223662515376,27.018512172212592,27.29468812791236,47.51841748206689,35.510561809129406,33.0,25.0,20.0,4.5,24.5,10.5,5.5,9.0,10.04987562112089,10.0,27.0,33.0,36.013886210738214,{},{}
173,832,16,0,27.761066666666213,4.0,100.07996802557444,5.0,13.038404810405298,26.019223662515376,28.0178514522438,27.29468812791236,49.25444142409901,36.22154055254967,34.0,26.0,22.0,3.0,25.0,11.0,5.0,10.0,9.0,9.0,27.0,32.0,33.0,{},{}
174,833,16,0,27.79443333333288,5.0,100.0199980003999,5.0990195135927845,13.0,25.079872407968907,26.019223662515376,27.16615541441225,50.15974481593781,37.21558813185679,34.5,26.0,24.0,2.0,25.0,10.0,4.0,10.0,10.04987562112089,10.0,29.0,33.0,35.0,{},{}
175,834,16,0,27.827799999999545,4.0,98.00510190801292,5.0,12.0,26.0,26.019223662515376,29.27456233660889,50.15974481593781,38.2099463490856,36.0,27.0,26.0,2.5,23.5,10.5,5.5,12.0,11.04536101718726,11.5,28.0,32.0,35.0,{},{}
176,835,16,0,27.86116666666621,3.0,95.0,6.0,11.0,24.0,25.0,29.068883707497267,49.04079934095692,38.05259518088089,36.5,27.0,27.0,2.0,22.0,8.0,5.0,12.0,12.041594578792296,12.0,32.0,32.0,35.0142828000232,{},{}
177,836,16,0,27.89453333333288,2.0,93.0,5.0,12.0,24.0,26.0,32.2490309931942,51.15662224971465,39.20459156782532,38.0,29.0,29.0,3.0,22.0,8.0,6.0,12.0,12.0,12.5,30.0,31.0,32.0624390837628,{},{}
178,837,16,0,27.927899999999543,1.0,92.02173656261871,6.0,13.0,24.0,25.0,32.14031735997639,52.08646657242167,39.11521443121589,38.5,29.0,31.0,2.0,22.0,7.0,5.0,13.0,13.0,13.0,31.0,31.0,30.01666203960727,{},{}
179,838,16,0,27.96126666666621,2.0,89.0,6.0,14.0,24.0,25.0,31.144823004794876,53.08483775994799,39.11521443121589,38.0,31.0,31.0,0.0,22.0,6.0,3.0,12.0,12.0,12.5,32.0,31.0,31.016124838541646,{},{}
180,839,16,0,27.994633333332875,3.1622776601683795,88.02272433866155,5.0990195135927845,14.0356688476182,24.0,25.019992006393608,33.13608305156178,55.14526271584895,41.10960958218893,39.5,32.0,34.0,0.0,22.0,6.0,3.0,12.041594578792296,13.0,13.0,32.0,31.0,31.064449134018133,{},{}
181,840,16,0,28.02799999999954,5.0,87.05170877128145,5.0,13.0,23.0,25.019992006393608,32.14031735997639,55.08175741568164,42.1070065428546,39.5,32.0,35.0,1.5,21.5,5.5,1.5,12.041594578792296,12.0,12.5,32.0,30.0,31.016124838541646,{},{}
182,841,16,0,28.061366666666206,8.0,90.08884503644168,5.0,14.0,24.0,25.019992006393608,31.064449134018133,58.034472514187634,44.04543109109048,40.0,31.0,35.0,2.0,25.0,7.0,1.0,13.038404810405298,12.0,12.0,33.0,31.0,34.058772731852805,{},{}
183,842,16,0,28.094733333332872,8.06225774829855,94.02127418834527,5.0,13.0,26.0,27.0,30.066592756745816,56.00892785976178,43.01162633521314,39.0,34.0,36.0,5.0,21.0,5.0,2.0,12.0,12.0,12.0,31.0,29.0,33.015148038438355,{},{}
184,843,16,0,28.12809999999953,10.0,97.082439194738,4.0,13.038404810405298,27.018512172212592,27.018512172212592,29.154759474226505,56.0357029044876,43.10452412450461,38.0,32.0,36.0,5.0,22.0,6.0,2.0,12.0,13.0,13.0,29.0,28.0,35.05709628591621,{},{}
185,844,16,0,28.161466666666204,8.0,95.0473566176356,6.0,15.0,27.0,26.019223662515376,28.0178514522438,57.0087712549569,42.01190307520001,38.0,35.0,38.0,8.5,20.5,3.5,4.5,11.04536101718726,12.0,12.5,30.0,27.0,35.05709628591621,{},{}
186,845,16,0,28.19483333333287,12.0,99.08077512817508,7.0,15.033296378372908,28.0178514522438,29.017236257093817,27.0,61.00819617067857,46.0,40.0,34.0,38.0,9.0,25.0,7.0,3.0,12.041594578792296,14.0,14.0,32.0,29.0,35.05709628591621,{},{}
187,846,16,0,28.228199999999536,12.041594578792296,97.12878049270464,6.082762530298219,15.033296378372908,27.018512172212592,28.0178514522438,27.0,60.00833275470999,45.0,39.0,34.0,39.0,9.5,23.5,6.5,4.5,10.04987562112089,11.04536101718726,10.5,33.0,27.0,33.13608305156178,{},{}
188,847,16,0,28.2615666666662,14.0,96.13012014972206,6.0,15.033296378372908,28.0713376952364,29.017236257093817,27.018512172212592,62.03224967708329,47.01063709417264,40.0,34.0,39.0,9.5,25.5,7.5,3.5,6.082762530298219,8.06225774829855,7.5,35.0,28.0,35.12833614050059,{},{}
189,848,16,0,28.294933333332867,12.0,93.26306878931231,8.06225774829855,16.1245154965971,27.073972741361768,28.0713376952364,26.0768096208106,62.20128616033595,46.09772228646444,40.0,33.0,40.0,10.5,25.5,7.5,2.5,6.082762530298219,6.082762530298219,6.5,36.0,26.0,36.12478373637688,{},{}
190,849,16,0,28.328299999999533,10.0,92.26592003551474,8.06225774829855,15.033296378372908,24.020824298928627,26.0768096208106,27.29468812791236,60.29925372672534,45.27692569068709,40.0,31.0,38.0,7.5,25.5,7.5,0.5,7.071067811865476,8.246211251235321,7.5,36.0,25.0,35.22782990761707,{},{}
191,850,16,0,28.3616666666662,6.0,91.44397191723463,6.082762530298219,16.1245154965971,23.08679276123039,25.179356624028344,26.1725046566048,54.3323108288245,38.2099463490856,35.0,27.0,36.0,5.5,22.5,4.5,0.5,7.071067811865476,7.280109889280518,7.5,37.0,23.0,31.400636936215164,{},{}
192,851,16,0,28.395033333332865,7.0,89.45389874119518,5.0,15.033296378372908,22.09072203437452,23.194827009486403,27.29468812791236,54.230987451824994,39.20459156782532,35.5,27.0,36.0,4.5,22.5,5.5,0.5,8.246211251235321,8.246211251235321,8.5,37.0,22.0,37.48332962798263,{},{}
193,852,16,0,28.42839999999953,5.0,87.69264507357501,6.082762530298219,15.132745950421556,22.09072203437452,24.08318915758459,26.1725046566048,52.3450093132096,37.21558813185679,34.5,24.0,35.0,3.5,22.5,5.5,1.5,9.055385138137416,10.198039027185567,10.0,40.0,22.0,36.49657518178932,{},{}
194,853,16,0,28.4617666666662,5.0,87.69264507357501,6.082762530298219,14.0356688476182,22.02271554554524,23.08679276123039,27.073972741361768,52.15361924162119,38.11823710509184,35.5,25.0,36.0,3.5,21.5,5.5,1.5,10.198039027185567,10.44030650891055,11.0,41.0,22.0,36.6742416417845,{},{}
195,854,16,0,28.495133333332863,6.0,86.83317338436964,5.0990195135927845,14.142135623730953,21.095023109728988,22.09072203437452,28.16025568065745,53.33854141237835,39.20459156782532,36.0,25.0,37.0,3.0,22.0,5.0,1.0,11.180339887498947,10.198039027185567,11.0,40.0,21.0,35.510561809129406,{},{}
196,855,16,0,28.52849999999953,5.0990195135927845,82.73451516749222,5.385164807134504,15.132745950421556,20.024984394500787,21.095023109728988,28.16025568065745,53.33854141237835,38.2099463490856,35.5,26.0,37.0,3.5,21.5,4.5,0.5,10.198039027185567,11.40175425099138,10.5,40.0,20.0,31.78049716414141,{},{}
197,856,16,0,28.561866666666194,6.0,82.73451516749222,5.385164807134504,15.132745950421556,19.026297590440446,20.09975124224178,28.16025568065745,54.45181356024793,39.319206502675,36.0,27.0,38.0,4.5,21.5,3.5,0.5,10.198039027185567,11.40175425099138,11.5,39.0,20.0,33.734255586866,{},{}
198,857,16,0,28.59523333333286,5.0,81.88406438373708,5.385164807134504,14.142135623730953,20.024984394500787,21.095023109728988,28.16025568065745,52.46903848937962,38.3275357934736,35.5,26.0,38.0,4.0,20.0,3.0,0.0,10.198039027185567,10.198039027185567,10.5,40.0,20.0,32.7566787083184,{},{}
199,858,16,0,28.62859999999953,4.123105625617661,85.98837130682264,4.123105625617661,13.152946437965904,20.09975124224178,21.213203435596427,30.265491900843116,51.62363799656123,38.47076812334269,36.0,25.0,38.0,1.5,19.5,4.5,2.5,10.198039027185567,10.44030650891055,11.0,41.0,21.0,33.95585369269929,{},{}
200,859,16,0,28.661966666666192,2.0,86.83317338436964,5.0990195135927845,12.36931687685298,21.213203435596427,21.37755832643195,30.59411708155671,50.00999900019995,37.65634076752546,36.0,24.0,36.0,0.0,19.0,3.0,5.0,11.180339887498947,11.180339887498947,12.0,39.0,19.0,38.47076812334269,{},{}
201,860,16,0,28.69533333333285,1.0,87.69264507357501,6.082762530298219,13.152946437965904,19.235384061671343,20.223748416156685,30.59411708155671,50.80354318352215,37.65634076752546,36.5,25.0,36.0,0.5,19.5,3.5,4.5,10.198039027185567,11.180339887498947,11.5,40.0,21.0,34.52535300326414,{},{}
202,861,16,0,28.728699999999524,1.4142135623730951,89.67719888578144,6.082762530298219,12.16552506059644,19.1049731745428,21.213203435596427,32.38826948140329,51.78802950489621,39.6232255123179,38.5,26.0,37.0,0.5,19.5,4.5,5.5,10.198039027185567,10.04987562112089,11.0,39.0,21.0,34.52535300326414,{},{}
203,862,16,0,28.76206666666619,4.123105625617661,88.68483523128404,6.082762530298219,10.198039027185567,20.024984394500787,21.213203435596427,31.400636936215164,51.78802950489621,41.593268686170845,39.0,27.0,38.0,1.5,18.5,5.5,3.5,10.198039027185567,11.04536101718726,11.5,39.0,22.0,36.49657518178932,{},{}
204,863,16,0,28.795433333332856,4.0,87.46427842267951,6.324555320336759,10.198039027185567,21.213203435596427,21.37755832643195,31.400636936215164,51.78802950489621,41.593268686170845,39.0,31.0,40.0,4.5,15.5,3.5,1.5,10.198039027185567,11.180339887498947,11.5,40.0,23.0,33.54101966249684,{},{}
205,864,16,0,28.82879999999952,3.1622776601683795,88.68483523128404,6.324555320336759,12.041594578792296,20.09975124224178,22.20360331117452,30.59411708155671,51.97114584074513,40.024992192379,37.5,30.0,41.0,5.5,15.5,1.5,0.5,10.04987562112089,10.198039027185567,10.5,40.0,24.0,29.42787793912432,{},{}
206,865,16,0,28.862166666666187,4.123105625617661,90.6697303403953,7.071067811865476,11.180339887498947,22.20360331117452,22.20360331117452,30.59411708155671,52.952809179494906,41.77319714841085,39.0,31.0,42.0,6.5,15.5,1.5,0.5,9.055385138137416,9.219544457292889,9.5,40.0,22.0,33.734255586866,{},{}
207,866,16,0,28.895533333332853,5.0990195135927845,89.67719888578144,7.071067811865476,12.16552506059644,22.20360331117452,23.345235059857504,29.42787793912432,53.75872022286245,41.593268686170845,38.5,31.0,42.0,7.5,16.5,2.5,0.5,10.198039027185567,11.180339887498947,11.0,38.0,22.0,38.3275357934736,{},{}
208,867,16,0,28.92889999999952,5.0990195135927845,89.67719888578144,8.06225774829855,13.152946437965904,23.194827009486403,24.186773244895647,29.42787793912432,55.731499172371095,42.579337712087536,39.5,31.0,42.0,7.5,18.5,2.5,0.5,11.180339887498947,11.04536101718726,12.0,39.0,24.0,37.33630940518894,{},{}
209,868,16,0,28.962266666666185,6.324555320336759,88.68483523128404,8.06225774829855,14.142135623730953,23.194827009486403,24.186773244895647,29.42787793912432,57.87054518492115,43.73785545725808,40.0,32.0,43.0,8.5,19.5,3.5,0.5,10.198039027185567,10.198039027185567,11.0,39.0,22.0,38.47076812334269,{},{}
210,869,16,0,28.99563333333285,7.071067811865476,89.67719888578144,6.324555320336759,13.152946437965904,21.095023109728988,22.20360331117452,31.400636936215164,57.87054518492115,44.7213595499958,40.5,32.0,43.0,6.5,19.5,4.5,0.5,10.198039027185567,10.198039027185567,10.5,40.0,23.0,35.510561809129406,{},{}
211,870,16,0,29.02899999999952,7.071067811865476,87.69264507357501,5.0990195135927845,11.180339887498947,22.09072203437452,23.194827009486403,33.37663853655727,56.71860364994893,45.5411901469428,41.5,32.0,43.0,4.5,18.5,4.5,0.5,6.082762530298219,7.280109889280518,7.0,39.0,23.0,39.11521443121589,{},{}
212,871,16,0,29.062366666666183,3.1622776601683795,86.57944328765345,5.0990195135927845,9.055385138137416,22.20360331117452,23.08679276123039,33.37663853655727,50.635955604688654,41.593268686170845,39.5,30.0,40.0,2.0,15.0,4.0,3.0,5.0990195135927845,5.385164807134504,5.0,40.0,24.0,33.24154027718932,{},{}
213,872,16,0,29.09573333333285,3.1622776601683795,91.44397191723463,7.071067811865476,9.219544457292889,24.08318915758459,24.08318915758459,32.2490309931942,51.62363799656123,42.42640687119285,40.5,31.0,40.0,3.5,15.5,4.5,3.5,7.071067811865476,7.280109889280518,7.0,39.0,24.0,33.24154027718932,{},{}
214,873,16,0,29.129099999999514,2.23606797749979,88.36288813749809,7.071067811865476,8.06225774829855,22.02271554554524,23.08679276123039,33.24154027718932,50.48762224545735,42.42640687119285,41.0,33.0,41.0,4.0,13.0,3.0,2.0,7.071067811865476,7.280109889280518,7.0,39.0,25.0,32.2490309931942,{},{}
215,874,16,0,29.16246666666618,1.4142135623730951,90.35485598461214,9.055385138137416,8.246211251235321,23.08679276123039,23.08679276123039,29.27456233660889,47.67598976424087,39.45883931389772,38.5,32.0,40.0,7.0,11.0,1.0,2.0,8.06225774829855,9.055385138137416,8.5,38.0,24.0,32.2490309931942,{},{}
216,875,16,0,29.19583333333285,0.0,92.26592003551474,8.06225774829855,8.246211251235321,21.02379604162864,22.09072203437452,28.16025568065745,44.40720662234904,36.22154055254967,36.0,32.0,39.0,7.5,8.5,1.5,0.5,8.06225774829855,9.055385138137416,9.0,37.0,24.0,32.2490309931942,{},{}
217,876,16,0,29.229199999999512,1.0,95.13148795220224,8.0,7.071067811865476,22.09072203437452,22.09072203437452,25.179356624028344,40.311288741492746,33.24154027718932,33.0,33.0,38.0,10.5,4.5,4.5,2.5,10.04987562112089,10.04987562112089,10.0,39.0,24.0,29.42787793912432,{},{}
218,877,16,0,29.26256666666617,1.0,92.0869154657707,8.06225774829855,9.219544457292889,23.021728866442675,22.20360331117452,22.09072203437452,38.3275357934736,29.154759474226505,29.5,33.0,37.0,13.0,3.0,7.0,5.0,11.180339887498947,10.04987562112089,10.0,38.0,24.0,33.37663853655727,{},{}
219,878,16,0,29.295933333332844,1.0,91.13725912051558,8.06225774829855,10.04987562112089,23.021728866442675,23.194827009486403,21.095023109728988,38.2099463490856,28.16025568065745,28.5,33.0,38.0,14.5,2.5,8.5,6.5,10.04987562112089,10.04987562112089,9.5,37.0,23.0,30.265491900843116,{},{}
220,879,16,0,29.32929999999951,1.0,90.0499861188218,7.071067811865476,9.219544457292889,21.095023109728988,22.09072203437452,22.02271554554524,37.21558813185679,28.0713376952364,28.5,34.0,37.0,13.5,1.5,8.5,5.5,10.04987562112089,9.219544457292889,9.5,38.0,23.0,29.42787793912432,{},{}
221,880,16,0,29.362666666666176,1.0,87.09190547921202,8.06225774829855,8.06225774829855,20.024984394500787,20.09975124224178,23.021728866442675,38.11823710509184,30.066592756745816,30.5,35.0,39.0,14.0,1.0,8.0,6.0,10.198039027185567,11.180339887498947,10.5,38.0,24.0,27.459060435491963,{},{}
222,881,16,0,29.39603333333284,1.0,87.14355971613737,6.082762530298219,7.071067811865476,23.08679276123039,22.20360331117452,26.019223662515376,39.20459156782532,32.14031735997639,32.0,35.0,40.0,11.5,1.5,6.5,5.5,10.04987562112089,9.219544457292889,9.0,38.0,23.0,29.27456233660889,{},{}
223,882,16,0,29.429399999999507,1.0,84.2140130857092,9.055385138137416,9.219544457292889,22.20360331117452,23.08679276123039,24.020824298928627,42.2965719651132,33.13608305156178,33.0,35.0,41.0,14.0,4.0,7.0,4.0,7.071067811865476,8.246211251235321,8.0,38.0,25.0,31.25699921617557,{},{}
224,883,16,0,29.462766666666173,1.4142135623730951,84.38009243891595,9.055385138137416,10.04987562112089,23.194827009486403,23.194827009486403,25.019992006393608,45.17742799230607,35.12833614050059,34.5,36.0,44.0,15.0,5.0,7.0,5.0,8.06225774829855,10.44030650891055,10.0,39.0,25.0,31.400636936215164,{},{}
225,884,16,0,29.49613333333284,1.0,84.38009243891595,10.04987562112089,10.198039027185567,24.186773244895647,24.186773244895647,25.079872407968907,46.2709412050371,36.12478373637688,35.5,37.0,45.0,16.0,5.0,7.0,5.0,9.055385138137416,10.198039027185567,9.5,39.0,25.0,32.2490309931942,{},{}
226,885,16,0,29.529499999999505,1.4142135623730951,83.38465086573187,12.041594578792296,14.142135623730953,22.20360331117452,24.33105012119288,24.08318915758459,51.35172830587107,37.21558813185679,36.5,38.0,46.0,18.0,9.0,7.0,5.0,6.082762530298219,8.54400374531753,7.5,39.0,25.0,32.2490309931942,{},{}
227,886,16,0,29.56286666666617,3.0,86.46964785403026,11.04536101718726,15.132745950421556,25.079872407968907,26.1725046566048,25.179356624028344,54.3323108288245,39.20459156782532,37.5,37.0,46.0,16.5,12.5,5.5,5.5,8.06225774829855,9.486832980505138,8.5,40.0,25.0,32.2490309931942,{},{}
228,887,16,0,29.59623333333284,3.605551275463989,92.43916918709296,10.04987562112089,15.132745950421556,25.179356624028344,27.16615541441225,29.068883707497267,57.42821606144492,42.2965719651132,40.5,35.0,44.0,10.5,17.5,0.5,0.5,10.198039027185567,10.198039027185567,9.5,39.0,24.0,31.400636936215164,{},{}
229,888,16,0,29.629599999999503,1.4142135623730951,95.42536350467836,12.16552506059644,16.1245154965971,27.073972741361768,29.154759474226505,29.068883707497267,58.42088667591412,42.2965719651132,41.5,36.0,45.0,11.5,17.5,1.5,0.5,11.180339887498947,11.04536101718726,11.0,38.0,24.0,32.38826948140329,{},{}
230,889,16,0,29.66296666666617,6.082762530298219,96.51942809610924,12.16552506059644,14.142135623730953,27.16615541441225,29.154759474226505,28.0713376952364,60.40695324215582,46.2709412050371,43.0,34.0,44.0,11.0,21.0,4.0,1.0,12.16552506059644,11.180339887498947,11.5,40.0,26.0,33.24154027718932,{},{}
231,890,16,0,29.696333333332834,11.04536101718726,98.73196037757988,11.04536101718726,14.142135623730953,26.0768096208106,27.29468812791236,27.073972741361768,63.28506932918696,49.16299421312742,43.5,34.0,46.0,13.0,23.0,6.0,2.0,14.142135623730953,13.038404810405298,13.0,44.0,28.0,36.22154055254967,{},{}
232,891,16,0,29.7296999999995,18.027756377319943,100.71742649611338,9.055385138137416,11.180339887498947,26.1725046566048,28.284271247461906,27.16615541441225,65.37583651472461,54.230987451824994,45.0,35.0,47.0,14.0,24.0,10.0,5.0,13.152946437965904,13.152946437965904,13.0,46.0,31.0,38.3275357934736,{},{}
233,892,16,0,29.76306666666617,19.026297590440446,96.87620966986684,6.082762530298219,9.486832980505138,25.179356624028344,26.1725046566048,31.144823004794876,65.49045732013177,56.22277118748239,46.5,33.0,46.0,8.5,25.5,12.5,2.5,15.132745950421556,14.142135623730953,14.0,51.0,34.0,43.41658669218482,{},{}
234,893,16,0,29.796433333332832,2.23606797749979,87.82368700982668,5.0990195135927845,10.198039027185567,23.08679276123039,23.194827009486403,34.132096331752024,51.47815070493501,41.30375285612676,40.0,36.0,48.0,8.0,9.0,3.0,3.0,14.317821063276352,14.142135623730953,14.0,50.0,35.0,41.30375285612676,{},{}
235,894,16,0,29.82979999999949,8.06225774829855,91.92388155425118,5.0990195135927845,10.198039027185567,22.20360331117452,23.194827009486403,33.13608305156178,56.43580423808985,46.2709412050371,42.0,33.0,46.0,6.5,16.5,3.5,1.5,14.142135623730953,14.0356688476182,14.0,52.0,35.0,47.265209192385896,{},{}
236,895,16,0,29.863166666666164,1.0,89.67719888578144,5.0990195135927845,9.219544457292889,22.20360331117452,22.09072203437452,34.23448553724738,48.66210024238576,39.45883931389772,39.0,33.0,44.0,4.5,9.5,1.5,0.5,15.297058540778355,15.033296378372908,15.0,53.0,36.0,46.2709412050371,{},{}
237,896,16,0,29.89653333333283,1.4142135623730951,90.6697303403953,5.0990195135927845,9.219544457292889,23.08679276123039,23.194827009486403,31.25699921617557,46.69047011971501,37.48332962798263,36.5,32.0,43.0,6.5,8.5,2.5,1.5,14.142135623730953,14.0356688476182,14.5,54.0,36.0,44.40720662234904,{},{}
238,897,16,0,29.92989999999949,1.0,91.6624241442479,5.0990195135927845,10.198039027185567,23.08679276123039,24.186773244895647,31.25699921617557,46.69047011971501,36.49657518178932,36.0,30.0,41.0,4.5,10.5,1.5,0.5,15.297058540778355,14.142135623730953,15.0,55.0,35.0,42.579337712087536,{},{}
239,898,16,0,29.96326666666616,3.0,89.56003573022959,4.123105625617661,10.198039027185567,23.08679276123039,24.186773244895647,31.400636936215164,48.66210024238576,38.47076812334269,36.5,31.0,41.0,5.0,12.0,1.0,1.0,16.1245154965971,15.033296378372908,15.5,54.0,35.0,45.39823785126467,{},{}
240,899,16,0,29.996633333332827,10.0,88.81441324469807,5.0990195135927845,13.341664064126334,25.079872407968907,26.1725046566048,29.27456233660889,57.55866572463264,44.28317965096906,39.0,30.0,42.0,7.0,21.0,4.0,2.0,13.152946437965904,13.038404810405298,13.5,56.0,37.0,46.389654018972806,{},{}
241,900,16,0,30.029999999999493,8.0,85.70880934886448,5.0990195135927845,15.297058540778355,24.08318915758459,26.0768096208106,30.14962686336267,58.42088667591412,43.18564576337837,39.0,30.0,41.0,5.5,22.5,5.5,1.5,13.152946437965904,13.152946437965904,13.5,54.0,36.0,45.39823785126467,{},{}
242,901,16,0,30.06336666666616,5.0,86.83317338436964,5.0990195135927845,13.152946437965904,23.08679276123039,24.08318915758459,29.27456233660889,52.46903848937962,39.319206502675,36.5,27.0,39.0,4.0,19.0,3.0,0.0,13.152946437965904,12.16552506059644,12.5,52.0,34.0,43.28972164382672,{},{}
243,902,16,0,30.096733333332825,2.0,87.69264507357501,4.123105625617661,12.16552506059644,23.021728866442675,24.08318915758459,31.25699921617557,49.49747468305833,37.33630940518894,36.0,27.0,38.0,1.5,16.5,1.5,1.5,12.16552506059644,12.16552506059644,12.5,49.0,32.0,40.44749683231337,{},{}
244,903,16,0,30.13009999999949,1.0,87.69264507357501,5.0990195135927845,12.16552506059644,22.09072203437452,24.08318915758459,31.25699921617557,48.66210024238576,36.49657518178932,36.0,25.0,36.0,0.5,17.5,2.5,4.5,11.40175425099138,11.180339887498947,11.5,47.0,30.0,37.48332962798263,{},{}
245,904,16,0,30.16346666666616,1.0,88.56635930193812,4.123105625617661,11.180339887498947,24.08318915758459,24.186773244895647,32.2490309931942,48.507731342539614,37.33630940518894,36.5,26.0,36.0,1.0,17.0,3.0,4.0,8.54400374531753,8.246211251235321,8.0,45.0,28.0,36.49657518178932,{},{}
246,905,16,0,30.196833333332822,2.0,91.54780172128658,5.385164807134504,12.16552506059644,24.08318915758459,26.1725046566048,31.400636936215164,50.80354318352215,38.63935817272331,37.0,25.0,35.0,1.0,20.0,5.0,4.0,8.246211251235321,8.246211251235321,8.5,44.0,27.0,35.510561809129406,{},{}
247,906,16,0,30.23019999999949,8.06225774829855,90.55385138137416,4.123105625617661,11.180339887498947,23.08679276123039,24.08318915758459,30.265491900843116,53.60037313302959,42.42640687119285,38.0,26.0,36.0,1.0,22.0,9.0,2.0,8.06225774829855,9.219544457292889,9.0,43.0,26.0,34.52535300326414,{},{}
248,907,16,0,30.263566666666154,7.0,91.54780172128658,4.123105625617661,12.16552506059644,23.08679276123039,24.08318915758459,29.42787793912432,52.61178575186362,40.44749683231337,36.5,24.0,34.0,0.0,23.0,9.0,3.0,8.246211251235321,9.486832980505138,9.0,43.0,26.0,31.400636936215164,{},{}
249,908,16,0,30.29693333333282,16.0312195418814,93.64827814754524,4.123105625617661,13.152946437965904,23.194827009486403,26.1725046566048,28.442925306655784,61.66036003787198,48.507731342539614,40.0,25.0,36.0,2.5,30.5,14.5,1.5,10.198039027185567,11.180339887498947,11.0,43.0,26.0,33.37663853655727,{},{}
250,909,16,0,30.33029999999949,12.041594578792296,94.5304183847718,4.123105625617661,12.16552506059644,25.179356624028344,26.1725046566048,27.459060435491963,55.731499172371095,43.56604182158393,37.0,22.0,32.0,0.0,28.0,13.0,3.0,9.219544457292889,9.219544457292889,9.5,43.0,24.0,33.54101966249684,{},{}
251,910,16,0,30.363666666666152,8.0,93.43446901438462,4.123105625617661,12.041594578792296,24.020824298928627,27.16615541441225,25.495097567963924,49.49747468305833,37.48332962798263,33.0,20.0,29.0,0.5,24.5,9.5,3.5,10.198039027185567,9.219544457292889,9.0,43.0,26.0,33.54101966249684,{},{}
252,911,16,0,30.397033333332818,7.0,94.5304183847718,4.123105625617661,13.152946437965904,23.021728866442675,24.186773244895647,25.317977802344327,49.49747468305833,36.345563690772494,32.5,19.0,29.0,1.0,25.0,9.0,4.0,8.246211251235321,8.54400374531753,8.0,43.0,26.0,32.2490309931942,{},{}
253,912,16,0,30.430399999999484,7.071067811865476,94.5304183847718,5.0990195135927845,14.142135623730953,24.020824298928627,26.1725046566048,25.495097567963924,51.47815070493501,37.33630940518894,33.5,19.0,29.0,1.0,27.0,10.0,4.0,9.055385138137416,8.246211251235321,8.5,42.0,25.0,31.25699921617557,{},{}
254,913,16,0,30.46376666666615,10.0,89.45389874119518,4.123105625617661,14.142135623730953,22.02271554554524,24.08318915758459,25.495097567963924,53.60037313302959,39.45883931389772,34.0,21.0,30.0,0.5,27.5,10.5,2.5,9.055385138137416,9.486832980505138,9.0,42.0,25.0,30.4138126514911,{},{}
255,914,16,0,30.49713333333281,10.04987562112089,90.448880590088,3.1622776601683795,14.142135623730953,24.020824298928627,25.079872407968907,26.68332812825267,53.9351462406472,39.81205847478876,34.0,22.0,31.0,0.5,26.5,10.5,1.5,7.280109889280518,7.615773105863909,7.0,41.0,24.0,30.4138126514911,{},{}
256,915,16,0,30.53049999999948,11.0,87.5728268357257,3.1622776601683795,14.142135623730953,22.02271554554524,24.08318915758459,26.476404589747453,54.589376255824725,40.44749683231337,34.5,21.0,31.0,0.0,28.0,11.0,2.0,8.246211251235321,8.54400374531753,8.0,42.0,24.0,30.4138126514911,{},{}
257,916,16,0,30.563866666666147,7.071067811865476,88.56635930193812,5.0990195135927845,14.142135623730953,22.09072203437452,25.079872407968907,26.476404589747453,52.773099207835045,38.63935817272331,34.5,22.0,32.0,1.0,25.0,8.0,3.0,9.055385138137416,9.486832980505138,8.5,43.0,23.0,34.36568055487916,{},{}
258,917,16,0,30.597233333332813,6.082762530298219,85.70880934886448,5.0990195135927845,13.152946437965904,22.09072203437452,23.194827009486403,27.29468812791236,51.62363799656123,38.47076812334269,35.0,23.0,34.0,1.5,22.5,6.5,2.5,11.180339887498947,11.180339887498947,11.0,40.0,23.0,34.52535300326414,{},{}
259,918,16,0,30.63059999999948,3.1622776601683795,88.81441324469807,5.0990195135927845,11.180339887498947,24.08318915758459,24.186773244895647,28.635642126552707,48.05205510693585,36.87817782917155,34.5,22.0,34.0,0.0,19.0,4.0,4.0,8.246211251235321,9.486832980505138,8.5,42.0,24.0,30.4138126514911,{},{}
260,919,16,0,30.663966666666145,1.4142135623730951,89.80534505250787,4.123105625617661,12.16552506059644,24.08318915758459,25.179356624028344,30.59411708155671,48.05205510693585,35.90264614203248,34.5,22.0,34.0,2.0,19.0,4.0,5.0,9.055385138137416,9.055385138137416,9.0,41.0,24.0,29.42787793912432,{},{}
261,920,16,0,30.69733333333281,3.1622776601683795,89.94442728707543,4.123105625617661,12.16552506059644,24.08318915758459,25.179356624028344,29.61418578992169,49.03060268852505,36.87817782917155,34.5,22.0,35.0,0.5,19.5,3.5,3.5,10.198039027185567,10.198039027185567,10.0,41.0,23.0,25.317977802344327,{},{}
262,921,16,0,30.73069999999948,4.123105625617661,88.68483523128404,4.123105625617661,13.152946437965904,23.08679276123039,24.186773244895647,29.61418578992169,50.99019513592785,37.8549864614954,35.0,23.0,34.0,0.5,21.5,5.5,3.5,10.198039027185567,10.198039027185567,10.0,41.0,23.0,26.476404589747453,{},{}
263,922,16,0,30.764066666666142,6.082762530298219,88.68483523128404,5.0990195135927845,13.152946437965904,22.09072203437452,23.194827009486403,28.442925306655784,52.773099207835045,39.6232255123179,36.0,24.0,35.0,1.5,22.5,6.5,2.5,10.04987562112089,10.198039027185567,10.5,41.0,23.0,32.38826948140329,{},{}
264,923,16,0,30.79743333333281,6.082762530298219,86.70063436907483,5.385164807134504,14.142135623730953,21.02379604162864,23.194827009486403,28.442925306655784,53.60037313302959,39.45883931389772,36.0,25.0,36.0,2.5,22.5,5.5,1.5,12.16552506059644,11.180339887498947,11.5,41.0,24.0,36.345563690772494,{},{}
265,924,16,0,30.83079999999948,4.0,86.70063436907483,4.123105625617661,14.142135623730953,21.02379604162864,23.08679276123039,28.442925306655784,50.635955604688654,36.49657518178932,34.0,24.0,35.0,1.5,20.5,4.5,1.5,11.04536101718726,11.04536101718726,11.5,39.0,22.0,37.48332962798263,{},{}
266,925,16,0,30.86416666666614,3.0,85.70880934886448,5.0990195135927845,14.142135623730953,24.020824298928627,25.079872407968907,29.42787793912432,51.62363799656123,37.48332962798263,35.5,25.0,36.0,1.5,20.5,3.5,1.5,11.04536101718726,10.198039027185567,11.0,41.0,23.0,34.36568055487916,{},{}
267,926,16,0,30.89753333333281,4.0,85.84287972802403,5.0990195135927845,14.142135623730953,24.020824298928627,24.08318915758459,28.442925306655784,51.62363799656123,37.48332962798263,35.0,24.0,36.0,2.0,21.0,4.0,2.0,11.180339887498947,11.180339887498947,11.0,42.0,23.0,30.4138126514911,{},{}
268,927,16,0,30.930899999999472,3.1622776601683795,85.98837130682264,5.0990195135927845,15.132745950421556,23.08679276123039,24.186773244895647,29.42787793912432,52.773099207835045,37.65634076752546,35.5,23.0,36.0,0.5,22.5,4.5,3.5,11.180339887498947,11.180339887498947,11.0,40.0,21.0,34.36568055487916,{},{}
269,928,16,0,30.964266666666138,4.123105625617661,83.86298349093002,5.0990195135927845,14.142135623730953,21.02379604162864,23.194827009486403,30.4138126514911,53.75872022286245,39.6232255123179,37.0,26.0,38.0,2.0,21.0,5.0,2.0,12.16552506059644,12.16552506059644,12.0,41.0,23.0,33.37663853655727,{},{}
270,929,16,0,30.997633333332804,4.0,84.01190391843289,5.0990195135927845,14.317821063276352,22.09072203437452,24.186773244895647,30.59411708155671,53.9351462406472,39.6232255123179,37.0,25.0,38.0,1.5,21.5,3.5,2.5,10.04987562112089,10.198039027185567,10.5,42.0,22.0,34.36568055487916,"{'smile': ['m3', 'm12']}","{'smile': [929, 967]}"
271,930,16,0,31.03099999999947,4.123105625617661,86.97700845625813,5.0990195135927845,14.142135623730953,22.09072203437452,24.33105012119288,30.4138126514911,53.75872022286245,39.6232255123179,37.0,25.0,38.0,1.5,21.5,4.5,2.5,7.071067811865476,7.615773105863909,7.0,42.0,22.0,33.54101966249684,"{'smile': ['m3', 'm12']}","{'smile': [929, 967]}"
272,931,16,0,31.06436666666613,1.4142135623730951,85.0,5.0990195135927845,13.152946437965904,22.09072203437452,23.194827009486403,31.400636936215164,50.80354318352215,37.65634076752546,36.5,25.0,38.0,0.5,18.5,2.5,3.5,8.246211251235321,10.44030650891055,9.5,41.0,21.0,28.635642126552707,"{'smile': ['m3', 'm12']}","{'smile': [929, 967]}"
273,932,16,0,31.0977333333328,2.0,85.98837130682264,4.123105625617661,12.16552506059644,22.09072203437452,23.194827009486403,32.55764119219941,50.80354318352215,38.63935817272331,37.0,25.0,38.0,0.5,18.5,3.5,3.5,8.06225774829855,8.54400374531753,8.0,41.0,21.0,31.400636936215164,"{'smile': ['m3', 'm12']}","{'smile': [929, 967]}"
274,933,16,0,31.131099999999467,3.0,85.84287972802403,4.47213595499958,14.142135623730953,21.095023109728988,22.20360331117452,31.25699921617557,52.61178575186362,38.47076812334269,36.5,25.0,37.0,0.0,21.0,4.0,4.0,8.06225774829855,8.246211251235321,8.0,41.0,20.0,34.52535300326414,"{'smile': ['m3', 'm12']}","{'smile': [929, 967]}"
275,934,16,0,31.164466666666133,4.0,85.84287972802403,5.385164807134504,15.132745950421556,21.02379604162864,23.08679276123039,29.42787793912432,53.75872022286245,38.63935817272331,36.0,24.0,36.0,1.0,23.0,5.0,3.0,8.246211251235321,8.246211251235321,8.0,40.0,21.0,33.37663853655727,"{'smile': ['m3', 'm12']}","{'smile': [929, 967]}"
276,935,16,0,31.1978333333328,6.0,86.83317338436964,5.0990195135927845,15.132745950421556,21.02379604162864,23.08679276123039,28.442925306655784,54.589376255824725,39.45883931389772,36.0,25.0,37.0,3.0,23.0,5.0,1.0,9.055385138137416,9.219544457292889,8.5,42.0,22.0,27.65863337187866,"{'smile': ['m3', 'm12']}","{'smile': [929, 967]}"
277,936,16,0,31.231199999999465,4.0,87.82368700982668,5.0990195135927845,15.132745950421556,23.08679276123039,24.186773244895647,29.8328677803526,53.9351462406472,38.8329756778952,36.0,24.0,36.0,1.0,23.0,5.0,3.0,9.219544457292889,9.486832980505138,9.5,40.0,20.0,32.38826948140329,"{'smile': ['m3', 'm12']}","{'smile': [929, 967]}"
278,937,16,0,31.26456666666613,2.0,87.96590248499699,5.385164807134504,14.142135623730953,23.021728866442675,24.33105012119288,29.42787793912432,50.80354318352215,36.6742416417845,35.0,23.0,36.0,0.5,20.5,3.5,2.5,9.219544457292889,10.44030650891055,10.5,42.0,22.0,34.52535300326414,"{'smile': ['m3', 'm12']}","{'smile': [929, 967]}"
279,938,16,0,31.2979333333328,3.0,87.96590248499699,4.47213595499958,14.142135623730953,23.08679276123039,23.194827009486403,30.4138126514911,51.78802950489621,37.65634076752546,35.5,24.0,37.0,0.5,20.5,3.5,2.5,10.04987562112089,10.198039027185567,10.5,41.0,21.0,34.36568055487916,"{'smile': ['m3', 'm12']}","{'smile': [929, 967]}"
280,939,16,0,31.331299999999462,3.0,89.10667763978185,4.123105625617661,13.152946437965904,22.09072203437452,23.194827009486403,30.59411708155671,50.80354318352215,37.65634076752546,35.5,23.0,37.0,0.0,20.0,4.0,3.0,10.198039027185567,11.180339887498947,11.5,41.0,20.0,33.734255586866,"{'smile': ['m3', 'm12']}","{'smile': [929, 967]}"
281,940,16,0,31.36466666666613,3.1622776601683795,87.96590248499699,5.0990195135927845,14.142135623730953,22.09072203437452,23.194827009486403,28.442925306655784,50.80354318352215,36.6742416417845,34.5,23.0,36.0,1.5,20.5,3.5,2.5,11.180339887498947,11.40175425099138,11.0,41.0,20.0,33.54101966249684,"{'smile': ['m3', 'm12']}","{'smile': [929, 967]}"
282,941,16,0,31.3980333333328,3.1622776601683795,88.28363381737297,6.324555320336759,13.152946437965904,22.20360331117452,24.186773244895647,29.27456233660889,51.78802950489621,38.63935817272331,36.5,23.0,38.0,1.5,20.5,3.5,3.5,10.44030650891055,10.198039027185567,10.5,42.0,20.0,34.713109915419565,"{'smile': ['m3', 'm12']}","{'smile': [929, 967]}"
283,942,16,0,31.43139999999946,4.123105625617661,89.26925562588724,5.0990195135927845,14.142135623730953,22.20360331117452,23.345235059857504,29.42787793912432,52.773099207835045,38.63935817272331,36.0,23.0,38.0,1.5,21.5,4.5,3.5,11.180339887498947,10.44030650891055,10.5,42.0,20.0,31.575306807693888,"{'smile': ['m3', 'm12']}","{'smile': [929, 967]}"
284,943,16,0,31.46476666666613,4.0,88.11923740024082,6.324555320336759,13.341664064126334,22.09072203437452,24.33105012119288,29.27456233660889,52.773099207835045,39.45883931389772,37.0,24.0,38.0,2.0,21.0,5.0,3.0,12.36931687685298,11.180339887498947,11.5,42.0,20.0,34.713109915419565,"{'smile': ['m3', 'm12']}","{'smile': [929, 967]}"
285,944,16,0,31.49813333333279,4.123105625617661,89.10667763978185,6.324555320336759,12.16552506059644,21.213203435596427,22.360679774997894,30.4138126514911,52.952809179494906,40.79215610874228,38.0,26.0,40.0,3.0,19.0,3.0,2.0,11.180339887498947,11.40175425099138,11.0,41.0,18.0,32.55764119219941,"{'smile': ['m3', 'm12']}","{'smile': [929, 967]}"
286,945,16,0,31.531499999999458,5.0990195135927845,90.2551937563706,5.0990195135927845,12.16552506059644,21.095023109728988,23.345235059857504,30.59411708155671,52.952809179494906,40.79215610874228,37.5,25.0,40.0,2.5,19.5,3.5,1.5,11.40175425099138,11.40175425099138,11.5,42.0,19.0,32.01562118716424,"{'smile': ['m3', 'm12']}","{'smile': [929, 967]}"
287,946,16,0,31.564866666666124,6.0,88.28363381737297,5.385164807134504,11.40175425099138,22.09072203437452,22.360679774997894,31.400636936215164,53.9351462406472,42.579337712087536,39.0,26.0,41.0,2.5,19.5,4.5,1.5,11.180339887498947,11.40175425099138,11.5,43.0,18.0,33.734255586866,"{'smile': ['m3', 'm12']}","{'smile': [929, 967]}"
288,947,16,0,31.59823333333279,5.0990195135927845,89.10667763978185,6.082762530298219,11.40175425099138,21.095023109728988,22.360679774997894,30.4138126514911,52.952809179494906,41.593268686170845,38.5,27.0,41.0,4.0,18.0,4.0,1.0,11.180339887498947,11.40175425099138,11.0,42.0,19.0,32.7566787083184,"{'smile': ['m3', 'm12']}","{'smile': [929, 967]}"
289,948,16,0,31.63159999999945,6.082762530298219,89.26925562588724,6.324555320336759,10.44030650891055,22.20360331117452,22.360679774997894,31.25699921617557,53.9351462406472,43.56604182158393,40.0,28.0,43.0,4.5,17.5,4.5,1.5,10.198039027185567,11.40175425099138,11.0,42.0,18.0,32.55764119219941,"{'smile': ['m3', 'm12']}","{'smile': [929, 967]}"
290,949,16,0,31.66496666666612,4.123105625617661,88.45903006477066,7.280109889280518,11.40175425099138,21.213203435596427,22.360679774997894,31.400636936215164,54.12947441089743,42.7551166528639,40.0,28.0,44.0,5.0,17.0,3.0,2.0,10.198039027185567,10.44030650891055,10.5,43.0,18.0,33.734255586866,"{'smile': ['m3', 'm12']}","{'smile': [929, 967]}"
291,950,16,0,31.698333333332787,7.071067811865476,88.64536084872124,6.324555320336759,11.704699910719626,21.37755832643195,22.80350850198276,31.400636936215164,56.29387178015028,44.7213595499958,40.5,28.0,45.0,5.5,18.5,3.5,1.5,10.198039027185567,11.180339887498947,11.5,43.0,19.0,34.20526275297414,"{'smile': ['m3', 'm12']}","{'smile': [929, 967]}"
292,951,16,0,31.731699999999453,8.246211251235321,89.62700485902673,6.324555320336759,11.40175425099138,22.360679774997894,23.769728648009423,31.400636936215164,57.27128425310541,45.89117562233506,41.0,28.0,45.0,5.5,19.5,5.5,0.5,7.615773105863909,8.06225774829855,7.5,43.0,17.0,38.07886552931954,"{'smile': ['m3', 'm12']}","{'smile': [929, 967]}"
293,952,16,0,31.76506666666612,5.0990195135927845,88.64536084872124,6.324555320336759,11.40175425099138,20.396078054371134,21.587033144922906,30.4138126514911,53.150729063673246,41.77319714841085,38.5,28.0,45.0,6.5,15.5,1.5,0.5,5.385164807134504,7.211102550927978,6.5,44.0,20.0,31.04834939252005,"{'smile': ['m3', 'm12']}","{'smile': [929, 967]}"
294,953,16,0,31.798433333332785,8.246211251235321,87.66413177577246,6.082762530298219,12.36931687685298,22.20360331117452,23.53720459187964,31.78049716414141,58.463663928973865,46.09772228646444,41.0,29.0,46.0,6.5,19.5,4.5,0.5,7.615773105863909,8.06225774829855,7.5,43.0,18.0,32.28002478313795,"{'smile': ['m3', 'm12']}","{'smile': [929, 967]}"
295,954,16,0,31.83179999999945,9.055385138137416,90.60905032059436,6.324555320336759,11.40175425099138,22.56102834535696,23.769728648009423,31.575306807693888,58.2494635168428,46.87216658103186,41.5,29.0,46.0,6.5,19.5,4.5,0.5,6.324555320336759,8.94427190999916,8.0,43.0,18.0,32.984845004941285,"{'smile': ['m3', 'm12']}","{'smile': [929, 967]}"
296,955,16,0,31.86516666666612,5.0990195135927845,87.66413177577246,6.082762530298219,11.40175425099138,20.396078054371134,21.37755832643195,31.575306807693888,54.12947441089743,42.7551166528639,39.5,30.0,47.0,7.5,14.5,1.5,0.5,4.47213595499958,5.830951894845301,5.5,44.0,18.0,31.04834939252005,"{'smile': ['m3', 'm12']}","{'smile': [929, 967]}"
297,956,16,0,31.898533333332782,5.0990195135927845,88.64536084872124,6.324555320336759,10.770329614269007,20.615528128088304,21.587033144922906,31.400636936215164,53.36665625650534,42.7551166528639,39.5,29.0,46.0,6.5,14.5,1.5,1.5,7.280109889280518,6.708203932499369,6.5,44.0,18.0,32.01562118716424,"{'smile': ['m3', 'm12']}","{'smile': [929, 967]}"
298,957,16,0,31.931899999999448,5.0990195135927845,87.66413177577246,6.324555320336759,11.704699910719626,20.396078054371134,21.587033144922906,31.400636936215164,54.3415126767741,42.7551166528639,39.5,29.0,46.0,6.5,15.5,2.5,0.5,6.324555320336759,7.615773105863909,7.0,43.0,16.0,34.92849839314596,"{'smile': ['m3', 'm12']}","{'smile': [929, 967]}"
299,958,16,0,31.96526666666612,7.280109889280518,89.62700485902673,5.385164807134504,11.40175425099138,21.213203435596427,22.56102834535696,31.400636936215164,55.31726674375732,43.93176527297759,39.5,29.0,46.0,6.5,16.5,2.5,0.5,7.615773105863909,8.06225774829855,7.0,40.0,13.0,34.92849839314596,"{'smile': ['m3', 'm12']}","{'smile': [929, 967]}"
300,959,16,0,31.99863333333278,10.0,89.62700485902673,5.385164807134504,11.40175425099138,21.213203435596427,22.56102834535696,30.4138126514911,56.88585061331157,45.5411901469428,40.0,27.0,44.0,5.5,20.5,6.5,0.5,9.486832980505138,8.54400374531753,8.5,42.0,16.0,33.734255586866,"{'smile': ['m3', 'm12']}","{'smile': [929, 967]}"
301,960,16,0,32.03199999999945,10.0,88.45903006477066,5.385164807134504,12.16552506059644,21.37755832643195,22.56102834535696,30.265491900843116,57.55866572463264,45.39823785126467,40.0,27.0,43.0,5.0,22.0,7.0,1.0,10.44030650891055,10.198039027185567,10.5,43.0,17.0,35.17101079013795,"{'smile': ['m3', 'm12']}","{'smile': [929, 967]}"
302,961,16,0,32.065366666666115,9.0,90.60905032059436,5.385164807134504,13.341664064126334,21.213203435596427,23.53720459187964,30.265491900843116,57.706152185014034,44.40720662234904,39.5,25.0,42.0,3.5,23.5,6.5,1.5,9.219544457292889,10.44030650891055,10.0,41.0,17.0,31.78049716414141,"{'smile': ['m3', 'm12']}","{'smile': [929, 967]}"
303,962,16,0,32.09873333333278,7.0,87.47571091451616,5.0990195135927845,14.142135623730953,20.223748416156685,22.360679774997894,31.25699921617557,57.42821606144492,43.28972164382672,39.5,26.0,42.0,3.0,23.0,6.0,2.0,10.44030650891055,10.198039027185567,10.0,40.0,16.0,33.54101966249684,"{'smile': ['m3', 'm12']}","{'smile': [929, 967]}"
304,963,16,0,32.13209999999945,2.23606797749979,87.66413177577246,5.0990195135927845,12.36931687685298,20.223748416156685,21.587033144922906,32.55764119219941,52.172789842982326,39.81205847478876,38.0,23.0,40.0,0.5,19.5,3.5,4.5,8.246211251235321,8.54400374531753,8.0,39.0,15.0,31.78049716414141,"{'smile': ['m3', 'm12']}","{'smile': [929, 967]}"
305,964,16,0,32.16546666666611,1.4142135623730951,87.0976463516667,4.123105625617661,13.152946437965904,21.213203435596427,21.587033144922906,34.52535300326414,52.952809179494906,39.81205847478876,38.5,23.0,42.0,1.5,19.5,3.5,4.5,10.44030650891055,9.486832980505138,9.5,41.0,16.0,35.6931365951495,"{'smile': ['m3', 'm12']}","{'smile': [929, 967]}"
306,965,16,0,32.19883333333278,1.0,82.76472678623425,6.324555320336759,14.317821063276352,18.43908891458577,19.4164878389476,32.55764119219941,54.12947441089743,39.81205847478876,38.5,24.0,41.0,0.5,20.5,3.5,5.5,9.219544457292889,10.44030650891055,10.5,42.0,18.0,33.734255586866,"{'smile': ['m3', 'm12']}","{'smile': [929, 967]}"
307,966,16,0,32.232199999999445,6.082762530298219,83.74365647617735,6.082762530298219,15.132745950421556,18.43908891458577,20.396078054371134,32.55764119219941,59.84145720150872,44.7213595499958,41.0,27.0,44.0,3.5,23.5,4.5,2.5,9.219544457292889,9.486832980505138,9.5,40.0,17.0,32.01562118716424,"{'smile': ['m3', 'm12']}","{'smile': [929, 967]}"
308,967,16,0,32.26556666666611,8.06225774829855,83.54639429682169,6.324555320336759,16.278820596099706,19.4164878389476,21.587033144922906,31.575306807693888,62.16912416947821,45.89117562233506,41.0,28.0,44.0,5.0,25.0,6.0,1.0,10.44030650891055,10.198039027185567,10.5,43.0,20.0,31.78049716414141,"{'smile': ['m3', 'm12']}","{'smile': [929, 967]}"
309,968,16,0,32.298933333332776,8.06225774829855,83.54639429682169,6.082762530298219,11.40175425099138,18.24828759089466,20.396078054371134,29.61418578992169,55.10898293381942,43.73785545725808,39.0,28.0,44.0,7.0,18.0,4.0,1.0,10.198039027185567,11.40175425099138,11.5,40.0,19.0,29.61418578992169,{},{}
310,969,16,0,32.33229999999944,5.0,82.20097323024831,5.385164807134504,11.180339887498947,18.43908891458577,19.4164878389476,31.78049716414141,53.150729063673246,41.97618372363071,38.5,29.0,43.0,5.0,16.0,2.0,1.0,10.198039027185567,10.44030650891055,10.5,38.0,19.0,32.55764119219941,{},{}
311,970,16,0,32.36566666666611,4.123105625617661,85.0,6.082762530298219,11.180339887498947,19.1049731745428,20.396078054371134,33.24154027718932,54.57105459856901,43.41658669218482,40.0,27.0,40.0,1.5,19.5,6.5,3.5,10.04987562112089,10.44030650891055,10.5,39.0,18.0,30.59411708155671,{},{}
312,971,16,0,32.399033333332774,3.0,83.86298349093002,4.123105625617661,11.180339887498947,20.024984394500787,20.223748416156685,33.24154027718932,51.419840528729765,40.26164427839479,37.5,25.0,37.0,1.0,19.0,6.0,4.0,10.04987562112089,10.198039027185567,11.0,39.0,20.0,28.442925306655784,{},{}
313,972,16,0,32.43239999999944,2.0,85.70880934886448,4.123105625617661,12.16552506059644,20.09975124224178,21.213203435596427,32.984845004941285,51.19570294468082,39.05124837953327,37.0,25.0,36.0,1.5,19.5,4.5,4.5,11.180339887498947,11.180339887498947,11.5,38.0,21.0,29.42787793912432,{},{}
314,973,16,0,32.465766666666106,2.23606797749979,84.8528137423857,5.0990195135927845,14.142135623730953,20.09975124224178,21.213203435596427,32.7566787083184,54.12947441089743,40.024992192379,38.0,26.0,38.0,0.0,21.0,4.0,4.0,10.198039027185567,9.219544457292889,9.5,38.0,20.0,29.42787793912432,{},{}
315,974,16,0,32.49913333333277,5.0,82.60750571225353,5.385164807134504,15.132745950421556,20.024984394500787,21.213203435596427,30.59411708155671,55.90169943749474,40.79215610874228,37.5,27.0,37.0,2.0,23.0,6.0,2.0,10.04987562112089,11.180339887498947,11.0,37.0,21.0,32.38826948140329,{},{}
316,975,16,0,32.53249999999944,7.0,82.87339742040264,4.123105625617661,15.132745950421556,19.1049731745428,22.09072203437452,30.80584360149873,56.88585061331157,41.77319714841085,37.5,26.0,38.0,2.0,24.0,7.0,2.0,10.04987562112089,11.180339887498947,12.0,37.0,22.0,33.37663853655727,{},{}
317,976,16,0,32.5658666666661,6.0,84.71717653463199,5.0990195135927845,15.132745950421556,19.026297590440446,22.09072203437452,29.61418578992169,55.731499172371095,40.60788100849391,37.0,25.0,36.0,1.5,24.5,7.5,2.5,10.04987562112089,11.180339887498947,11.5,36.0,22.0,31.25699921617557,{},{}
318,977,16,0,32.59923333333277,6.0,83.72574275573791,5.385164807134504,17.029386365926403,19.026297590440446,22.09072203437452,29.42787793912432,57.55866572463264,40.60788100849391,37.0,25.0,36.0,1.5,26.5,7.5,2.5,9.055385138137416,9.219544457292889,10.0,37.0,22.0,31.400636936215164,{},{}
319,978,16,0,32.632599999999435,7.0,84.71717653463199,6.082762530298219,16.1245154965971,19.026297590440446,21.095023109728988,27.459060435491963,56.56854249492381,40.44749683231337,36.5,23.0,34.0,1.5,27.5,8.5,3.5,11.04536101718726,11.180339887498947,11.5,38.0,23.0,29.42787793912432,{},{}
320,979,16,0,32.6659666666661,10.04987562112089,82.03657720797473,5.0990195135927845,17.029386365926403,19.1049731745428,21.095023109728988,27.459060435491963,59.53990258641679,42.579337712087536,37.0,25.0,38.0,4.5,27.5,8.5,0.5,10.04987562112089,11.180339887498947,11.5,38.0,23.0,30.4138126514911,{},{}
321,980,16,0,32.69933333333277,12.041594578792296,85.98837130682264,5.0990195135927845,16.1245154965971,20.09975124224178,22.09072203437452,27.65863337187866,60.8276253029822,44.7213595499958,38.0,23.0,36.0,2.5,30.5,11.5,2.5,11.04536101718726,11.180339887498947,11.5,37.0,22.0,31.575306807693888,{},{}
322,981,16,0,32.73269999999943,9.055385138137416,84.71717653463199,5.0990195135927845,14.142135623730953,18.110770276274835,21.213203435596427,28.635642126552707,56.88585061331157,42.7551166528639,37.5,25.0,36.0,2.5,25.5,8.5,2.5,10.04987562112089,11.180339887498947,12.0,37.0,22.0,30.4138126514911,{},{}
323,982,16,0,32.7660666666661,6.082762530298219,86.70063436907483,5.0990195135927845,12.041594578792296,19.1049731745428,20.09975124224178,28.635642126552707,51.78802950489621,39.81205847478876,36.0,25.0,36.0,2.5,20.5,6.5,2.5,10.04987562112089,10.198039027185567,10.5,35.0,22.0,32.38826948140329,{},{}
324,983,16,0,32.799433333332765,5.0,86.57944328765345,6.082762530298219,11.180339887498947,20.024984394500787,21.095023109728988,27.892651361962702,50.00999900019995,38.8329756778952,35.5,24.0,34.0,2.0,20.0,6.0,3.0,9.219544457292889,9.055385138137416,10.0,38.0,22.0,31.400636936215164,{},{}
325,984,16,0,32.83279999999943,5.0,86.70063436907483,5.0990195135927845,11.180339887498947,21.095023109728988,21.095023109728988,28.635642126552707,49.8196748283246,38.63935817272331,35.5,25.0,36.0,2.5,18.5,5.5,2.5,10.198039027185567,11.180339887498947,12.0,39.0,23.0,32.38826948140329,{},{}
326,985,16,0,32.866166666666096,5.0,84.5931439302264,6.082762530298219,10.198039027185567,20.024984394500787,21.213203435596427,28.861739379323623,50.00999900019995,39.81205847478876,36.5,27.0,37.0,4.0,17.0,4.0,1.0,9.055385138137416,10.198039027185567,10.5,39.0,23.0,32.38826948140329,{},{}
327,986,16,0,32.89953333333276,6.082762530298219,83.72574275573791,6.082762530298219,12.16552506059644,20.09975124224178,22.20360331117452,28.635642126552707,52.952809179494906,40.79215610874228,37.0,28.0,39.0,5.5,18.5,4.5,0.5,10.198039027185567,11.180339887498947,11.5,39.0,23.0,30.59411708155671,{},{}
328,987,16,0,32.93289999999943,7.071067811865476,83.72574275573791,6.082762530298219,11.180339887498947,20.223748416156685,21.213203435596427,28.861739379323623,53.150729063673246,41.97618372363071,37.5,29.0,40.0,6.5,17.5,3.5,0.5,10.04987562112089,12.16552506059644,12.5,39.0,22.0,30.59411708155671,{},{}
329,988,16,0,32.966266666666094,9.055385138137416,82.73451516749222,6.082762530298219,12.36931687685298,20.09975124224178,21.213203435596427,27.65863337187866,55.10898293381942,42.7551166528639,37.5,28.0,39.0,6.5,20.5,6.5,0.5,11.180339887498947,12.16552506059644,12.5,40.0,25.0,31.575306807693888,{},{}
330,989,16,0,32.99963333333276,7.071067811865476,81.74350127074322,5.0990195135927845,11.180339887498947,20.09975124224178,21.095023109728988,29.61418578992169,52.952809179494906,41.77319714841085,37.5,29.0,40.0,5.5,17.5,4.5,0.5,11.04536101718726,11.180339887498947,12.0,39.0,23.0,32.38826948140329,{},{}
331,990,16,0,33.032999999999426,6.082762530298219,80.50465825031493,6.082762530298219,13.152946437965904,19.1049731745428,20.09975124224178,29.61418578992169,54.91812087098393,41.77319714841085,38.0,29.0,38.0,4.5,20.5,5.5,0.5,10.198039027185567,10.198039027185567,10.5,41.0,25.0,29.61418578992169,{},{}
332,991,16,0,33.06636666666609,4.0,81.49846624323675,5.0990195135927845,13.152946437965904,18.027756377319943,20.09975124224178,31.575306807693888,53.75872022286245,40.60788100849391,38.0,30.0,39.0,3.5,18.5,3.5,0.5,10.04987562112089,11.180339887498947,11.5,39.0,23.0,29.42787793912432,{},{}
333,992,16,0,33.09973333333276,1.4142135623730951,82.49242389456137,5.0990195135927845,13.152946437965904,19.026297590440446,19.1049731745428,32.55764119219941,51.62363799656123,38.47076812334269,37.5,29.0,38.0,1.5,17.5,2.5,2.5,11.04536101718726,12.16552506059644,12.5,38.0,22.0,29.42787793912432,{},{}
334,993,16,0,33.13309999999942,2.0,81.49846624323675,5.0990195135927845,13.152946437965904,19.026297590440446,20.09975124224178,31.400636936215164,51.62363799656123,38.47076812334269,37.0,28.0,37.0,1.5,18.5,2.5,2.5,11.04536101718726,12.16552506059644,12.0,37.0,22.0,32.38826948140329,{},{}
335,994,16,0,33.16646666666609,2.0,77.64663547121665,4.47213595499958,13.038404810405298,18.027756377319943,20.09975124224178,32.38826948140329,51.62363799656123,38.63935817272331,37.0,28.0,38.0,1.0,18.0,3.0,2.0,10.04987562112089,10.198039027185567,10.5,37.0,22.0,31.400636936215164,{},{}
336,995,16,0,33.199833333332755,4.0,78.63841300535,5.0990195135927845,15.297058540778355,18.027756377319943,20.09975124224178,31.575306807693888,55.90169943749474,40.60788100849391,38.0,29.0,39.0,3.0,21.0,4.0,1.0,10.04987562112089,11.40175425099138,11.5,36.0,22.0,31.25699921617557,{},{}
337,996,16,0,33.23319999999942,8.06225774829855,77.41446893184762,5.0990195135927845,16.1245154965971,19.026297590440446,22.09072203437452,30.265491900843116,59.53990258641679,43.41658669218482,39.0,31.0,39.0,5.0,24.0,5.0,1.0,10.04987562112089,12.16552506059644,12.5,36.0,22.0,29.61418578992169,{},{}
338,997,16,0,33.26656666666609,8.06225774829855,78.40918313565064,6.324555320336759,18.110770276274835,20.024984394500787,22.09072203437452,29.42787793912432,61.814237842102365,43.73785545725808,39.0,31.0,39.0,6.0,26.0,7.0,1.0,10.04987562112089,11.04536101718726,11.5,37.0,23.0,32.38826948140329,{},{}
339,998,16,0,33.29993333333275,8.0,80.39900496896712,5.385164807134504,16.278820596099706,19.026297590440446,21.02379604162864,29.61418578992169,59.033888572581766,42.7551166528639,38.0,31.0,39.0,6.0,23.0,5.0,2.0,12.041594578792296,12.041594578792296,12.5,38.0,24.0,33.54101966249684,{},{}
340,999,16,0,33.33329999999942,6.082762530298219,81.30190649671138,4.123105625617661,13.152946437965904,20.024984394500787,22.09072203437452,30.59411708155671,53.9351462406472,40.79215610874228,37.0,31.0,38.0,4.5,18.5,3.5,1.5,10.04987562112089,11.180339887498947,11.5,36.0,23.0,31.25699921617557,{},{}
341,1000,16,0,33.366666666666084,4.0,82.38931969618392,4.123105625617661,13.152946437965904,19.0,20.024984394500787,30.80584360149873,51.97114584074513,38.8329756778952,36.0,29.0,37.0,3.0,18.0,3.0,0.0,11.04536101718726,13.038404810405298,13.5,36.0,22.0,33.24154027718932,{},{}
342,1001,16,0,33.40003333333275,3.0,81.30190649671138,4.123105625617661,13.152946437965904,20.024984394500787,21.02379604162864,30.59411708155671,50.80354318352215,37.65634076752546,35.5,29.0,36.0,2.5,17.5,2.5,0.5,12.041594578792296,13.038404810405298,14.0,36.0,23.0,31.25699921617557,{},{}
343,1002,16,0,33.433399999999416,4.123105625617661,82.38931969618392,4.123105625617661,14.142135623730953,21.02379604162864,22.09072203437452,30.4138126514911,52.773099207835045,38.63935817272331,36.0,29.0,37.0,3.0,19.0,2.0,0.0,12.16552506059644,12.041594578792296,12.5,36.0,22.0,33.37663853655727,{},{}
344,1003,16,0,33.46676666666608,4.123105625617661,82.49242389456137,5.0990195135927845,15.132745950421556,20.024984394500787,21.095023109728988,29.61418578992169,53.9351462406472,38.8329756778952,36.0,28.0,37.0,3.5,20.5,3.5,0.5,11.180339887498947,11.180339887498947,11.5,35.0,22.0,36.22154055254967,{},{}
345,1004,16,0,33.50013333333275,6.082762530298219,81.49846624323675,4.123105625617661,15.132745950421556,20.024984394500787,21.02379604162864,30.4138126514911,55.731499172371095,40.60788100849391,37.0,29.0,38.0,3.5,21.5,4.5,0.5,10.04987562112089,10.198039027185567,10.5,35.0,22.0,30.265491900843116,{},{}
346,1005,16,0,33.533499999999414,7.071067811865476,80.50465825031493,5.0990195135927845,15.132745950421556,19.0,20.024984394500787,29.42787793912432,56.71860364994893,41.593268686170845,37.5,29.0,38.0,4.5,22.5,5.5,0.5,10.04987562112089,10.04987562112089,10.5,36.0,23.0,33.13608305156178,{},{}
347,1006,16,0,33.56686666666608,8.06225774829855,81.49846624323675,5.0990195135927845,16.1245154965971,19.026297590440446,21.095023109728988,30.4138126514911,59.682493245507096,43.56604182158393,39.0,30.0,39.0,4.5,24.5,6.5,0.5,11.0,11.04536101718726,11.0,36.0,22.0,33.24154027718932,{},{}
348,1007,16,0,33.600233333332746,8.0,84.38009243891595,5.0990195135927845,14.317821063276352,20.024984394500787,22.09072203437452,29.8328677803526,57.0701322935211,42.7551166528639,38.0,29.0,37.0,4.0,23.0,7.0,0.0,9.055385138137416,10.04987562112089,10.5,37.0,23.0,35.35533905932738,{},{}
349,1008,16,0,33.63359999999941,5.0,83.48652585896721,5.0990195135927845,12.16552506059644,20.024984394500787,21.095023109728988,28.635642126552707,50.80354318352215,38.63935817272331,35.5,28.0,37.0,4.5,17.5,3.5,0.5,5.0990195135927845,6.324555320336759,6.0,39.0,24.0,31.25699921617557,{},{}
350,1009,16,0,33.66696666666608,9.0,83.60023923410746,5.0990195135927845,14.142135623730953,20.024984394500787,22.20360331117452,28.861739379323623,56.88585061331157,42.7551166528639,37.5,29.0,39.0,6.0,22.0,6.0,1.0,7.071067811865476,8.246211251235321,8.0,38.0,23.0,29.27456233660889,{},{}
351,1010,16,0,33.70033333333274,7.0,85.47514258543241,4.123105625617661,12.041594578792296,21.02379604162864,22.09072203437452,29.61418578992169,52.61178575186362,40.60788100849391,36.5,28.0,37.0,3.5,19.5,4.5,0.5,8.06225774829855,9.219544457292889,8.5,38.0,23.0,29.154759474226505,{},{}
352,1011,16,0,33.73369999999941,4.0,87.46427842267951,6.082762530298219,11.180339887498947,22.02271554554524,24.186773244895647,30.59411708155671,51.78802950489621,40.60788100849391,38.0,27.0,36.0,1.5,19.5,6.5,3.5,6.082762530298219,7.280109889280518,7.5,37.0,21.0,32.2490309931942,{},{}
353,1012,16,0,33.767066666666075,2.0,88.45903006477066,6.082762530298219,10.198039027185567,21.02379604162864,22.09072203437452,31.575306807693888,49.8196748283246,39.6232255123179,38.0,28.0,37.0,1.5,16.5,4.5,3.5,7.071067811865476,8.246211251235321,8.0,37.0,21.0,33.24154027718932,{},{}
354,1013,16,0,33.80043333333274,2.0,89.45389874119518,5.0990195135927845,10.198039027185567,20.024984394500787,21.095023109728988,32.7566787083184,50.00999900019995,39.81205847478876,38.0,28.0,37.0,0.5,16.5,4.5,3.5,8.06225774829855,8.246211251235321,8.0,37.0,22.0,33.24154027718932,{},{}
355,1014,16,0,33.83379999999941,3.0,88.45903006477066,5.0990195135927845,9.219544457292889,20.024984394500787,22.09072203437452,32.7566787083184,50.00999900019995,40.79215610874228,38.5,28.0,37.0,0.5,16.5,4.5,3.5,9.0,9.219544457292889,9.5,36.0,22.0,29.27456233660889,{},{}
356,1015,16,0,33.86716666666607,5.0990195135927845,88.68483523128404,5.0990195135927845,10.04987562112089,19.1049731745428,21.213203435596427,31.575306807693888,51.78802950489621,41.77319714841085,38.5,28.0,39.0,2.5,17.5,5.5,2.5,9.055385138137416,10.198039027185567,10.0,37.0,22.0,30.4138126514911,{},{}
357,1016,16,0,33.90053333333274,6.082762530298219,89.67719888578144,6.082762530298219,10.44030650891055,20.223748416156685,22.20360331117452,29.61418578992169,52.172789842982326,41.77319714841085,38.0,29.0,40.0,5.5,16.5,4.5,1.5,9.219544457292889,10.198039027185567,10.5,38.0,21.0,32.38826948140329,{},{}
358,1017,16,0,33.933899999999404,4.123105625617661,90.93404203047392,6.082762530298219,12.16552506059644,21.213203435596427,22.360679774997894,30.80584360149873,53.150729063673246,41.0,38.0,28.0,41.0,4.5,17.5,3.5,1.5,8.0,8.246211251235321,9.0,37.0,21.0,30.4138126514911,{},{}
359,1018,16,0,33.96726666666607,6.082762530298219,90.79647570252934,6.082762530298219,9.219544457292889,21.095023109728988,22.20360331117452,30.80584360149873,52.172789842982326,42.95346318982906,39.0,29.0,41.0,5.0,16.0,4.0,1.0,9.055385138137416,10.198039027185567,10.0,37.0,20.0,34.36568055487916,{},{}
360,1019,16,0,34.000633333332736,3.1622776601683795,90.79647570252934,7.071067811865476,10.198039027185567,21.213203435596427,22.360679774997894,30.59411708155671,50.99019513592785,40.79215610874228,38.5,29.0,41.0,5.0,15.0,2.0,2.0,9.055385138137416,10.198039027185567,10.5,38.0,22.0,31.400636936215164,{},{}
361,1020,16,0,34.0339999999994,5.0990195135927845,90.79647570252934,7.071067811865476,11.180339887498947,22.20360331117452,23.345235059857504,29.8328677803526,53.150729063673246,41.97618372363071,38.5,29.0,41.0,6.0,17.0,3.0,1.0,9.219544457292889,10.198039027185567,10.5,39.0,22.0,38.2099463490856,{},{}
362,1021,16,0,34.06736666666607,7.0,90.79647570252934,6.324555320336759,10.198039027185567,22.20360331117452,23.345235059857504,29.8328677803526,53.150729063673246,42.95346318982906,38.5,29.0,41.0,6.0,17.0,4.0,1.0,9.219544457292889,9.219544457292889,10.0,36.0,20.0,35.22782990761707,{},{}
363,1022,16,0,34.100733333332734,8.06225774829855,91.92388155425118,6.082762530298219,11.180339887498947,22.20360331117452,22.360679774997894,29.8328677803526,55.10898293381942,43.93176527297759,39.0,29.0,42.0,6.5,18.5,4.5,0.5,10.04987562112089,10.198039027185567,10.5,38.0,21.0,31.25699921617557,{},{}
364,1023,16,0,34.1340999999994,4.123105625617661,91.54780172128658,7.071067811865476,10.04987562112089,23.194827009486403,23.194827009486403,28.635642126552707,49.8196748283246,39.81205847478876,37.0,28.0,38.0,5.0,16.0,4.0,2.0,8.06225774829855,9.219544457292889,10.0,36.0,21.0,34.36568055487916,{},{}
365,1024,16,0,34.167466666666066,2.23606797749979,91.44397191723463,6.082762530298219,9.055385138137416,21.095023109728988,21.213203435596427,28.635642126552707,45.89117562233506,36.87817782917155,35.0,28.0,37.0,4.5,12.5,1.5,1.5,8.246211251235321,8.246211251235321,9.0,36.0,20.0,34.52535300326414,{},{}
366,1025,16,0,34.20083333333273,2.0,90.448880590088,5.0990195135927845,10.198039027185567,22.09072203437452,22.09072203437452,29.8328677803526,47.07440918375928,36.87817782917155,35.0,28.0,37.0,3.5,13.5,1.5,1.5,9.055385138137416,8.246211251235321,9.0,37.0,21.0,35.35533905932738,{},{}
367,1026,16,0,34.2341999999994,2.23606797749979,92.43916918709296,7.071067811865476,11.180339887498947,22.02271554554524,22.09072203437452,29.42787793912432,49.8196748283246,38.63935817272331,37.0,28.0,37.0,3.5,16.5,3.5,2.5,9.055385138137416,9.055385138137416,9.0,38.0,24.0,33.37663853655727,{},{}
368,1027,16,0,34.26756666666606,8.0,92.43916918709296,6.082762530298219,11.180339887498947,22.09072203437452,23.194827009486403,30.59411708155671,55.731499172371095,44.553338819890925,40.0,29.0,38.0,3.5,21.5,8.5,2.5,7.071067811865476,9.219544457292889,9.0,38.0,22.0,34.36568055487916,{},{}
369,1028,16,0,34.30093333333273,8.06225774829855,93.34345183246651,6.082762530298219,12.16552506059644,21.095023109728988,22.20360331117452,30.59411708155671,56.88585061331157,44.7213595499958,40.0,29.0,37.0,3.0,23.0,9.0,3.0,10.198039027185567,10.198039027185567,11.0,37.0,24.0,39.319206502675,{},{}
370,1029,16,0,34.334299999999395,5.0,92.34717104492157,6.082762530298219,12.16552506059644,21.095023109728988,22.20360331117452,31.575306807693888,54.74486277268398,42.579337712087536,39.5,28.0,36.0,1.0,22.0,8.0,5.0,10.04987562112089,10.04987562112089,10.5,36.0,23.0,37.21558813185679,{},{}
371,1030,16,0,34.36766666666606,1.0,91.19758768739445,5.0990195135927845,8.06225774829855,22.02271554554524,22.09072203437452,32.55764119219941,46.69047011971501,38.63935817272331,37.5,28.0,34.0,1.0,15.0,5.0,5.0,10.04987562112089,10.04987562112089,11.0,36.0,24.0,34.36568055487916,{},{}
372,1031,16,0,34.40103333333273,0.0,92.13576938409967,6.082762530298219,9.055385138137416,22.0,22.02271554554524,32.38826948140329,47.51841748206689,38.47076812334269,38.0,28.0,33.0,1.5,16.5,5.5,5.5,11.04536101718726,11.04536101718726,11.5,36.0,26.0,32.0624390837628,{},{}
373,1032,16,0,34.43439999999939,1.0,91.13725912051558,5.0990195135927845,8.06225774829855,23.021728866442675,22.02271554554524,33.37663853655727,46.69047011971501,38.63935817272331,38.0,29.0,34.0,1.5,14.5,4.5,5.5,11.04536101718726,11.04536101718726,11.5,37.0,26.0,34.23448553724738,{},{}
374,1033,16,0,34.46776666666606,3.0,90.08884503644168,5.0990195135927845,9.055385138137416,22.02271554554524,23.021728866442675,32.55764119219941,49.64876634922564,40.60788100849391,38.5,30.0,34.0,0.0,17.0,6.0,4.0,10.0,10.04987562112089,10.0,35.0,27.0,33.24154027718932,{},{}
375,1034,16,0,34.501133333332724,6.082762530298219,92.19544457292888,6.082762530298219,11.180339887498947,22.02271554554524,23.021728866442675,29.61418578992169,52.952809179494906,41.77319714841085,38.0,29.0,35.0,3.0,20.0,7.0,2.0,11.0,11.04536101718726,11.5,36.0,28.0,34.132096331752024,{},{}
376,1035,16,0,34.53449999999939,5.0990195135927845,95.08417323613853,7.071067811865476,12.041594578792296,23.021728866442675,24.020824298928627,28.635642126552707,52.773099207835045,40.79215610874228,37.5,29.0,33.0,3.0,21.0,7.0,3.0,10.04987562112089,11.04536101718726,11.0,35.0,29.0,33.06055050963308,{},{}
377,1036,16,0,34.567866666666056,8.06225774829855,94.26027795418386,6.082762530298219,12.041594578792296,23.021728866442675,25.019992006393608,27.65863337187866,53.75872022286245,41.77319714841085,37.0,28.0,35.0,4.5,21.5,7.5,1.5,13.038404810405298,13.038404810405298,13.5,38.0,33.0,38.05259518088089,{},{}
378,1037,16,0,34.60123333333272,10.198039027185567,94.19129471453292,6.0,12.041594578792296,24.08318915758459,26.0768096208106,28.635642126552707,56.71860364994893,44.7213595499958,39.0,30.0,36.0,5.0,23.0,9.0,1.0,11.0,12.041594578792296,12.5,43.0,38.0,41.04875150354759,{},{}
379,1038,16,0,34.63459999999939,10.04987562112089,93.1343116150004,7.071067811865476,14.0356688476182,23.08679276123039,25.079872407968907,27.892651361962702,58.85575587824864,44.91102314577124,39.0,31.0,36.0,6.5,24.5,8.5,0.5,12.041594578792296,14.0356688476182,14.5,46.0,39.0,52.03844732503075,{},{}
380,1039,16,0,34.667966666666054,11.04536101718726,93.08598175880188,8.0,13.038404810405298,23.08679276123039,24.08318915758459,29.8328677803526,61.66036003787198,48.66210024238576,42.5,35.0,39.0,8.0,24.0,9.0,0.0,12.041594578792296,13.038404810405298,13.5,47.0,40.0,45.0111097397076,{},{}
381,1040,16,0,34.70133333333272,12.041594578792296,93.1933474020544,8.06225774829855,14.142135623730953,23.08679276123039,25.179356624028344,28.442925306655784,62.64982043070834,48.507731342539614,42.0,35.0,41.0,10.0,24.0,8.0,2.0,12.0,13.152946437965904,13.5,45.0,38.0,43.10452412450461,{},{}
382,1041,16,0,34.734699999999386,14.0,93.1343116150004,8.06225774829855,14.0356688476182,23.021728866442675,25.079872407968907,28.442925306655784,64.38167441127949,50.35871324805669,43.0,37.0,42.0,11.5,24.5,9.5,3.5,12.0,13.038404810405298,13.5,44.0,36.0,42.190046219457976,{},{}
383,1042,16,0,34.76806666666605,17.029386365926403,94.13288479590966,8.06225774829855,13.152946437965904,24.020824298928627,25.079872407968907,27.459060435491963,65.62011886609167,52.46903848937962,43.5,37.0,42.0,12.5,25.5,10.5,4.5,11.04536101718726,12.041594578792296,12.5,41.0,33.0,40.19950248448356,{},{}
384,1043,16,0,34.80143333333272,18.027756377319943,94.19129471453292,7.071067811865476,13.038404810405298,23.021728866442675,25.079872407968907,27.459060435491963,65.49045732013177,52.46903848937962,43.0,36.0,42.0,12.0,26.0,11.0,5.0,12.041594578792296,12.041594578792296,12.5,38.0,29.0,34.36568055487916,{},{}
385,1044,16,0,34.83479999999938,16.0312195418814,93.1933474020544,7.071067811865476,12.041594578792296,24.020824298928627,25.079872407968907,27.29468812791236,62.39390995922599,50.35871324805669,42.0,35.0,41.0,11.0,24.0,10.0,4.0,11.04536101718726,11.180339887498947,11.5,38.0,28.0,37.21558813185679,{},{}
386,1045,16,0,34.86816666666605,13.038404810405298,92.26592003551474,7.071067811865476,12.041594578792296,25.079872407968907,26.1725046566048,27.29468812791236,59.4138031100518,47.38143096192854,40.5,34.0,41.0,10.5,21.5,7.5,3.5,10.0,11.04536101718726,11.0,38.0,28.0,39.11521443121589,{},{}
387,1046,16,0,34.901533333332715,12.041594578792296,93.1933474020544,6.082762530298219,11.04536101718726,23.08679276123039,24.08318915758459,28.284271247461906,57.42821606144492,46.389654018972806,40.0,33.0,39.0,8.0,21.0,8.0,2.0,11.04536101718726,11.04536101718726,11.5,36.0,27.0,38.2099463490856,{},{}
388,1047,16,0,34.93489999999938,9.055385138137416,93.1933474020544,7.071067811865476,12.041594578792296,23.08679276123039,24.08318915758459,27.29468812791236,55.44366510251645,43.41658669218482,38.5,31.0,37.0,7.0,21.0,7.0,0.0,11.04536101718726,12.041594578792296,12.5,37.0,27.0,38.2099463490856,{},{}
389,1048,16,0,34.96826666666605,6.0,92.13576938409967,6.082762530298219,12.16552506059644,23.021728866442675,24.020824298928627,28.442925306655784,52.61178575186362,40.44749683231337,37.0,31.0,36.0,5.5,18.5,5.5,0.5,10.04987562112089,10.04987562112089,10.5,37.0,26.0,36.12478373637688,{},{}
390,1049,16,0,35.00163333333271,8.06225774829855,93.08598175880188,5.0,12.041594578792296,23.021728866442675,24.020824298928627,27.459060435491963,52.46903848937962,40.44749683231337,36.0,30.0,34.0,5.0,20.0,6.0,0.0,10.04987562112089,12.041594578792296,12.0,36.0,27.0,37.12142238654117,{},{}
391,1050,16,0,35.03499999999938,6.0,95.08417323613853,7.071067811865476,12.041594578792296,25.019992006393608,25.079872407968907,27.29468812791236,52.3450093132096,40.311288741492746,37.0,30.0,34.0,5.0,20.0,6.0,1.0,10.04987562112089,11.04536101718726,11.0,36.0,28.0,34.23448553724738,{},{}
392,1051,16,0,35.068366666666044,7.071067811865476,95.08417323613853,6.0,10.0,23.0,25.0,26.476404589747453,49.36598018878993,39.45883931389772,35.5,29.0,33.0,5.0,18.0,6.0,1.0,12.0,12.041594578792296,12.5,35.0,28.0,33.13608305156178,{},{}
393,1052,16,0,35.10173333333271,7.0,95.0473566176356,6.082762530298219,13.038404810405298,25.019992006393608,27.0,26.30589287593181,52.3450093132096,39.319206502675,35.5,29.0,32.0,4.5,21.5,6.5,0.5,10.0,10.04987562112089,10.5,34.0,28.0,32.14031735997639,{},{}
394,1053,16,0,35.135099999999376,7.071067811865476,95.0210502993942,5.0,11.0,25.0,26.0,27.459060435491963,50.35871324805669,39.45883931389772,35.5,30.0,32.0,4.0,19.0,6.0,0.0,11.0,11.04536101718726,11.5,35.0,28.0,33.06055050963308,{},{}
395,1054,16,0,35.16846666666604,4.123105625617661,95.0210502993942,6.0,12.0,25.0,25.0,27.29468812791236,49.25444142409901,37.33630940518894,35.0,29.0,31.0,3.0,19.0,6.0,1.0,10.0,10.04987562112089,10.5,35.0,29.0,33.13608305156178,{},{}
396,1055,16,0,35.20183333333271,8.06225774829855,92.0869154657707,5.0990195135927845,11.04536101718726,23.0,25.019992006393608,29.154759474226505,53.33854141237835,42.2965719651132,38.0,29.0,33.0,2.0,22.0,9.0,1.0,7.0,6.082762530298219,6.5,35.0,28.0,35.12833614050059,{},{}
397,1056,16,0,35.235199999999374,5.0,93.08598175880188,5.0990195135927845,9.055385138137416,23.0,23.0,30.066592756745816,49.16299421312742,40.11234224026316,37.5,29.0,33.0,1.0,18.0,7.0,2.0,6.0,6.324555320336759,6.0,37.0,28.0,36.05551275463989,{},{}
398,1057,16,0,35.26856666666604,2.0,90.08884503644168,5.0,10.04987562112089,21.0,22.02271554554524,31.144823004794876,48.16637831516918,38.11823710509184,37.0,29.0,33.0,0.0,17.0,5.0,3.0,7.0,9.055385138137416,8.5,35.0,27.0,33.06055050963308,{},{}
399,1058,16,0,35.301933333332705,2.0,90.13878188659972,4.0,11.04536101718726,21.0,23.021728866442675,32.14031735997639,49.16299421312742,38.11823710509184,37.0,29.0,34.0,0.5,17.5,4.5,3.5,8.0,8.246211251235321,8.0,35.0,27.0,33.06055050963308,{},{}
400,1059,16,0,35.33529999999937,2.0,89.1403387922662,5.0,10.0,22.02271554554524,23.021728866442675,32.14031735997639,49.09175083453431,39.11521443121589,38.0,30.0,35.0,0.5,16.5,4.5,3.5,8.0,9.055385138137416,9.0,35.0,26.0,33.06055050963308,{},{}
401,1060,16,0,35.36866666666604,1.0,90.19977827023745,6.082762530298219,9.0,21.02379604162864,22.02271554554524,32.14031735997639,48.16637831516918,39.20459156782532,38.5,30.0,36.0,1.0,15.0,4.0,4.0,7.0,8.06225774829855,8.0,36.0,27.0,32.14031735997639,{},{}
402,1061,16,0,35.4020333333327,1.0,91.08786966440702,6.082762530298219,9.055385138137416,22.02271554554524,22.02271554554524,33.06055050963308,48.0936586256442,39.05124837953327,39.0,33.0,37.0,2.0,13.0,2.0,3.0,7.071067811865476,8.06225774829855,7.5,35.0,25.0,33.13608305156178,{},{}
403,1062,16,0,35.43539999999937,1.0,93.1343116150004,10.04987562112089,11.04536101718726,24.020824298928627,25.019992006393608,27.018512172212592,48.16637831516918,37.12142238654117,37.0,32.0,37.0,7.5,13.5,1.5,1.5,7.071067811865476,8.06225774829855,7.5,36.0,26.0,35.12833614050059,{},{}
404,1063,16,0,35.468766666666035,0.0,92.0869154657707,10.04987562112089,10.04987562112089,24.020824298928627,24.020824298928627,27.16615541441225,47.265209192385896,37.21558813185679,37.0,33.0,37.0,8.0,12.0,0.0,1.0,8.06225774829855,8.06225774829855,8.0,35.0,24.0,29.154759474226505,{},{}
405,1064,16,0,35.5021333333327,1.0,95.1892851112981,10.0,11.04536101718726,24.020824298928627,25.079872407968907,26.1725046566048,47.265209192385896,36.22154055254967,36.0,32.0,38.0,9.0,12.0,1.0,0.0,8.06225774829855,9.219544457292889,8.5,38.0,25.0,28.284271247461906,{},{}
406,1065,16,0,35.53549999999937,0.0,95.1892851112981,9.0,10.198039027185567,24.020824298928627,25.079872407968907,26.1725046566048,45.27692569068709,35.12833614050059,35.0,31.0,37.0,8.0,11.0,1.0,0.0,9.055385138137416,10.04987562112089,9.5,39.0,26.0,27.29468812791236,{},{}
407,1066,16,0,35.56886666666603,0.0,94.4298681562142,5.0990195135927845,9.219544457292889,22.09072203437452,22.20360331117452,29.154759474226505,43.41658669218482,34.23448553724738,34.0,29.0,38.0,4.5,9.5,1.5,0.5,9.055385138137416,10.04987562112089,10.0,38.0,23.0,30.265491900843116,{},{}
408,1067,16,0,35.6022333333327,1.0,94.4298681562142,5.385164807134504,9.219544457292889,22.20360331117452,22.20360331117452,29.068883707497267,43.56604182158393,34.36568055487916,34.0,29.0,38.0,4.5,9.5,1.5,0.5,10.198039027185567,10.198039027185567,10.0,39.0,23.0,30.265491900843116,{},{}
409,1068,16,0,35.635599999999364,1.0,96.7470929795826,5.0990195135927845,11.180339887498947,23.194827009486403,23.345235059857504,30.14962686336267,46.52956049652737,35.35533905932738,35.0,28.0,40.0,4.0,12.0,1.0,1.0,12.041594578792296,12.16552506059644,12.0,40.0,25.0,29.27456233660889,{},{}
410,1069,16,0,35.66896666666603,2.23606797749979,95.63472172804184,5.0990195135927845,10.198039027185567,22.20360331117452,23.194827009486403,32.14031735997639,48.66210024238576,38.47076812334269,37.5,30.0,41.0,3.5,12.5,0.5,1.5,10.198039027185567,10.198039027185567,10.0,38.0,22.0,32.2490309931942,{},{}
411,1070,16,0,35.702333333332696,3.1622776601683795,92.65527507918802,6.082762530298219,10.198039027185567,24.186773244895647,25.179356624028344,31.144823004794876,50.48762224545735,40.311288741492746,38.5,31.0,42.0,5.5,13.5,0.5,0.5,9.219544457292889,10.198039027185567,10.0,39.0,22.0,32.55764119219941,{},{}
412,1071,16,0,35.73569999999936,6.082762530298219,91.6624241442479,6.082762530298219,11.180339887498947,23.08679276123039,24.33105012119288,31.144823004794876,54.45181356024793,43.28972164382672,40.0,33.0,44.0,7.5,15.5,1.5,1.5,10.198039027185567,10.04987562112089,10.0,38.0,20.0,34.36568055487916,{},{}
413,1072,16,0,35.76906666666603,5.0990195135927845,91.7877987534291,7.280109889280518,12.16552506059644,24.186773244895647,24.515301344262525,30.066592756745816,54.45181356024793,42.2965719651132,39.5,33.0,45.0,9.0,15.0,1.0,2.0,9.219544457292889,9.219544457292889,9.5,39.0,22.0,34.36568055487916,{},{}
414,1073,16,0,35.802433333332694,8.0,85.70880934886448,6.082762530298219,11.180339887498947,22.09072203437452,22.360679774997894,33.13608305156178,58.30951894845301,47.16990566028302,43.0,34.0,45.0,6.5,18.5,4.5,1.5,5.385164807134504,6.708203932499369,6.0,39.0,24.0,32.2490309931942,{},{}
415,1074,16,0,35.83579999999936,5.0,86.83317338436964,6.082762530298219,12.041594578792296,22.09072203437452,24.33105012119288,33.13608305156178,56.22277118748239,44.181444068749045,41.5,31.0,43.0,4.0,19.0,4.0,1.0,6.082762530298219,8.246211251235321,7.5,39.0,22.0,32.14031735997639,{},{}
416,1075,16,0,35.869166666666025,4.0,86.97700845625813,6.324555320336759,13.152946437965904,21.095023109728988,22.20360331117452,33.06055050963308,56.32051136131489,43.18564576337837,41.0,29.0,42.0,2.5,20.5,4.5,2.5,7.071067811865476,7.615773105863909,7.0,38.0,22.0,33.24154027718932,{},{}
417,1076,16,0,35.90253333333269,4.0,83.18653737234169,6.324555320336759,15.132745950421556,23.194827009486403,24.186773244895647,31.064449134018133,56.32051136131489,41.19465984809196,39.0,29.0,43.0,5.0,20.0,2.0,1.0,6.082762530298219,7.615773105863909,7.0,38.0,22.0,32.38826948140329,{},{}
418,1077,16,0,35.93589999999936,4.0,81.61494961096282,6.082762530298219,16.1245154965971,21.02379604162864,22.09072203437452,30.066592756745816,56.22277118748239,40.11234224026316,38.0,30.0,40.0,5.0,21.0,2.0,0.0,6.324555320336759,7.280109889280518,7.0,38.0,22.0,35.510561809129406,{},{}
419,1078,16,0,35.96926666666602,5.0,79.76214641043707,5.0990195135927845,16.1245154965971,21.02379604162864,22.09072203437452,30.066592756745816,56.22277118748239,40.11234224026316,37.5,30.0,41.0,5.5,20.5,1.5,1.5,7.071067811865476,8.54400374531753,8.5,38.0,23.0,32.2490309931942,{},{}
420,1079,16,0,36.00263333333269,4.0,83.48652585896721,7.071067811865476,16.1245154965971,22.0,24.08318915758459,29.017236257093817,56.1426753904728,40.049968789001575,38.0,29.0,38.0,4.5,22.5,4.5,0.5,9.055385138137416,9.219544457292889,9.5,36.0,22.0,34.36568055487916,{},{}
