,video_id,frame_seq,gap,time_seconds,m1,m3,m4,m5,m6,m7,m8,m9,m10,m11,m12,m13,m14,m15,m16,m17,e1,e2,e3,b1,b2,b3
0,59,217,1,7.240566666666676,26.309308248206978,165.83374791264723,15.479039555392319,26.309308248206978,41.59866886389417,46.72288824751404,41.598668863894126,109.45333835872802,83.19733772778825,69.65567799926566,72.23551792516491,56.75647836977214,23.218559333088706,43.857278740278616,18.058879481291115,12.899199629493523,16.31634032895995,15.479039555392319,18.058879481291115,46.43711866617741,67.07583807336732,52.618616496413864
1,59,218,0,7.273933333333343,21.833259084325118,159.6526197421648,15.886029415790745,31.77205883158149,42.692421249052614,47.95137155858848,32.21031482852909,101.16738861289365,69.64936467261579,58.248774524566215,68.8394608017602,52.95343138596945,29.124387262283562,39.715073539476634,7.943014707895145,13.238357846492818,21.181372554387508,21.833259084324677,18.533700985089126,47.658088247372234,63.54411766316298,53.21753991405497
2,59,219,0,7.3073000000000095,15.930763131702406,154.36316694904679,15.930763131702406,27.077090691658203,47.79228939510699,48.08639856733489,33.58499757387725,91.66920345556792,64.60203270438335,55.75767096095797,63.72305252680917,53.10254377234105,26.551271886170525,31.861526263404812,5.310254377234287,10.62050875446812,21.241017508936693,15.930763131702406,15.930763131702406,42.48203501787293,53.10254377234105,58.412798149575224
3,59,220,0,7.340666666666676,10.922074230593807,158.7462528268925,16.38311134589094,32.76622269178142,43.68829692237534,49.14933403767225,34.538631342107536,93.47789807100172,61.05625108726639,54.61037115296904,65.53244538356284,54.61037115296904,27.30518557648429,32.76622269178188,4.547473508864641e-13,10.922074230593353,21.844148461187615,21.844148461187615,21.844148461187615,43.68829692237523,49.14933403767236,54.610371152969265
4,59,221,0,7.374033333333343,8.06068354975805,160.0,17.09929199709859,28.498819995163558,45.95296646467522,45.59811199226215,36.04847272474672,87.18962356182527,59.50728317835618,54.14775799081144,62.69740398936074,51.297875991295314,22.7990559961313,28.498819995163558,0.0,11.399527998065878,18.024236362373163,17.099291997098135,17.099291997098135,45.59811199226215,51.29787599129486,51.29787599129497
5,59,222,0,7.40740000000001,11.744404390294221,158.65816648727366,17.616606585440877,23.488808780587988,41.105415366029206,46.9776175611762,31.62277660168416,83.04547985374012,59.884947161634535,52.84981975632354,58.72202195147065,52.84981975632354,26.424909878161543,26.424909878161543,2.9361010975735553,8.808303292720666,17.616606585440877,17.616606585440877,17.616606585440877,52.84981975632354,52.84981975632354,46.97761756117632
6,59,223,0,7.440766666666676,6.035716402834623,157.04465504886545,18.10714920850387,30.17858201417266,48.28573122267653,42.25001481984202,32.50332755838901,85.35791995526384,55.64655570754525,51.30358942409384,60.35716402834578,54.321447625511155,27.160723812755805,27.16072381275535,3.0178582014173116,9.053574604251935,19.086611143795313,18.107149208503415,18.107149208503415,42.25001481984191,48.28573122267653,48.28573122267653
7,59,224,0,7.474133333333343,12.6412123503992,164.45726575519686,18.96181852559903,26.060526878279692,50.5648494015976,44.244243226397884,34.037505934442585,90.49730822794884,64.45778845015656,56.88545557679754,63.20606175199691,56.88545557679754,28.442727788398315,28.44272778839877,3.160303087599459,9.480909262799287,19.98751170655625,18.96181852559903,18.96181852559903,44.244243226397884,44.244243226397884,50.95835610994734
8,59,225,0,7.50750000000001,6.421612990679478,160.6687056949507,19.26483897203798,32.108064953396934,44.951290934755434,51.77269909067934,34.58144428244395,90.81532183729985,59.2043464550976,54.58371042077442,64.21612990679341,57.794516916113935,28.897258458056967,28.897258458057422,3.2108064953395115,9.63241948601899,14.359163172354986,19.26483897203798,19.26483897203798,44.951290934755434,51.37290392543491,45.40766091864988
9,59,226,0,7.540866666666677,6.7641335736793735,162.4800641078312,20.29240072103721,34.49044908473784,47.34893501575425,47.34893501575425,36.425974071734096,96.84765415603803,62.36223019760252,57.49513537627263,67.64133573679146,60.87720216311254,30.438601081556044,30.438601081556044,3.3820667868394594,10.146200360518833,20.29240072103721,13.528267147358292,13.528267147358292,47.34893501575425,54.113068589433624,47.34893501575402
10,59,227,0,7.574233333333344,6.8599434057005055,151.07458228227767,20.579830217101062,34.97898528780813,41.159660434202124,48.01960383990263,30.678599553894887,91.52306041777298,56.56854249492406,51.44957554275288,61.739490651303186,54.879547245603135,30.869745325651365,30.86974532565182,3.429971702849798,10.289915108550304,13.719886811401011,20.579830217101062,20.579830217101062,34.29971702850162,48.019603839902175,48.507125007266545
11,59,228,0,7.60760000000001,9.886342491945726,146.97104714480105,15.631680001526576,35.64571478150848,48.9348987203125,42.52276690855068,28.823393743250268,85.04553381710184,49.43171245972886,45.43954881171885,55.925598537500264,48.93489872031296,24.46744936015648,31.458149177343785,3.495349908593653,10.486049725781413,20.972099451562826,13.981399634375066,13.981399634375066,41.9441989031252,48.93489872031296,48.9348987203125
12,59,229,0,7.640966666666677,7.1145550379601445,156.52021083512955,14.229110075921199,28.458220151841942,42.687330227762686,49.80188526572306,29.33406190078088,78.5828288709214,50.30750112466717,46.244607746742986,49.80188526572283,49.80188526572283,21.343665113881343,28.458220151841942,0.0,7.1145550379601445,21.343665113881343,21.34366511388089,17.78638759490059,42.687330227762686,42.687330227762686,50.307501124667354
13,59,230,0,7.674333333333344,10.431036784121483,133.58244890792852,14.75171368971769,29.50342737943538,44.2551410691533,44.2551410691533,30.411436850788526,82.46458648705753,53.69704835817434,47.943069491582264,66.3827116037296,51.630997914011914,29.50342737943447,22.12757053457699,7.37585684485839,14.75171368971678,22.127570534576535,14.75171368971769,14.75171368971769,44.25514106915307,44.25514106915307,52.155183920609474
14,59,231,0,7.707700000000011,15.05153389413772,150.5153389413756,15.05153389413772,30.10306778827453,45.154601682412704,45.154601682412704,33.65625295293396,91.55490639477364,62.05906407309407,52.68036862948247,60.20613557655088,60.20613557655088,30.10306778827544,30.10306778827453,7.5257669470693145,15.05153389413772,16.82812647646703,15.05153389413772,15.05153389413772,45.154601682412704,45.154601682412704,45.154601682412704
15,59,232,0,7.741066666666677,15.027615135307315,127.95553214879216,15.027615135307315,22.541422702960517,37.56903783826715,37.56903783826715,53.130642836185615,75.51283149595432,53.130642836185615,60.11046054122835,82.65188324418796,75.13807567653475,26.29832648678712,3.7569037838266013,26.29832648678712,11.270711351479804,23.760745813994767,15.02761513530686,15.02761513530686,45.08284540592058,45.08284540592058,45.08284540592058
16,59,299,1,9.976633333333298,53.02572711347176,186.23333987594629,11.047026481973319,24.303458260341245,48.657104367320635,53.20952567884182,37.62481643122875,125.95548115165329,101.65665607244186,75.11978007741834,44.18810592789316,59.65394300265575,14.361134426565286,74.01507742922104,43.08340327969586,3.3141079445919672,17.81279496998969,15.465837074762604,15.465837074762618,79.53859067020768,46.39751122428781,79.56927093775954
17,59,366,1,12.212199999999912,17.54505395144011,138.70583039272123,14.187062915940366,27.741166078544133,34.58029715473487,38.00563116949845,38.470075668212786,97.8683563990597,70.18021580576071,60.21519300557884,48.1721544044633,30.967813545726358,1.7204340858736487,56.77432483383154,25.806511288105185,8.60217042936847,7.694015133642378,9.732244869646049,6.881736343494822,41.29041806096848,68.81736343494731,66.18642078914156
18,59,367,0,12.245566666666578,17.605606517814977,134.95590279547366,14.517955055202755,29.03591011040595,35.386831147688056,38.892055983162045,35.90853247319025,96.68668267523519,67.73012060176735,58.098501508789695,49.29569824988221,31.69009173206723,5.281681955344538,54.577380205226746,22.887288473159515,5.281681955344538,7.042242607126127,7.873466591789022,5.281681955344538,38.73233433919313,66.90130476769718,64.25443418984399
19,59,368,0,12.278933333333244,14.613243316031912,135.616094392928,15.062986431212659,29.45393353811209,36.715319436823755,40.35213701439211,37.25660641266249,96.10360331036439,66.66666666666673,58.45297326412697,43.83972994809528,32.87979746107135,1.8266554145041027,56.626317849622865,27.399831217559495,9.133277072519832,5.16656172194806,8.169051356597848,7.306621658015729,40.186419119087304,69.4129057511509,66.16427317199017
20,59,369,0,12.31229999999991,15.064203818361648,132.66980245173067,15.527825877234696,30.362873489133918,34.10304184366666,37.84834367643757,38.4063346132828,99.06933297675687,68.72398090132972,60.25681527344727,48.95866240967575,33.894458591314105,3.7660509545905825,56.49076431885646,22.596305727542585,7.53210190918071,8.421145941192211,10.652000673139803,7.532101909181165,41.426560500494816,67.78891718262798,60.72574697826831
21,59,370,0,12.345666666666576,11.849287583000432,131.82979619117464,16.285288097676656,31.844003542621135,35.76662089220679,39.69462213601565,36.41501121957388,96.10187002747082,64.29747558508534,57.271556651168794,51.34691285966869,31.598100221334562,5.9246437915001025,53.32179412350206,21.723693902167497,5.92464379150033,5.585807734779173,11.171615469558667,7.899525055333697,39.49762527666826,67.14596297033609,63.68800708524263
22,59,371,0,12.379033333333242,12.887143674145227,139.5148627478394,16.301090617651653,28.52690858089045,36.90316342862845,36.67745388971616,37.572157412949764,94.52524423559808,66.3406324213789,59.0914534889871,48.90327185295496,32.602181235303306,4.075272654412856,52.97854450736804,24.451635926477593,8.15054530882594,4.075272654412856,11.52661171647789,6.1129089816192845,36.67745388971616,65.20436247060661,65.71179706893943
23,59,372,0,12.412399999999908,12.626683121895667,139.46627353096204,17.353716070926144,29.761377531286755,37.88004936568632,38.11315956199419,38.11315956199466,97.62457690532297,67.86638255654206,61.02896842249538,46.29783811361699,33.67115499172155,2.1044471869824974,56.82007404852993,27.35781343077383,10.522235934912942,9.411373930302556,9.411373930303064,4.208894373964995,42.08894373965177,67.34230998344287,67.86638255654167
24,59,373,0,12.445766666666572,27.893704369178522,142.23054288482962,17.64152763719887,28.44610857696599,40.61384660534453,40.6138466053454,33.472445243014135,106.58169474235666,78.30135949183018,64.15552004911069,33.472445243014135,61.36614961219266,13.946852184589261,58.57677917527508,25.104333932260943,2.789370436918034,12.474443822752807,17.641527637199157,13.946852184589261,78.10237223369995,39.051186116850204,73.37687990485229
25,59,374,0,12.47913333333324,13.295633747562533,134.13296516781008,13.295633747562533,31.33810927691403,35.73094206660889,40.132361413265365,40.85989547451242,98.40365916718142,67.0664825839053,59.83035186403163,53.18253499025036,35.4550233268335,4.431877915854102,53.18253499025036,22.159389579270965,4.431877915854102,4.431877915854329,12.535243710765837,8.863755831708204,35.4550233268335,62.04629082195879,67.06648258390504
26,59,375,0,12.512499999999903,9.094432926854324,137.09687963926697,18.188865853708194,32.15367596812393,36.3777317074173,36.66083116545545,37.497307562515275,96.46102790437227,64.30735193624832,59.113814024552084,45.47216463427094,31.830515243989566,2.273608231713297,56.84020579283879,25.00969054884922,11.368041158567848,10.16788512062927,6.4307351936250745,4.547216463427048,36.377731707416615,68.20824695140618,68.81187152261634
27,59,376,0,12.545866666666573,13.929965161103837,139.99441727564215,13.929965161104064,28.24422337677432,37.435656517880034,37.14657376294326,38.289811813603905,93.9053702879981,65.66648551405983,58.041521504599814,46.43321720367999,32.50325204257592,2.3216608601840107,53.39819978423179,25.53826946202389,6.964982580552032,9.286643440736043,10.382783008144369,9.286643440736043,37.146573762943945,65.00650408515185,65.17212602003747
28,59,377,0,12.579233333333235,9.616940736686956,141.5030790735071,15.205718425393982,29.248783384608764,34.00102004590249,38.467762946747825,39.65166245266542,93.36360643088035,64.15299631674405,57.70164442012128,48.08470368343433,24.042351841717164,2.4042351841719665,55.29740923594977,26.44658702588913,12.021175920858695,9.616940736686956,6.800204009180499,4.808470368343478,38.4677629467476,67.31858515680824,63.245553203367955
29,59,378,0,12.612599999999905,20.233721514505532,148.08333544449346,10.11686075725288,25.793035208766398,40.46744302901152,40.78236951430977,41.71288550181918,97.30085108210388,71.53700845773488,60.7011645435166,50.58430378626372,30.350582271758185,0.0,55.64273416489027,25.29215189313186,10.11686075725288,5.058430378626326,7.153700845773421,5.058430378626326,35.40901265038451,70.81802530076925,71.5370084577342
30,59,379,0,12.645966666666569,15.205718425394025,132.65724543188279,10.137145616929502,30.830924761417542,35.840222038031015,40.548582467718006,41.79652212086711,97.49594461536277,66.66666666666669,58.288587297344066,45.6171552761823,30.411436850788277,2.5342864042322617,58.288587297344066,27.877150446555788,7.6028592126970125,5.068572808464751,7.16804440760682,7.60285921269724,40.54858246771755,65.89144651004108,66.66666666666613
31,59,380,0,12.679333333333236,15.764928326394283,142.7574976706326,11.750483799409496,31.529856652788567,36.784832761586586,42.366971850281494,37.15829241504427,95.17166511375467,63.92954354441853,55.17724914237965,42.039808870384604,26.27488054399032,2.6274880543990093,60.4322252511779,28.90236859838933,13.137440271995047,5.254976108798019,7.431658483008429,5.254976108798019,42.039808870384604,68.31468941437515,69.11841929181129
32,59,381,0,12.7126999999999,10.836567383657439,141.81005515519433,10.836567383657439,32.95813301918213,32.50970215097186,43.346269534629755,44.68031194194339,98.87439905754593,65.9162660383638,59.601120610116595,48.7645532264587,32.50970215097277,2.7091418459144734,56.89197876420212,24.38227661322935,13.545709229571912,7.662610281769299,7.662610281769299,8.127425537743193,43.34626953463021,70.43768799377403,65.24477552988341
33,59,382,0,12.746066666666566,16.439898730535333,137.43685418725553,12.253577034896976,27.39983121755995,38.3597637045832,38.74921291460628,38.74921291460635,93.80191255405639,66.6666666666665,57.5396455568748,43.83972994809528,32.879797461071576,4.547473508864641e-13,54.79966243511899,27.39983121755904,10.959932487023707,5.479966243512081,7.749842582921206,5.479966243512081,38.35976370458343,65.75959492214292,66.66666666666599
34,59,383,0,12.779433333333232,11.422744983416578,149.48092313483934,11.422744983416578,29.122399784617343,34.74092258913868,45.6909799336654,47.097184101120256,98.5935757046797,69.4818451782778,62.82509740879095,51.402352425374374,34.26823495024928,2.855686245854031,54.258038671228405,25.701176212687187,8.567058737562547,5.711372491708289,8.077100437538318,5.711372491708062,39.979607441957796,68.53646990049924,68.77403203361796
35,59,384,0,12.812799999999898,17.420601154186443,140.44937663535643,11.613734102790659,29.609328407904314,34.841202308371976,34.841202308372885,41.06075069490409,99.39755304385723,69.92393880585047,60.97210403965164,52.26180346255842,34.84120230837243,2.9034335256974373,55.165236988256765,26.130901731279664,8.710300577093221,8.212150138981222,8.21215013898106,5.806867051395329,34.84120230837243,69.68240461674486,69.92393880585053
36,59,396,1,13.213199999999889,4.686624057311203,169.82142490465577,13.663739713703054,26.717867884123127,46.51341567628591,49.819497098687705,53.94709417318278,98.13974300164044,71.53821145174322,67.93584486183329,46.39521112515445,62.9649293841382,1.6569718258983812,41.4242956474593,11.598802781288555,11.598802781288555,13.255774607186993,13.255774607186993,13.255774607186964,49.70915477695121,29.82549286617072,50.149067376652674
37,59,397,0,13.246566666666554,3.5200304131944904,176.56382727015935,14.513457198986083,28.16024330555325,49.40598121313797,52.91766046243421,56.75878494604223,99.56149500609895,71.79481506126837,70.4006082638831,49.28042578471815,63.3605474374948,5.684341886080802e-14,42.24036495832985,10.560091239582448,14.080121652776597,11.131313538757093,14.080121652776597,14.080121652776597,45.76039537152403,24.640212892359102,53.2677259806246
38,59,398,0,13.27993333333322,3.7887894549348857,186.2682340477092,15.15515781973852,26.790787160723543,53.17819412281026,56.957994791285984,57.957334090818584,100.3135225142178,73.56498437607102,71.98699964375783,49.254262914150104,64.40942073388862,1.1368683772161603e-13,41.67668400428079,11.366368364803748,11.366368364803748,11.366368364803861,11.366368364803861,11.366368364803861,49.25426291415005,30.310315639476983,56.957994791285984
39,59,399,0,13.313299999999886,5.5617279496906935,173.75393566620997,11.798206645023015,27.808639748453242,47.356407058727235,51.27659809154131,55.6172794969066,99.56891131538829,71.76568930506171,68.8228720959678,51.12556212843322,66.85650432179727,3.932735548340929,39.3273554834102,7.865471096682086,7.865471096682086,12.436401767868867,15.730942193364115,13.764574419193593,47.192826580092174,23.596413290046087,51.27659809154131
40,59,400,0,13.346666666666552,5.8542506085258585,178.43463908142712,12.418740912162548,25.180083964661243,49.84714774777421,49.67496364864974,54.447678014883074,96.63947524730095,71.46023564141477,68.30307501689379,49.674963648649964,62.09370456081251,2.0697901520270534,39.32601288851458,10.348950760135494,10.348950760135494,8.279160608108327,13.090502317983546,10.348950760135494,45.5353833445958,28.977062128379146,49.847147747773754
41,59,401,0,13.380033333333218,4.322367230736745,174.24019348499627,12.967101692210349,30.25657061515733,52.04819381318952,56.356773693576656,57.66757155427802,100.90667901657521,71.28630658014485,69.15787569178838,47.54603953810454,69.15787569178838,2.1611836153683726,41.062488691999306,6.483550846105118,10.805918076841976,8.644734461473547,8.644734461473604,8.644734461473604,43.22367230736762,21.611836153683782,52.04819381318906
42,59,402,0,13.413399999999884,6.5420114339332605,176.33117770730104,13.877701942602243,23.129503237670292,55.70322015937771,55.70322015937771,56.27651025540482,98.13017150899717,75.30420673658837,71.7014600367778,50.884907122874665,64.7626090654768,2.3129503237671543,39.32015550403935,6.938850971301008,11.56475161883509,13.87770194260213,13.87770194260213,11.56475161883509,41.6331058278065,23.129503237670292,55.70322015937771
43,59,403,0,13.44676666666655,0.0,183.0712008001541,15.151080381571598,29.143685008877988,52.92044867621467,57.69359524737655,58.28737001775586,102.4239928850066,73.29114912085089,71.867884527088,52.70311531986454,71.867884527088,4.791192301805836,38.32953841444703,4.79119230180595,9.582384603611786,10.71343168011169,14.373576905417622,11.977980754514647,47.91192301805859,23.955961509029294,53.567158400557574
44,59,404,0,13.480133333333216,5.094404799339145,184.0342716416862,11.391435436223809,25.976469481970877,56.26954017639251,56.26954017639251,56.95717718111732,98.91544883304458,72.94077634083409,68.77446479107834,50.94404799339145,66.22726239140877,2.5472023996695725,38.208035995043474,7.6416071990087175,7.6416071990087175,15.283214398017435,15.283214398017321,15.283214398017435,45.84964319405219,25.47202399669561,56.95717718111774
45,59,405,0,13.51349999999988,7.141718566753184,142.83437133506368,14.283437133506368,14.283437133506368,42.85031140051933,42.85031140051933,35.70859283376592,71.41718566753184,57.13374853402547,53.56288925064882,57.13374853402547,57.13374853402547,21.425155700259552,14.283437133506368,0.0,7.141718566753184,21.425155700259552,21.425155700259552,21.425155700259552,49.99202996727223,49.99202996727223,64.67101217013695
46,59,406,0,13.546866666666547,7.619393177594196,173.16317799088046,10.775449168807427,21.550898337614626,54.14596195411165,53.877245844036224,54.94422557947555,93.00654658045019,71.88121147514802,67.34655730504574,43.10179667522925,59.264970428440165,2.6938622922018567,40.407934383027396,13.469311461009283,13.469311461009283,10.775449168807313,10.775449168807313,10.775449168807313,43.10179667522925,26.938622922018226,48.489521259632966
47,59,407,0,13.580233333333211,5.6773295580360355,187.6956406133014,17.031988674109925,28.386647790182906,51.410405704153284,51.41040570415238,51.41040570415286,97.18022832239545,69.06769501555917,68.12795469643925,51.09596602232932,62.45062513840253,5.677329558036718,39.74130690625611,11.354659116073208,11.354659116073208,11.354659116073208,12.694894822438835,11.354659116073208,45.41863646429283,22.709318232146416,51.41040570415237
48,59,408,0,13.61359999999988,8.38351535292549,178.72821080137834,11.856081112470974,23.712162224941494,53.680690351209215,53.68069035121012,54.65383345284728,96.5015087013589,73.32581209891126,68.17246639670702,47.42432444988299,65.20844611858934,2.964020278117914,38.53226361552993,8.89206083435306,8.89206083435306,8.38351535292549,11.856081112470974,11.856081112470974,41.496283893647615,23.712162224941494,54.65383345284684
49,59,409,0,13.646966666666543,6.107760067160825,178.07027568435822,13.657366700430387,25.18293989283364,55.3081197394771,55.3081197394771,55.308119739477306,99.42713037733279,74.30410816115506,70.23924077234915,48.8620805372866,67.18536073876885,3.053880033580299,39.70044043654525,9.161640100741124,9.161640100741124,6.107760067160825,12.21552013432165,12.21552013432165,48.862080537286374,24.431040268643073,55.30811973947798
50,59,410,0,13.68033333333321,6.384695075741547,173.44761870121192,19.154085227222822,25.538780302963914,51.07756060592783,57.81587290040456,51.47505734491626,96.61796855209566,71.38306102482491,70.23164583315065,44.69286553018674,63.846950757409786,3.192347537870546,41.50051799231619,9.577042613611411,9.577042613611411,12.769390151481957,12.769390151481957,9.577042613611638,51.07756060592783,31.92347537870478,51.07756060592783
51,59,411,0,13.713699999999877,6.621754260581611,179.27719435098246,14.806692656959438,20.939825569362085,53.38628959470302,59.59578834523472,59.962535119668864,101.29336256676552,80.5571174022169,76.15017399668864,52.974034084652885,66.2175426058161,0.0,39.730525563489664,13.243508521163221,13.243508521163221,6.621754260581611,6.621754260581611,9.93263139087253,52.97403408465311,26.487017042326443,53.38628959470302
52,59,412,0,13.747066666666544,0.0,172.98263583154846,14.8331386496666,27.35095624435713,53.481641977438706,53.06865014453251,53.481641977437974,94.97842960487941,67.6495206617505,66.3358126806661,46.435068876466175,59.7022314125993,0.0,39.80148760839961,13.267162536133355,13.267162536133355,6.633581268066564,6.633581268066564,9.950371902099732,46.435068876466175,26.534325072266256,46.435068876466175
53,59,413,0,13.780433333333209,0.0,174.68675942247535,15.574699204358328,20.895651690034583,49.25152335778537,48.75652061008077,56.15537658124299,91.61312915513875,71.0315571444828,69.65217230011513,48.75652061008077,62.68695507010375,0.0,34.82608615005756,6.9652172300116035,13.93043446002298,15.574699204358328,9.85030467155685,10.447825845017178,48.75652061008054,27.86086892004596,49.2515233577854
54,59,414,0,13.813799999999874,7.102208242284405,171.77950029416087,14.20441648456881,22.459154462439418,43.20104617854231,56.81766593827524,50.22019609518245,93.41496460204603,71.37630947025741,67.47097830170128,42.6132494537062,63.91987418055919,3.551104121142316,39.06214533256389,10.653312363426494,10.653312363426494,10.044039219036426,14.20441648456881,10.653312363426721,42.613249453705976,21.306624726852988,50.22019609518226
55,59,415,0,13.84716666666654,7.345944493794377,176.91377078515694,14.691888987587845,22.037833481381995,51.42161145655791,58.76755595035138,59.22489791366174,96.62081446314293,74.91422863925004,73.4594449379399,51.42161145655791,66.11350044414598,0.0,36.72972246896984,7.3459444937939224,7.3459444937939224,10.388734331563647,14.691888987588072,11.018916740691111,51.42161145655791,36.72972246897007,44.683635916500194
56,59,416,0,13.880533333333206,7.362101738322963,163.46518653423507,14.724203476646153,29.448406953292533,52.057920629535296,59.35516178355746,52.057920629535616,96.83332983501978,67.87522427558334,66.25891564490803,44.172610429938686,66.25891564490803,3.6810508691614814,40.491559560777205,11.043152607484672,11.043152607484672,7.36210173832319,14.72420347664638,11.043152607484899,51.53471216826165,36.810508691615496,52.05792062953527
57,59,702,1,23.42339999999965,14.865756179728066,164.35541839346314,11.562254806455144,21.536194098230947,39.95051931477655,43.230452537542675,28.128300622916388,76.05231292540981,54.53279344189466,47.074894569138905,33.035013732729055,49.552520599093555,13.214005493091577,34.68676441936549,8.258753433182278,1.6517506866364329,14.957238619675998,14.865756179728066,14.865756179728066,44.5972685391842,37.99026579263841,46.278505374321846
58,59,703,0,23.456766666666315,7.896261284849629,148.75181476484562,15.792522569699258,20.59093022412008,36.45986957437013,39.60744510480277,38.42486581834229,82.49987187343766,61.9139397170723,57.64270737940234,56.85308125091734,66.32859479273691,23.68878385454883,20.53027934060907,3.1585045139398176,7.896261284849572,12.732338745273784,14.300737417135435,13.423644184244324,52.11532448000759,55.27382899394746,63.24900360160582
59,59,704,0,23.49013333333298,6.510155506255911,143.99594178512228,12.729858615998443,19.01301115454272,36.350035277340666,39.59972997986843,47.60459157693282,85.49660800503787,66.48463206805555,63.15778539174045,63.15778539174045,72.63145320050154,20.526280252315644,17.368390982728613,3.157889269587031,7.89472317396752,12.631557078348067,14.297951779851012,14.210501713141639,47.36833904380535,52.10517294818587,77.5131565928078
60,59,705,0,23.523499999999647,6.22492700267253,145.26404345864685,14.0922778664979,20.290779544017003,34.378283025077984,37.479023624379884,48.268278256425354,88.82798522371264,68.54489833582079,65.36173352806202,63.805501777393886,76.255355782739,21.787244509354025,18.674781008017703,3.1124635013363218,7.781158753340719,15.639935531854068,14.347747811135722,14.006085756013249,59.13680652538943,40.46202551737173,53.276793360853695
61,59,706,0,23.55686666666632,7.814109822845921,145.7535723870646,12.599873493059096,18.8188684961739,35.97886353483314,37.637736992347676,48.472681153492914,87.64352394955368,68.83516714807487,64.85711152962136,62.5128785827676,73.45263233475191,19.53527455711486,19.53527455711486,0.7814109822846262,7.032698840561352,12.502575716553565,12.887360067908133,11.721164734268939,56.261590724490816,39.07054911422975,48.67381347451324
62,59,707,0,23.59023333333298,8.021204004903097,146.4171868358798,11.343695490295419,16.360110297403907,35.438837610665324,35.438837610665324,51.36076577718868,86.86634343265972,70.65947765310796,66.575993240696,64.16963203922506,75.39931764608946,18.448769211277238,16.84452841029656,0.8021204004903666,7.219083604412845,9.625444805883774,12.933802827842728,12.031806007354703,54.54418723334132,41.710260825496306,70.65947765310801
63,59,708,0,23.623599999999644,10.90427342100736,145.17224872727508,9.475443683632893,14.361776225636385,35.96352866894141,35.96352866894129,49.87244102403352,84.34914324705962,70.1680998900086,64.64676385311498,60.7523804884695,70.09890056361866,15.577533458581968,18.693040150298316,3.115506691716348,4.673260037574607,12.462026766865563,14.106056496968083,13.240903439794636,56.07912045089495,43.61709368402941,51.50018317229475
64,59,709,0,23.65696666666631,6.155439854203166,144.9472123512073,9.360519725662805,15.693353965664201,33.994527704628105,35.52734106705149,50.805689507054964,81.79152898962177,66.24251464647439,63.093258505582185,56.93781865137902,66.17097843268374,10.772019744855527,20.005179526160134,3.0777199271015547,1.5388599635508058,9.360519725662805,11.203069638863884,10.002589763080039,55.39895868782821,41.54921901587113,52.52451651699171
65,59,710,0,23.690333333332976,4.9245177738566985,148.341647057678,11.011556498749515,14.101672861800843,34.40120223023449,35.851030545391836,49.85694253326842,79.66463498520841,65.57194668135081,63.06940480064509,54.50442390179205,65.40530868215046,10.122250153189952,19.465865679211447,3.8931731358422894,0.7786346271684579,9.343615526021495,11.33709129877068,10.122250153189952,56.06169315612897,42.046269867096726,51.601803345351726
66,59,711,0,23.72369999999964,7.909854573146504,152.22024556007548,14.047167177054055,17.343503462326186,37.35904979109384,38.90515479128361,43.4626951021642,82.5813061845569,65.31849846360585,61.27437928142774,51.191253576888926,58.947504118841834,11.63437581292925,27.146876896835124,6.98062548775772,2.3268751625859068,9.435886034439253,10.968994709593463,10.858750758734118,55.84500390206074,41.88375292654558,52.94741813422786
67,59,712,0,23.757066666666308,2.200061602587349,147.92040192257824,10.889749347523434,12.54228086487139,35.91562662971694,37.36867939089057,48.25111788903074,73.2656850114268,60.75118665157135,59.89362141137906,48.22603282474677,54.448746737617284,3.1113569564353156,21.77949869504687,4.667035434652917,6.222713912870518,11.000308012936642,12.8284533703829,12.445427825741092,54.448746737617284,40.447640433658535,54.648396509371565
68,59,713,0,23.79043333333297,2.1937989419187267,152.05416549208795,12.506578205920892,15.589870646575536,38.812265311849345,38.812265311849345,40.33250281815492,69.82348886250143,54.293753793670135,53.51812873947483,46.537503251717226,49.640003468498435,7.756250541952909,21.71750151746801,3.1025002167810953,3.1025002167810953,14.047167177054055,15.589870646575593,15.512501083905704,54.293753793670135,43.43500303493613,54.492835245532106
69,59,714,0,23.82379999999964,0.0,146.6843271227675,15.276302598427833,18.395104255321833,38.22129688999126,39.7477534044757,35.135495976383936,68.76033326748137,50.41179857481177,50.41179857481177,45.828907795283385,48.884168314968974,12.221042078742244,21.386823637798898,0.0,1.5276302598427947,13.833280351549261,15.352494106480503,15.276302598427776,51.93942883465445,42.773647275597796,56.70780812608534
70,59,715,0,23.857166666666306,1.546628063311914,145.41594120804413,12.469314087172924,17.012908696431737,40.21232964611124,41.78758915448002,41.78758915448013,72.69151897566269,55.67861027923095,54.90529624757505,46.39884189935913,49.49209802598307,6.18651225324777,24.746049012991648,3.0932561266240555,3.0932561266240555,14.00531277874147,12.469314087172924,12.373024506495767,54.13198221591898,44.852213836047156,49.58866806517809
71,59,716,0,23.89053333333297,6.067836470787142,136.6021474914157,7.584795588483985,19.778727057365884,37.9239779424197,39.470098570244765,47.0257326486003,80.41314289956073,60.678364707871424,57.64444647247785,45.50877353090357,50.05965088399387,0.7584795588484212,32.61462103048086,8.343275147332292,3.7923977942419924,12.230115400503035,13.736649049553527,13.652632059271014,53.093569119387496,43.99181441320678,51.66576583314677
72,59,717,0,23.92389999999964,10.549151577562498,137.21347331974516,7.684332820834072,21.098303155124768,37.675541348437264,39.21153347805341,45.23575967261157,84.3932126204993,63.29490946537453,58.02033367659328,43.70362796418715,48.22469292599965,0.7535108269687498,38.4290521754059,12.809684058468633,3.767554134843749,15.145380180407637,16.577238193312326,15.823727366343633,52.74575788781203,43.70362796418715,51.260893526254534
73,59,718,0,23.957266666666303,3.4233077730873753,148.62833870427548,10.716648443937288,18.435076543619786,39.83412468219314,41.363985203977734,42.866593775749266,75.07900084952976,56.6658265089527,55.11419199739191,36.74279466492794,42.866593775749266,3.0618995554107187,35.211844887222696,12.247598221642761,10.716648443937402,12.342911707560749,13.778547999348007,13.778547999348007,53.583242219686554,44.39754355345457,53.779718405457494
74,59,719,0,23.99063333333297,2.1799579040568395,154.2695694199191,13.87316714993824,18.56167270481953,43.16096446647464,43.16096446647464,36.99511239983542,67.894403079754,49.35089601540386,50.097548041443815,32.37072334985589,38.536575416495225,1.5414630166598045,32.37072334985589,9.248778099958827,10.790241116618631,14.211586811367875,13.873167149938297,14.6438986582682,53.95120558309327,44.70242748313444,57.22129973466067
75,59,720,0,24.023999999999635,3.384487217112114,155.96574946355176,12.108709578306616,15.211378149282144,42.38048352407327,43.894072221361625,31.82138006270432,62.22304041353733,47.018799096738206,45.40766091864998,30.271773945766654,34.81254003763161,0.7567943486441209,29.514979597122533,8.324737835085898,8.324737835085898,15.435636606053391,15.135886972883327,15.135886972883327,52.975604405091644,42.38048352407333,47.14045207910319
76,59,721,0,24.0573666666663,1.5190579293438304,155.01091156757394,13.671521364094701,19.806092213241023,41.042685154272796,42.53362202162771,28.862100657533006,62.35543146112901,42.56073941170895,42.53362202162771,27.343042728189175,31.90021651622078,0.7595289646719721,32.65974548089264,9.873876540734955,9.873876540734955,15.26634325118311,15.190579293438475,15.190579293438418,54.686085456378464,44.05267995097154,48.82300393729988
77,59,722,0,24.090733333332967,1.5251187136650515,157.20563870118883,12.200949709321208,16.84548678649977,41.17820526895912,44.22844269628945,28.97725555963791,58.03472501388576,41.20643852923113,41.17820526895912,27.452136845972746,33.55261170063329,1.5251187136651652,27.452136845972632,6.100474854660547,7.625593568325712,15.327253379778625,15.251187136651481,15.251187136651481,54.904273691945434,42.70332398262423,50.42126426631337
78,59,723,0,24.12409999999964,1.5184448762486227,156.51771528626452,12.147559009988186,19.73978339123073,42.54356298115179,44.0349014112071,28.850452648721784,60.756772646107585,41.026121371754414,40.99801165870997,25.813562896224767,31.887342401218802,0.0,31.887342401218916,7.592224381242659,9.110669257491168,15.260182143825931,15.184448762485147,15.184448762485147,54.664015544946665,42.516456534958536,50.31531552858939
79,59,724,0,24.1574666666663,1.5359076025778222,159.91888839721156,12.382882969553922,20.025785073789198,43.03283105339847,46.10281943064306,30.71815205155724,61.51305154603348,41.497938255643774,42.23745907089108,24.574521641245838,32.25405965413506,2.30386140386679,33.02201345542392,8.447491814178193,11.51930701933395,15.435680371441485,15.359076025778563,14.591122224489709,56.82858129538084,43.0054128721801,50.89396187854512
80,59,725,0,24.190833333332964,1.5120199028489196,154.492626711514,9.072119417093859,18.394516020229705,40.936385634129486,42.36354903085861,36.28847766837532,63.666631942188,45.38579042097742,45.36059708546918,24.19231844558351,33.26443786267737,7.5600995142448255,34.77645776552629,12.096159222791698,13.608179125640731,13.940134714627757,15.120199028489765,15.120199028489765,55.944736405412016,40.82453737692225,51.60840897956749
81,59,726,0,24.22419999999963,3.378301263177838,151.45192458315162,7.703712157713484,16.68757723472302,40.9039605377529,42.410801706012606,39.31042215642572,66.75030893889229,50.06273170416926,48.34631214680962,25.683978327992577,36.259734110107274,8.309522400232936,35.50432298281339,12.841989163996345,12.841989163996345,13.929092943239732,15.183575744228877,15.10822254587805,54.38960116516091,40.792200873870684,51.72222262403769
82,59,727,0,24.257566666666296,5.535182718565811,153.89400733515743,6.1407338802617915,16.95665565449125,43.012542416234105,44.54678144887447,41.563515421541304,69.50838789572481,52.55621630297712,49.8934627771273,27.63330246117812,38.37958675163634,8.44350908536012,36.07681154653835,13.049059495556435,11.513876025490958,10.855386420487767,12.28146776052364,12.281467760523697,55.26660492235641,38.379586751636396,51.03186315305611
83,59,728,0,24.29093333333296,4.79428860993911,148.8547478499674,7.580435883804967,18.443996542934908,43.99265979442437,45.50787640741729,39.534716676948825,70.15078061761902,51.74723356454045,49.27283324473251,30.32174353521998,39.41826659578601,4.548261530283071,34.870005065503165,12.128697414088037,9.096523060566028,9.221998271467463,10.72035523557675,10.612610237327033,53.06305118663505,37.90217941902506,57.790570475765136
84,59,729,0,24.324299999999628,10.618338149351771,147.53759596022002,4.504979346203072,18.08237829093661,42.073280705781244,45.07481417679606,40.655896006499795,73.82609117587982,55.743747051015994,50.305602699267524,30.0331956413537,40.544814115827535,5.255809237236917,38.292324442726,14.265767929643062,6.757469019304608,9.134239855617084,10.511618474473835,10.511618474473835,49.55477280823368,36.03983476962452,49.759123253785056
85,59,730,0,24.357666666666294,12.243946739578572,149.32518941875193,6.261656133776304,18.28726484382683,39.51473627796786,42.63122990848729,42.76626740191345,79.49504048651117,61.219733697892785,54.67228863004914,31.892168367528598,44.04156584087286,4.556024052504085,41.00421647253677,16.705421525848237,7.5933734208400665,13.752184164680752,13.752184164680752,13.668072157512256,57.70963799838512,41.004216472536825,47.469213412665816
86,59,731,0,24.39103333333296,10.92635192518878,148.85525480329812,6.180878031945326,18.6069068504122,38.66137973794145,40.294394932122124,45.23562481028985,80.88452953649747,62.28978975542426,56.400512041500974,33.99482917569924,46.356585239589776,4.635658523959023,40.175707207644564,15.452195079863372,7.726097539931743,12.457957951084872,15.529263862592249,15.452195079863259,55.62790228750782,38.630487699658204,46.58779158777669
87,59,732,0,24.424399999999626,9.426321377355746,144.65226466787857,4.900511134653471,18.66059045214038,38.86571869985525,40.41065005538376,46.722204065309874,79.5786276190636,60.93209704483702,55.788396784276415,35.6425868343988,48.04000834201577,4.6490330653563205,37.19226452285079,13.947099196068962,7.748388442260534,14.287322343159186,15.574068021769916,15.496776884521182,57.33807447272841,38.741942211302955,54.437598749380015
88,59,733,0,24.45776666666629,9.345041614158815,139.1192743866347,7.833702089895154,18.49968692335696,35.46859474071597,37.1585116729343,44.974960292997835,80.60899068405949,62.140111372717946,56.843668974683055,35.33525368696519,50.698407463906506,1.536315377694109,36.8715690646593,13.826838399247322,7.681576888470659,15.667404179790196,15.43977846064144,16.13131146578843,58.37998435237728,38.40788444235346,52.594966578320744
89,59,734,0,24.49113333333296,9.467334677506914,142.4868509280725,7.936217141778692,17.40130721789719,35.93275137934684,37.64478326053795,47.33667338753474,82.13711938962648,64.73660495902071,59.14396887159535,38.910505836575794,54.4747081712062,0.0,34.24124513618676,12.45136186770435,6.225680933852118,17.40130721789719,17.191223373054104,18.67704280155641,59.14396887159535,37.35408560311288,53.2832459723695
90,59,735,0,24.524499999999623,12.5420911565537,144.33258960239317,6.414129666780898,18.92535925306278,36.08314740059826,39.17039071450964,47.59388961139813,85.4336464566486,66.51220876465686,59.1148880162782,37.33571874712311,56.003578120684665,0.0,37.33571874712311,14.000894530171195,6.222619791187185,17.392751064037597,17.392751064037633,18.667859373561555,63.78185285966862,37.33571874712311,48.84855621379404
91,59,736,0,24.55786666666629,10.887185614408356,144.8036615407103,6.3482655587866965,19.044796676360146,35.71262412766343,37.74573278455495,47.80453983062449,84.02199164200836,64.97743818945105,57.73802081988606,35.41265276953004,56.96818054228754,0.0,35.41265276953004,12.317444441575617,6.1587222207878085,17.214151925275104,17.21415192527516,17.706326384765077,60.047541652681446,33.87297221433312,51.64245577582523
92,59,737,0,24.591233333332955,10.988845115895108,146.39517468076374,8.368855109813792,19.22262817520714,34.50567358325235,37.811847998432995,46.361988333808014,84.80655012082637,65.58416744053339,58.27715174143583,35.74331973474733,59.05418043132164,2.331086069657431,34.96629104486158,11.655430348287155,5.439200829200672,15.848337809396734,17.374889710522808,17.094631177487884,60.60823781109332,32.63520497520409,49.06983856304989
93,59,738,0,24.62459999999962,11.141672266277146,149.9869391991455,9.965414628167991,17.965406711559368,38.3377155413217,40.17187065047749,45.476588508956006,84.45652151663266,66.49627797757417,59.0876400993202,36.24041926091638,59.87547530064444,3.9391760066213237,33.87691365694366,11.817528019864085,7.090516811918519,19.16885777066085,17.965406711559282,18.12020963045825,66.1781569112386,33.0890784556193,57.78651709454035
94,59,739,0,24.657966666666287,7.927340475329559,149.28970104307405,9.45674545463257,17.726072183622307,37.82698181852998,37.82698181853009,46.769758451407135,81.8240029252938,64.10107280995229,58.30047659797975,37.312305022706994,59.07781628595279,3.109358751892273,31.093587518922504,9.32807625567682,7.773396879730626,15.854680950659096,17.726072183622364,17.101473135407332,60.63249566189887,29.538908142976368,53.96775606045377
95,59,740,0,24.69133333333296,14.719159514964819,156.9547553102584,8.140671368108762,16.28134273621764,40.42058212260827,41.997805338216175,48.02836899759984,87.12361670980492,70.86089969287796,61.465904736527534,35.1233741351586,60.667646233455855,1.5965170061435856,36.71989114130213,14.368653055292157,6.386068024574229,14.719159514964819,15.145890187820237,15.166911558364006,62.26416323959944,27.140789104440785,55.120313212821365
96,59,741,0,24.72469999999962,10.0707436813845,158.3782541878597,9.685731124904004,18.15529136264344,39.03631221567412,39.3919298579168,45.95725150090289,83.8052896421706,65.65321642986122,58.916002365109534,31.846487764924063,58.916002365109534,0.7961621941230987,35.82729873553956,13.534757300092679,10.350108523600284,16.238586255274164,18.155291362643386,18.311730464831328,63.69297552984824,30.254163376677923,56.835051893459614
97,59,742,0,24.758066666666284,9.920871090724292,151.11834797335013,9.9208710907244,17.885104707437463,36.619976564482414,38.455374657666695,47.990771892637916,85.6016542722651,67.72402555269929,61.17647058823536,34.50980392156862,59.60784313725492,0.0,36.07843137254906,14.117647058823536,9.411764705882433,15.996923964212657,17.537788058821874,18.03921568627453,64.31372549019608,29.80392156862746,52.61336417646563
98,59,743,0,24.79143333333295,8.087507440941542,154.36500948977218,8.54135983051182,16.55927308209721,33.90674649769322,35.783837291064884,49.804258288278355,82.75077687876845,66.25607959904627,61.0644920354228,33.30790474659432,58.68535598209468,3.172181404437538,34.89399544881303,14.274816319968977,11.10263491553144,16.559273082097157,16.17501488188323,16.653952373297216,65.02971879096981,30.135723342156723,58.49213496961957
99,59,744,0,24.824799999999616,6.282970092581422,149.77340891146943,8.458707356711912,14.901371972456944,33.57863990434622,35.43756658793934,52.68430585353744,81.95001955749721,67.15727980869248,62.8297009258132,34.55633550919731,59.688215879522545,4.712227569435981,32.985592986051984,12.565940185162617,12.565940185162617,14.901371972456944,14.481530523098801,14.922053969880665,64.40044344895858,28.273365416615945,51.81069866861914
100,59,745,0,24.85816666666628,3.197213244546788,154.00647978347578,7.1491861533694285,16.68994312370866,34.17430630867048,36.06620931818597,54.937204513962854,81.51326361530823,64.9160274966695,62.34565826866344,35.16934569001529,60.747051646390105,6.394426489093689,31.972132445468333,9.591639733640477,14.387459600460716,13.658500967993557,13.658500967993517,13.588156289324104,65.54287151321026,28.774919200921545,52.72979165956155
101,59,746,0,24.891533333332948,3.6760731104690008,162.18941212485294,10.00000000000001,17.163758172224288,40.00000000000006,42.26684855163063,51.62232913056969,82.21593190774804,65.14018147996856,62.471615176035755,31.235807588017906,60.8276253029822,4.931969619160668,34.52378733412502,11.507929111375006,14.795908857482118,15.156837721956716,15.156837721956716,15.617903794008953,69.04757466825009,29.59181771496435,54.226751152365225
102,59,747,0,24.924899999999614,3.278991455356504,158.52321409753165,8.828954694140245,17.11683791701006,38.58914636987518,40.55888434779746,51.481210103300036,80.3854636333257,63.349062644408924,60.6613419240947,31.150418825886447,60.661341924094586,4.918487183034699,32.7899145535647,9.836974366069398,14.755461549104098,16.719641415766574,16.719641415766596,17.214705140621447,67.21932483480754,29.510923098208195,60.46161499548479
103,59,748,0,24.95826666666628,5.149195078786607,158.75061123161007,8.302827584289666,18.205153789312018,33.211310337158345,36.73653885348298,52.51169237205757,84.05972254403495,65.86140561328664,62.69026057715888,32.56636913099163,60.247782892334556,5.699114597923483,36.63716527236562,13.840706880671462,13.840706880671462,13.427457976993255,13.427457976993255,13.840706880671405,63.50441980543371,27.681413761342867,56.87471859312204
104,59,749,0,24.991633333332945,9.603611637090978,154.47259971145158,8.619505234908337,18.249669968012164,34.21696131938559,38.04587377575314,48.25755123315691,84.21052631578945,66.11086693077166,60.822873701576384,32.01203879030339,59.22227176206121,2.4009029092727587,37.6141455786065,15.205718425394082,12.004514546363794,19.798352583568583,19.47216300721104,20.0075242439396,65.62467952012193,30.41143685078822,58.700862302088254
105,59,750,0,25.02499999999961,11.411474154560437,158.65894263503273,10.310357082444424,18.22630852362787,34.84992204709817,37.174521129096505,49.15024110298634,88.76792330167328,70.57136281380639,64.39331844359111,37.49484365069861,63.57821314683673,1.6302105935085933,37.49484365069861,14.671895341577738,9.781263561051787,16.624951255132398,15.029799041602713,16.302105935086388,65.20842374034538,32.60421187017272,58.18732939296351
106,59,751,0,25.05836666666628,14.283465239858003,151.07031612157377,10.03739623062105,17.74377735032109,30.527548846689157,34.66173218196173,49.428444087835416,91.14154754452287,73.43437559085137,65.86264527267872,39.676292332939,63.48206773270243,2.3805775399763434,38.88276648628022,16.664042779834347,8.728784313246592,16.184815106613364,14.631893642563222,14.28346523985806,66.65617111933753,34.91513725298631,54.54011151663129
107,59,752,0,25.091733333332943,14.585553049632829,153.3218462349173,9.797535303090624,18.008228038281267,32.85206249412723,35.17832561866004,50.345801231556756,92.7100238792705,74.72004219878073,66.84425259953815,40.26762204791453,64.4281952766633,2.416057322874906,39.46226960695628,16.912401260124057,8.85887685054115,13.282212719680194,13.761868543696496,13.690991496290962,62.81749039474673,30.603392756415076,56.94701722467459
108,59,753,0,25.12509999999961,11.493493650809107,146.981967639219,10.280093240868561,16.576152276884784,31.560053677250966,35.088113279671816,52.24169012946044,90.33915255019531,73.79145164268701,67.45515659009664,40.63563650005818,66.64244386009545,1.6254254600023046,35.75936012005127,14.628829140020912,9.752552760013941,7.269123641848189,9.47777766593036,8.127127300011693,65.0170184000931,32.50850920004655,55.85885212420752
109,59,754,0,25.158466666666275,6.671355704984938,151.379860480988,11.441280643873247,16.892848428926182,36.50467847026775,38.4604056312738,50.807531357676275,85.67983886216409,68.89513229908167,64.72165702992936,37.214952792209374,64.72165702992936,0.8090207128740872,33.16984922783877,10.517269267363531,12.135310693111819,5.833931326360107,10.854151855151196,9.708248554489444,64.72165702992936,30.74278708921645,59.340442234308256
110,59,755,0,25.19183333333294,11.56736257611623,148.22481775342618,9.950621536156874,17.07900617099223,36.57921226152018,38.88423600549311,51.13245306008431,89.55559382541139,72.64451051243786,66.25282019592402,39.260930486473455,67.07075624772546,2.4538081554045448,35.17125022746586,12.269040777023065,7.361424466213862,7.315842452304093,9.253890060892987,6.543488414412195,65.43488414412246,31.081569968458155,51.988828749455124
111,59,756,0,25.225199999999607,18.22630852362787,149.62456129619167,8.778952716380488,18.587260564548323,36.452617047255856,40.32918281422177,50.77262039536806,95.94727672167903,77.46502756603128,67.65373963060836,40.755264837715856,70.09905552087127,4.890631780525837,39.12505424420726,14.671895341577738,4.8906317805259505,8.778952716380584,10.438440963414983,8.966158264297519,65.20842374034538,30.97400127666407,54.993940821836745
112,59,757,0,25.258566666666272,17.785543631519694,147.26601966896905,11.581106959264387,19.352763774875235,35.8897992409835,37.812584432361525,48.38190943718821,97.03803036755369,77.68842724683358,67.60846378067271,44.542046726090234,71.58543223835926,10.340117989985288,37.38350350225426,13.521692756134485,3.976968457686553,10.061022807149348,13.117968816633333,11.930905373059886,66.81307008913535,34.99732242764236,53.664028165001966
113,59,758,0,25.29193333333294,22.830321336679873,155.7991712548249,10.210030091395968,18.406393509279344,41.157947107359355,43.0761641458054,46.227877374781585,97.53117550369775,79.15243103960503,66.18824763872038,43.58738259135248,71.03129014887071,12.107606275375701,37.937166329510546,13.721953778759143,0.807173751691721,11.752627224116948,13.312250545803996,13.72195377875903,66.18824763872038,29.058255060901615,59.534194307853
114,59,759,0,25.325299999999604,21.331283874903296,158.11388300841895,10.257084643119477,18.491222308770862,39.75860881967799,43.274687517010406,46.44092591896091,96.39749811766698,77.93022142170774,65.68239299142073,42.16647451301088,69.73686169459478,10.54161862825265,38.11200580983677,13.785193590792005,0.8108937406349241,13.373602175158306,13.85655831407698,13.785193590792005,64.87149925078592,30.81396214412331,57.590584594898104
115,59,760,0,25.35866666666627,19.384614237596807,155.96007544267226,11.719554323773826,21.89570967122949,41.04212511649262,44.52499498673231,44.52499498673229,97.25671441629362,75.45502895886462,64.39218364563465,40.245114778521724,70.83140201019819,12.073534433556574,39.44021248295121,12.07353443355646,0.8049022955704004,13.274788731756155,14.841664995577448,14.488241320267832,64.3921836456347,32.19609182281732,62.20181618518636
116,59,761,0,25.392033333332936,17.92369108548821,156.60861604598378,11.813687259368582,20.072120258834858,41.37178063184171,43.299963646214096,46.15532312351132,95.79634207552039,75.76624808910955,65.72075714254277,42.19110335076823,69.77759400319349,10.54777583769203,38.1342664901174,12.170510581952385,2.434102116390477,13.381413505889887,13.864651732617007,13.793245326212684,63.28665502615229,29.209225396685667,61.10625250516963
117,59,762,0,25.4253999999996,11.305300482045677,150.8738836313367,8.609860336487461,19.776198980274117,35.7504991558641,37.6315398887945,48.38879915729238,87.80369173011593,68.0763103917479,61.55422068338686,39.97027317103044,65.55124800048992,4.7964327805236735,33.5750294636656,7.9940546342061225,4.7964327805236735,13.660246546985961,14.740308418818259,15.188703804991576,63.95243707364875,31.976218536824376,55.844064889117796
118,59,763,0,25.458766666666268,6.641106359840069,150.1415425933053,8.673911244776926,16.426031247063605,35.763452249448015,37.602284080402676,50.57715920845196,82.13015623531815,65.70412498825455,61.206785512830095,38.65691716599798,62.8174903947467,0.8053524409582451,29.798040315456774,8.858876850541265,7.248171968624661,14.849965266408654,15.280488195626909,14.496343937249321,64.4281952766633,30.60339275641502,54.33593016158683
119,59,764,0,25.492133333332934,4.974416453566226,146.63141981033752,9.948832907132452,17.587218033813187,36.72318938240976,38.27392438681761,47.84240548352209,80.21005519205666,62.62630294038952,58.98932258807463,37.75316645636781,61.34889549159766,2.359572903522917,29.10139914345018,7.078718710568978,8.651767312917627,20.690224011009025,19.136962193408806,19.66310752935817,62.92194409394631,28.314874842275856,58.963099282672125
120,59,765,0,25.5254999999996,1.6189025759124434,144.5182278825275,10.238838899593317,20.024718954213505,35.94547059499652,37.793661173682835,50.60203654635715,82.24598692527873,62.28042561220651,60.708846596713386,40.47256439780898,64.75610303649427,2.4283538638685513,28.33079507846628,4.047256439780881,7.28506159160554,21.2933388692603,21.2933388692603,21.85518477481685,64.75610303649427,30.759148942334775,57.78371077627908
121,59,766,0,25.558866666666265,8.115885644277943,140.0114675499468,10.066517218443908,19.363332486019445,33.764125195668704,35.34050122460364,47.98783828703018,85.31336224124075,65.95297533416164,61.27876084250164,41.383059270260844,62.074588905391295,3.979140314448273,32.628950578474814,8.75410869178586,5.570796440227355,14.674344412344432,13.599115899915649,13.52907706912373,58.89127665383279,25.466498012468264,59.93594545706342
122,59,767,0,25.59223333333293,8.466609732151559,132.08435188279276,11.44586125907506,22.23440644688465,31.795978636339658,33.35160967032697,48.966200850377845,90.72618706996168,68.4949647574884,63.67450327571265,45.594088765325125,66.03281821185016,7.074944808412511,33.80251408463755,7.074944808412511,3.930524893562506,16.033458504749937,16.033458504749937,16.508204552962525,62.888398297000094,31.444199148500047,58.931664078557894
123,59,768,0,25.6255999999996,7.966974860920885,132.80844706968276,9.88181612353204,19.008052836295533,31.404902929047797,33.14461889005677,52.14940626407409,88.88142917872791,69.87499191388085,64.84177121637453,45.3111172355388,65.6229973756079,3.9061307961670764,32.03027252857066,7.031035433100897,3.90613079616719,14.405098612505554,14.822724185298116,14.062070866201736,60.93564042020739,31.249046369337123,52.40624393541062
124,59,769,0,25.658966666666263,2.2117345224170992,134.25246769630937,9.51302988308989,20.5703201286926,31.628576994860566,33.176017836257756,53.5404238330632,85.37409853404839,64.80419893482359,63.33926539891581,43.79010941159618,62.55729915942311,0.0,31.278649579711555,6.255729915942311,7.819662394927832,15.717326893636312,14.418745018211807,14.857358550363017,59.429434201451954,29.714717100725977,55.29336306042955
125,59,770,0,25.69233333333293,3.564558413208083,140.0014067371364,8.12844380814047,19.393294453566046,32.239061284720044,33.816370315359734,54.57384331405389,85.44537237909303,66.05502806232636,63.76475937361704,44.635331561531984,63.76475937361704,1.1368683772161603e-13,30.288260702468165,6.376475937361761,7.9705949217021725,14.697050846341178,13.145441904475836,13.550011366893614,63.76475937361704,33.47649867114893,53.77641725361527
126,59,771,0,25.725699999999595,4.881752883514851,131.21839373101187,9.390239160857822,18.780478321715666,27.958425704519207,31.220326851625636,51.316488474323734,84.27212078902537,65.49558778136814,62.521705248305636,44.76862844940405,64.83732396120587,3.8593645215004244,28.55929745910248,5.4031103301003895,3.8593645215003107,15.743180004158384,19.095081083888754,17.75307679890159,60.20608653540546,30.87491617200277,53.29836898922923
127,59,772,0,25.75906666666626,6.554515247897939,143.91042390813115,8.824286210201665,23.17371089589622,33.139216840837705,36.38346411534257,53.07235154222127,91.32324027837933,68.15592845335563,63.90652366700493,45.881606735285516,65.54515247897933,3.2772576239489126,34.41120505146421,8.193144059872452,4.9158864359235395,13.211047835926541,13.51247934590235,14.747659307770334,63.90652366700482,36.04983386343861,53.34988890746516
128,59,773,0,25.792433333332927,6.154392425938568,132.07769220472582,9.35892691131257,20.237098484148127,29.39487555079132,31.11622101912034,49.832530096401086,85.51339478523848,65.27718927696398,61.543924259385335,44.61934508805439,63.08252236586998,4.615794319453926,30.771962129692724,6.154392425938568,3.077196212969284,13.93259842702734,14.1851736446417,14.616682011604041,56.92812993993135,29.23336402320797,55.921215473739174
129,59,774,0,25.825799999999592,4.593791538897335,131.44809818972544,7.807944232738313,18.628628696537028,29.254754706691532,30.77802239685027,49.854338878393314,80.80953887411363,62.181380063122674,58.95365808251552,42.8753876963749,61.25055385196413,3.0625276925982234,27.562749233383897,4.593791538897335,3.0625276925982234,13.866183876344056,12.627125157961553,13.015742693542336,56.65676231306679,30.625276925982064,54.138352475194516
130,59,775,0,25.85916666666626,4.926459559581073,132.1907815635244,9.476234169283517,20.31231312448672,31.313066812504957,31.313066812504946,48.91852792051033,83.5031262258823,63.26233970801126,59.978507084597254,43.62073242516158,62.315332035945175,4.673649902695843,29.599782717073936,6.231533203594495,4.673649902695956,17.41766480910548,17.417664809105503,17.136716309884946,59.19956543414793,32.71554931887124,53.53771986046297
131,59,776,0,25.892533333332924,7.808628577671016,129.01026596696474,9.499606665054714,20.362412081954737,29.836727901274514,31.390298390849416,50.581593330759056,88.137246755479,67.80479991790509,63.249891479135215,46.85177146602604,62.46902862136807,4.685177146602655,32.79624002621824,7.808628577671016,3.1234514310683608,12.591035250782712,12.878320166781684,13.274668582040704,57.78385147476547,34.35796574175242,53.66976705438843
132,59,777,0,25.92589999999959,11.086161107736002,131.48205768805704,9.536676381158381,20.62145168626864,28.610029143475032,30.15761867239244,50.77897469305713,92.02181536217499,71.40038597280177,65.06452748183585,45.46677824031906,64.28061751217524,4.703459817964017,36.059858604391025,10.974739575249487,4.703459817964131,11.086161107736059,11.086161107736059,12.542559514570769,56.441517815568545,32.92421872574829,60.09067484206057
133,59,778,0,25.959266666666256,11.077655144027501,128.06075990717625,7.988210726739797,20.60562967917738,28.242589872123805,29.930176034848014,50.52188065177277,90.17238505023215,69.56908545644079,63.4479890831019,46.99851043192734,64.23129759030064,5.483159550391633,33.68226580954786,10.183010593584186,0.7833085071987398,14.186320429329063,15.976421453479427,17.2327871583733,57.964829532710326,32.89895730234912,61.598137899702564
134,59,779,0,25.99263333333292,8.02261864213631,131.73115005116307,8.022618642136422,19.14081087203959,29.935309981261693,31.624244345104398,52.30107474783925,87.44569394124873,68.31013626171224,63.72128095222513,45.62758389171677,62.934598471333516,2.360047442675068,32.253981716558314,8.653507289808317,3.933412404458295,14.247425691799009,14.50570821270838,14.94696713694168,58.21450358598344,36.18739412101672,55.62685168791556
135,59,780,0,26.025999999999588,3.4773144326198713,136.57481679363914,9.459317940975781,20.45417712718833,32.80491874756356,32.988701242964304,48.60783106259757,81.81670850875331,61.362531381564985,59.093887023640775,41.98776183258684,60.64898931373665,3.1102045801916347,29.546943511820473,6.220409160383269,4.665306870287395,15.62858459358317,15.858993845662745,16.328574046006054,57.53878473354496,34.21225038210781,50.36707204277062
136,59,781,0,26.059366666666254,6.4845920686638445,136.56640371439474,9.56663186469508,20.68622535917123,31.80679092071911,33.36295095006529,47.59988866523776,84.29969689262964,63.613581841438446,59.764294438203024,44.036848533412694,62.90978361916109,6.290978361916132,29.882147219101512,4.718233771437099,3.145489180958066,12.679872260684157,12.969184137327634,13.368329019071723,56.6188052572449,34.600380990538554,57.162288682573255
137,59,782,0,26.09273333333292,8.255086270939238,145.3908676018314,11.447744935865632,21.29403648544722,35.763898470082324,35.946648246951035,49.2386127562277,90.22682350013982,68.93405785871884,63.948746780211536,45.3307572112891,64.7582245875559,6.4758224587556015,33.99806790846685,8.094778073444445,3.2379112293778007,16.51017254187861,14.926033264008195,16.189556146889004,61.5203133581781,38.85493475253355,58.841854406209045
138,59,783,0,26.126099999999585,14.850631886889685,147.06862811293578,9.97559637882014,19.951192757640168,36.228296869058184,36.41341967312521,49.87798189410038,94.63681672679796,74.68654731368022,66.41910666902294,47.55936033090535,65.59911769780041,7.379900741002643,36.89950370501265,12.299834568337474,2.459966913667472,13.523604560767824,15.119849549351507,15.579790453227588,59.03920592802035,39.359470618680234,59.40252754755888
139,59,784,0,26.15946666666625,11.306745687527044,146.7700954559421,8.153410267001988,16.30682053400411,33.73126491220671,35.503901626415356,49.980420283834384,85.70781724858577,69.42378681834428,63.16110473553681,41.57439805377112,60.76258177089619,1.599015309760489,33.5793215049689,14.391137787843832,4.797045929281239,14.479699471658764,14.742192736228205,15.990153097604264,59.163566461135815,36.77735212448982,55.20656802710254
140,59,785,0,26.19283333333292,8.156473902861864,139.90927127960038,8.156473902861752,17.66833773516923,32.151886460588486,33.74393940170229,53.1737042855097,87.10199972439851,69.44987273771505,64.7844535964814,44.7892518691724,59.18579711283485,0.799808069092478,34.39174697097167,13.596737174570194,7.198272621831279,16.07594323029425,16.312947805723727,15.996161381847287,55.98656483646545,36.7911711782487,56.19185339792259
141,59,786,0,26.226199999999583,5.018461117831377,137.39956336390773,9.65320270000505,16.18405081270839,31.77918461582255,33.664860605731576,51.005936327935764,81.69462820567881,65.54809539335373,62.68558155129995,41.261395451488625,57.13116293283042,1.5869767481341341,31.73953496268348,11.108837236939166,9.521860488805032,14.370685659623824,14.631202682113159,14.282790733207662,58.718139680964555,36.50046520708605,51.178462336057606
142,59,787,0,26.25956666666625,3.579369977159996,136.66445191051704,9.604457502661944,17.680783415188877,32.05485193474168,33.65369260440888,53.04235024556663,83.62254033899329,65.94205997460193,64.02971668441262,44.820801679088845,57.62674501597132,1.6007429171102103,32.01485834220625,11.205200419772154,8.003714585551506,17.680783415188877,16.324438741181847,16.807800629658345,57.62674501597132,38.41783001064755,56.39069920978493
143,59,788,0,26.292933333332915,4.938610341544324,133.19606964779166,7.9632698983885515,17.249824337900353,29.713858218397316,33.129205314229424,51.56060569379771,81.44964832781919,64.2019344400757,61.68816576360098,43.72832003495762,54.66040004369711,2.3425885733012137,32.015377168451096,11.712942866506523,8.589491435438049,17.249824337900346,17.46062431071988,17.17898287087621,54.66040004369705,34.35796574175242,53.66976705438843
144,59,789,0,26.32629999999958,3.1501678678123426,135.9051933313603,9.580861535239531,17.609973732410502,34.79474136473139,36.36363636363631,52.00162925087963,82.14632776253976,64.65522900014646,63.00335735624873,45.67743408328039,56.703021620623815,0.7875419669530856,30.71413671117125,10.238045570390454,8.66296163648417,17.609973732410445,17.39737068236569,17.325923272968396,55.12793768671759,36.22693047984302,50.62369750434592
145,59,790,0,26.359666666666246,4.786197364320174,140.83859589508415,8.134971252191722,20.80145957950058,35.13502103308745,36.83264888813596,52.74477323739373,86.38758465092195,65.58623501016855,63.01826529688276,44.671175400322,55.83896925040244,2.3930986821601437,35.896480232401586,11.965493410800491,8.774695167920413,19.211149411742756,19.211149411742756,19.144789457280922,55.83896925040244,36.69417979312158,54.454316500585094
146,59,791,0,26.393033333332912,4.979115950555408,138.996728340361,9.577520759652655,18.95990867360885,36.350956632469725,39.48912972359377,50.409706942514404,83.68766797362494,64.72850735721993,62.19412119442586,45.661506699705,56.6832496961855,0.7872673568914479,32.27796163255016,8.659940925806154,7.085406212023258,14.258018246671437,14.258018246671424,14.170812424046403,53.53418026861965,36.2142984170074,50.7772187846459
147,59,792,0,26.42639999999958,4.726827844761374,142.11960783968493,9.584057100428153,18.972848183453998,34.66340419491621,36.375764956672555,50.444109898272714,83.6409630861196,64.67679386655223,62.236566622690646,44.1170598844389,53.570715573961536,1.5756092815871625,34.663404194916325,12.604874252696959,7.878046407935585,18.972848183454055,17.403173337160638,17.331702097458162,56.72193413713575,37.814622758090536,53.940173162846385
148,59,793,0,26.459766666666244,5.041887743738738,143.81316425087508,9.698264714664969,19.19893654077545,35.22111359112066,36.809233715070945,49.42593182901618,83.0458756781562,63.855065390948894,61.3838185618427,43.04839223817538,52.61470162443658,1.5943848977102562,35.076467749624385,11.160694283971452,9.566309386261196,17.61055679556034,16.259599411203883,15.943848977101993,54.20908652214672,36.67085264733453,57.75107722878274
149,59,794,0,26.49313333333291,5.058430378626383,150.7802618052906,11.310994186058478,21.039665386849606,36.825929023674924,38.52385803542779,48.015137012992724,85.15608757780765,64.16434998791381,61.58522132011194,41.590019592802946,52.78733256009593,0.799808069092478,37.590979247341124,11.997121036385465,8.797888760016008,17.884252114433753,17.66833773516923,17.595777520032016,57.586180974650176,38.39078731643343,56.55497093029295
150,59,795,0,26.526499999999576,5.0202394177891705,149.53236285814208,9.656623328271605,20.880816697300972,38.13399769166635,38.397448131321866,47.652624518009084,82.932774946182,62.09693215630212,59.53271609839277,41.276016494885596,50.80125107062844,1.5875390959571405,36.51339920701412,12.700312767657124,7.9376954797857024,15.954570458035963,14.375777935742343,15.081621411592778,57.151407454457,39.688477398928455,54.556861440044635
151,59,796,0,26.55986666666624,4.781521653246159,151.71654263889965,11.270154618002364,20.781138308247495,36.79666649727694,38.3847634787384,46.22137598137999,82.9409875619822,62.18021198790177,59.7690206655775,39.84601377705167,49.4090570835441,1.593840551082053,38.252173225969614,12.750724408656538,11.156883857574485,9.563043306492432,11.270154618002348,11.156883857574485,57.37825983895448,39.84601377705172,51.22654113297731
152,59,797,0,26.593233333332908,4.808084378347303,150.8662842919955,9.748811833041291,20.896583495826395,36.896804975097375,40.09941090410589,48.08084378347371,83.40174855231106,62.52564091148424,60.101054729342195,38.46467502677899,46.47814899069124,5.609431774738596,40.868717215952756,15.225600531433429,12.020210945868484,8.172172022731313,8.630775594669842,8.81482136030354,59.29970733295096,43.27275940512641,57.897002784683714
153,59,798,0,26.626599999999573,3.5837345038464963,155.5935197680263,9.61616875669472,20.896583495826277,41.70087427615553,43.30242876713462,48.080843783473824,81.80026106257414,60.92348656539084,59.299707332951016,40.06736981956146,46.47814899069135,4.8080843783474165,38.46467502677899,12.821558342259664,11.218863549477192,9.748811833041179,11.332763561488491,10.417516153086012,56.094317747386015,44.87545419790882,54.70333305764824
154,59,799,0,26.65996666666624,4.933686707594275,154.48821919610162,9.490135866053775,20.282193435003478,40.564386870006956,40.56438687000707,45.27178451658258,79.58389931616642,59.30693656222707,56.946158490586754,37.44404941846801,40.564386870006956,6.240674903078002,40.564386870006956,15.601687257694948,12.481349806156004,9.490135866053832,9.49013586605385,8.58092799173221,51.48556795039349,45.244893047315486,59.36846893557764
155,59,800,0,26.693333333332905,4.702268003442555,158.34072447980893,7.992318769232191,17.241649345956034,40.78312096755381,42.34942842933949,45.56322725118566,75.2526136032941,58.015816229899755,55.64350470740351,39.18556669535462,36.05072135972625,7.837113339070925,37.61814402754044,17.241649345956034,10.971958674699295,7.837113339070925,9.534259872920197,8.620824672978017,48.59010270223973,45.45525736661136,59.56206137693903
156,59,801,0,26.72669999999957,4.700680325812414,158.28726218756785,6.267573767749923,18.802721303249655,40.739229490374214,40.739229490374214,43.87301637424923,73.64399177106122,54.84127046781157,52.490930304905305,36.038549164561914,32.904762280686896,9.401360651624827,39.17233604843682,17.235827861312146,12.535147535499732,10.968254093562336,12.632698793018529,11.751700814531034,48.57369670006159,45.439909816186685,54.841270467811455
157,59,802,0,26.76006666666624,4.721446484570947,165.31806243594295,7.86907747428495,18.885785938283902,44.17910622612602,45.667776039340225,42.49301836113864,73.96932825827844,55.083542319994535,52.722819077709005,34.6239408868538,29.90249440228274,10.229800716570367,41.706110613710166,21.24650918056932,13.37743170628437,12.590523958855897,14.164339453712898,13.37743170628437,48.788280340566644,48.788280340566644,55.083542319994535
158,59,803,0,26.793433333332903,4.669225353845718,162.05343928455062,7.936157064207305,17.191093234610232,43.60722078703381,45.24305627168025,42.0518406858953,71.74688455150051,54.56316093680422,52.139683117944514,35.79739437948433,28.01535212307465,10.116654933332484,39.688415507689115,19.455105641024034,13.229471835896334,10.894859158973475,12.4512676102554,12.4512676102554,46.69225353845775,49.8050704410216,54.49652566553139
159,59,804,0,26.82679999999957,3.088711001178922,162.34107530080112,7.874698833429948,20.13593218786157,43.35212477854273,44.89269044966882,41.81183872593134,72.84710326874419,52.71209071659071,50.96373151945238,33.975821012968254,26.254043510020892,11.582666254421042,42.46977626621026,20.848799257957808,13.127021755010446,12.354844004715687,13.984733848038637,13.127021755010503,46.33066501768394,50.963731519452324,52.508087020041785
160,59,805,0,26.860166666666235,3.0507474949195057,160.62844659341457,7.777910503819433,18.36793224804345,42.81928157639086,45.86279126670351,38.40792957221942,67.54839969363191,49.19182525803411,47.28658617125211,32.032848696654696,19.829858716976673,12.202989979677909,41.18509118141321,19.829858716976673,13.728363727137662,10.677616232218213,12.29795631450853,12.202989979677966,39.6597174339534,48.81195991871192,53.38808116109112
161,59,806,0,26.8935333333329,4.7172493666691935,164.01441822469562,6.289665822225629,17.36790742098637,44.279649424941226,45.843423555062394,39.810404917817756,68.06947066920903,50.708907009446804,47.958701894470096,31.44832911112792,18.868997466676774,14.15174810000758,42.45524430002274,23.586246833345967,14.15174810000758,12.677226752361662,11.118663385732415,11.793123416672984,40.88282784446625,53.46215948891745,59.77251142057735
162,59,807,0,26.926899999999566,4.7311241440050935,166.33862192130692,6.502308191214267,19.18553644622895,47.54720919533323,49.29358122026546,38.66164469580033,68.97640798694617,49.79556546408295,46.522720749383325,31.54082762670066,15.770413813350387,14.193372432015167,44.15715867738072,23.655620720025354,14.193372432015167,9.974085458713677,12.71451409605578,12.616331050680174,36.2719517707057,52.04236558405603,55.39883975101639
163,59,808,0,26.960266666666232,4.7686302214273155,170.68173377365093,7.947717035712003,20.7251104060335,46.342755709079405,48.108313114907,38.67526030899356,71.96963872730826,51.26123460196301,48.481073917843446,28.611781328563325,14.305890664281605,16.69020577499532,50.07061732498585,27.817009624992238,16.69020577499532,11.239769221807663,13.107710728304646,12.716347257139262,41.328128585702586,58.81310606426905,57.31180259027692
164,59,809,0,26.99363333333289,7.3692822985179,177.08524897680232,8.239108082435905,23.12827852896092,48.0418428851148,51.5059589749368,38.46878297360746,76.67241559182563,53.649184938339566,49.43464849461532,28.012967480281986,11.53475131541029,18.126037781358946,56.025934960564086,29.660789096769236,18.126037781358946,16.804549154776232,14.921659376239589,15.654305356628186,49.43464849461532,60.96939981002555,59.41305331062472
165,59,810,0,27.026999999999564,1.5541160267659961,172.68180334922454,9.324696160595977,21.813057902463665,42.07609494557603,45.309878955403065,35.43929802942595,67.70668381768112,46.023880755743015,44.292306762830776,20.20350834795795,12.43292821412797,17.872334307808842,50.50877086989476,24.088798414872826,22.53468238810683,14.073119171717916,14.073119171717916,14.764102254276906,51.28582888327776,54.39406093680975,60.63044633448361
166,59,811,0,27.06036666666623,4.658411769799669,161.05578691679997,10.724469271257226,22.145836739766246,40.20832769672341,43.35077045212573,33.235082834945814,68.24215505514107,46.58411769799659,43.45701484093354,35.35485953160696,10.311834030052069,9.575274456476905,43.45701484093354,21.360227633679187,11.048393603627119,11.876666258279402,10.72446927125728,11.048393603627233,38.30109782590756,58.92476588601164,44.584675617054025
167,59,826,1,27.56086666666621,12.15672864180135,147.276763487583,9.171933691769782,20.11731635494824,35.84134247309098,39.14623443060716,56.11577058045579,96.51460248662208,77.13685103309426,70.869260696266,60.314264422354086,87.45568341241335,18.094279326706214,22.617849158382683,4.523569831676582,6.031426442235443,20.50906721991802,24.313457283602556,22.617849158382796,55.79069459067745,21.10999254782388,43.90944728858602
168,59,827,0,27.59423333333288,9.250280042013726,158.62384263286285,9.250280042013726,19.82798032910784,38.291170975332435,41.508033165029275,50.391256636372745,88.255150545958,68.58505527473967,63.87094019031633,50.18431014953421,62.35020351911828,6.082946684792091,31.935470095158166,7.603683355990029,3.0414733423959888,14.020499347945641,18.248840054376103,17.488471718777078,53.225783491930315,36.497680108752206,41.312568754161056
169,59,828,0,27.62759999999955,4.569381615389489,169.12885689754876,9.138763230779091,21.37810906400048,41.152630931628444,42.647561743635265,44.27560759764432,79.33431425554095,57.958942945792025,55.5941429872388,39.60130733337553,35.03192571798604,6.854072423084176,41.88599814107033,19.039090064122888,12.946581243603532,9.264821092241622,13.7925034568255,12.946581243603589,50.26319776928443,53.30945217954411,39.63058741673493
170,59,829,0,27.660966666666216,8.003009697575772,132.03753368094246,8.161500523082323,22.465518779890377,38.547599275340666,40.14289241898809,38.04587377575324,75.7035648722056,53.661955455503175,48.018058185455175,41.615650427394485,27.210232971757932,2.4009029092727587,39.21474751812161,15.205718425394139,5.602106788303104,14.494067015159617,14.494067015159617,15.205718425394139,48.01805818545506,68.8258833991523,32.99725430594761
171,59,830,0,27.69433333333288,8.888888888888907,122.5817646884403,6.28539361054706,21.5587222254519,32.33808333817768,35.58822028964319,40.67691574123231,76.90452823680847,55.49015758638195,49.54403570783586,54.879547245602794,32.0130692266016,3.811079669833589,31.25085329263493,8.384375273633736,3.811079669833589,15.320350665603733,13.804317680987303,13.719886811400784,41.159660434202124,54.87954724560285,41.41295304296184
172,59,831,0,27.727699999999547,6.262017207839739,153.58283860976405,6.262017207839768,18.288319366286142,39.51701486786287,41.03469654073606,41.454142158679545,72.16917900749607,53.93210101803128,50.11915449722551,37.96905643729201,30.37524514983363,6.834430158712507,37.20967530854614,15.94700370366263,8.353192416204138,13.668860317425128,15.263371785844173,15.187622574916816,41.00658095227544,50.11915449722551,54.69653112246928
173,59,832,0,27.761066666666213,6.032540951946089,150.9341263959322,7.540676189932583,19.663677741705076,39.24050807049189,42.254709067800505,41.164080975556686,74.28235873902628,54.62698168145761,51.27659809154147,39.211516187649295,33.17897523570332,4.5244057139594815,37.7033809496628,16.58948761785166,7.540676189932583,15.081352379865109,13.573217141878615,13.573217141878615,40.71965142563579,48.26032761556837,49.768462853554865
174,59,833,0,27.79443333333288,7.601870594389879,152.0678163300349,7.752417300120231,19.764863545413732,38.130788913837776,39.55895424978577,41.30271960148914,76.26157782767557,56.58161701449738,52.45290710129018,39.52972709082735,36.488978853071444,3.0407482377559063,38.0093529719494,15.203741188779759,6.081496475511926,15.203741188779759,15.279570792294923,15.203741188779759,44.09084944746132,50.17234592297319,53.21309416072927
175,59,834,0,27.827799999999545,6.083474290900767,149.05287945862648,7.604342863625902,18.250422872702302,39.54258289085499,39.5718195550273,44.52276183803297,76.28637950647506,58.11230656783986,54.75126861810679,41.06345146358012,39.542582890854874,3.802171431813008,35.74041145904198,15.969120013614543,8.364777149988527,18.250422872702302,16.798542445444067,17.489988586339734,42.584320036305314,48.66779432720608,53.23040004538166
176,59,835,0,27.86116666666621,4.597397460323577,145.58425291024855,9.194794920647269,16.857124021186678,36.779179682589074,38.31164550269693,44.547070710430354,75.15334878078541,58.3143014811017,55.935002433937484,41.37657714291265,41.37657714291265,3.064931640215832,33.714248042373356,12.2597265608631,7.662329100539409,18.389589841294537,18.45333211159551,18.389589841294537,49.03890624345212,49.03890624345212,53.65819160662673
177,59,836,0,27.89453333333288,3.053435114503827,141.9847328244274,7.633587786259568,18.32061068702285,36.64122137404581,39.69465648854964,49.23516182167059,78.10171335834302,59.85433827148913,58.0152671755726,44.27480916030538,44.27480916030538,4.580152671755741,33.587786259541986,12.213740458015309,9.160305343511482,18.320610687022906,18.320610687022906,19.083969465648806,45.80152671755724,47.32824427480915,48.9502886775005
178,59,837,0,27.927899999999543,1.532555801073272,141.02844619387673,9.195334806439519,19.923225413952423,36.7813392257583,38.313895026831574,49.25682981836748,79.82541650297333,59.94624878678443,59.003398341320576,44.44411823112455,47.50922983327109,3.065111602146544,33.71622762361176,10.72789060751279,7.662779005366247,19.923225413952423,19.923225413952423,19.923225413952366,47.50922983327109,47.50922983327109,46.00220953765565
179,59,838,0,27.96126666666621,3.041803106940165,135.36023825883694,9.125409320820495,21.29262174858104,36.501637283281866,38.02253883675189,47.36820969054306,80.73681221481185,59.490390392751415,57.79425903186285,47.14794815757233,47.14794815757233,0.0,33.4598341763417,9.125409320820495,4.562704660410304,18.250818641640933,18.250818641640933,19.011269418376003,48.66884971104247,47.14794815757239,47.172472449559834
180,59,839,0,27.994633333332875,4.845833492311044,134.88488726256537,7.813671724069706,21.508077878636424,36.77729039431358,38.34031298677254,50.77730620489083,84.50388919881208,62.99583540004246,60.529290440641034,49.03638719241815,52.101161391944174,0.0,33.71251619478744,9.194322598578424,4.597161299289155,18.452384193118178,19.92103229691986,19.92103229691986,49.03638719241815,47.504000092655076,47.602761114215305
181,59,840,0,28.02799999999954,7.632198097554692,132.87917721461187,7.632198097554692,19.8437150536422,35.108111248751584,38.191507078406175,49.06025380192318,84.0789768315869,64.27380304601957,60.29436497068207,48.84606782435003,53.425386682882845,2.2896594292664076,32.818451819485176,8.395417907310161,2.2896594292664076,18.38076704715669,18.31727543413126,19.08049524388673,48.84606782435003,45.79318858532815,47.34424179724728
182,59,841,0,28.061366666666206,12.162992951023853,136.96874839301452,7.601870594389879,21.28523766429157,36.488978853071444,38.03974830105468,47.229584480562565,88.23411001330614,66.96553348571737,60.81496475511909,47.13159768521729,53.21309416072921,3.0407482377559063,38.0093529719494,10.6426188321459,1.5203741188779532,19.82325322519436,18.244489426535722,18.244489426535722,50.17234592297319,47.13159768521723,51.78207658225596
183,59,842,0,28.094733333332872,12.21238842412193,142.41969884444038,7.573801784431339,19.691884639521618,39.38376927904312,40.898529635929435,45.54368277456266,84.84010355367055,65.15230645778666,59.0756539185648,51.50185213413346,54.53137284790597,7.573801784431339,31.809967494611897,7.573801784431453,3.029520713772513,18.177124282635305,18.177124282635305,18.177124282635305,46.957571063474575,43.92805034970206,50.01003742535821
184,59,843,0,28.12809999999953,15.200228005130157,147.56752110541996,6.080091202052017,19.818672594134654,41.068754537701565,41.06875453770156,44.315899144297035,85.17554605759445,65.5198594745102,57.76086641949445,48.64072961641642,54.72082081846844,7.600114002565078,33.44050161128632,9.120136803078026,3.0400456010260086,18.240273606156165,19.76029640666917,19.76029640666917,44.08066121487735,42.56063841436435,53.28758567437268
185,59,844,0,28.161466666666204,12.10654293674861,143.83686298948334,9.079907202561458,22.699768006403815,40.85958241152662,39.37535605638859,42.39991520025442,86.2723921211773,63.57736355430391,57.50607894955607,52.9661253482754,57.50607894955607,12.863201870295484,31.0230162754184,5.296612534827432,6.809930401921179,16.71514217580841,18.159814405122972,18.916473338669732,45.39953601280746,40.85958241152673,53.05253017789713
186,59,845,0,28.19483333333287,18.441906643360426,152.26986708879875,10.757778875293525,23.10355402932662,43.05855006915159,44.59443017513796,41.49428994756079,93.75895485495572,70.69397546621474,61.473022144534525,52.25206882285431,58.39937103730779,13.831429982520262,38.42063884033405,10.757778875293525,4.61047666084005,18.50583025494015,21.51555775058705,21.51555775058705,49.178417715627575,44.567941054787525,53.87664140768018
187,59,846,0,28.228199999999536,17.944444300016062,144.7417931300786,9.064563061058408,22.40269324317367,40.26312159665833,41.752341976068955,40.2355346652958,89.42471676884217,67.05922444215963,58.11799451653843,50.66696957852065,58.11799451653832,14.156947382233739,35.01981720868332,9.686332419423024,6.7059224442159575,14.97637477538969,16.45985207769426,15.647152369837215,49.176764590917,40.235534665295745,49.37955623308274
188,59,847,0,28.2615666666662,20.92628295088639,143.68900673969975,8.968406978951407,22.47078669274064,41.95919681574296,43.373064026333324,40.38550218769215,92.72174348733431,70.26842096672105,59.78937985967559,50.8209728807243,58.29464536318369,14.199977716673061,38.11572966054314,11.210508723689145,5.231570737721654,9.092114988005056,12.050934775990903,11.210508723689202,52.31570737721614,41.85256590177295,52.507535833569065
189,59,848,0,28.294933333332867,18.267464222395574,141.9733143649657,12.273083747398019,24.546167494796023,41.21440236757838,42.732679751876525,39.69643223186504,94.68831412674423,70.17404105015994,60.89154740798551,50.23552661158806,60.89154740798551,15.984031194596128,38.81836147259082,11.417165138997348,3.805721712999002,9.25972057462932,9.259720574629302,9.894876453797622,54.80239266718701,39.5795058151906,54.99234953717053
190,59,849,0,28.328299999999533,15.271514434493724,140.90403296342075,12.312288557774997,22.958120264034356,36.683436500952546,39.82323745297533,41.683122373041826,92.0860923676885,69.14472242348275,61.08605773797484,47.3416947469305,58.03175485107619,11.453635825870265,38.942361807958946,11.453635825870265,0.7635757217246919,10.79859141561878,12.593213415312515,11.453635825870322,54.97745196417742,38.17878608623431,53.79823129300644
191,59,850,0,28.3616666666662,9.548500588703178,145.52546994751245,9.680210266915713,25.660824285301853,36.74070904531291,40.070850257950404,41.65136268690478,86.46535032243935,60.80794920142697,55.69958676743545,42.96825264916447,57.29100353221929,8.752792206311256,35.806877207636944,7.161375441527412,0.795708382391922,11.253015860726299,11.585688927269835,11.935625735879,58.88242029700308,36.60258559002892,49.97150004518431
192,59,851,0,28.395033333332865,10.905183106290451,139.35873504918487,7.789416504493147,23.420121385326997,34.4147669621454,36.13483366531133,42.52193883771073,84.48554974244131,61.07617852206631,55.304857181901355,42.06284912426298,56.083798832350624,7.010474854043764,35.052374270219275,8.56835815494253,0.7789416504493829,12.846634803981921,12.846634803981921,13.242008057638373,57.641682133249276,34.273432619769835,58.394653289513016
193,59,852,0,28.42839999999953,7.808390524241986,136.9476837676434,9.499317060558853,23.63247801700658,34.498596921374606,37.610189202322054,40.87302747126238,81.7460549425247,58.11876914457645,53.87789461726953,37.480274516361476,54.65873366969373,5.46587336696939,35.13775735908882,8.589229576666071,2.342517157272482,14.141596701198782,15.926054261145097,15.616781048483915,62.46712419393572,34.35691830666468,56.99590236335356
194,59,853,0,28.4617666666662,7.710923068741408,135.23824797135669,9.380742783310506,21.645592540462957,33.96309306729512,35.60409657716479,41.753064194768555,80.4305091457147,58.78535876668155,54.74755378806401,38.554615343707155,55.518646094938276,5.397646148119065,33.15696919558809,8.48201537561556,2.313276920622343,15.727258878130089,16.10088006085793,16.96403075123112,63.22956916367963,33.92806150246224,56.5584511808466
195,59,854,0,28.495133333332863,9.283655426606629,134.35487688321203,7.889590029623044,21.881785687842612,32.639820961171054,34.18044191534645,43.57168507739401,82.52943990505092,60.660319876089325,55.70193255963943,38.68189761086069,57.24920846407383,4.641827713303314,34.04006989755737,7.736379522172115,1.5472759044344002,17.299070511314238,15.779180059246164,17.020034948778687,61.891036177377146,32.49279399312297,54.94463664019541
196,59,855,0,28.52849999999953,7.778419542332022,126.2093168870298,8.2149266271348,23.084604111853196,30.547584596185658,32.1799003838376,42.9577259941004,81.36653562033405,58.28826357712163,54.15431202345388,39.662313031262045,56.44252239064218,5.339157523439098,32.797681929697546,6.864631101564669,0.7627367890627283,15.556839084663935,17.39307485416701,16.017472570317295,61.018943125018495,30.509471562509248,48.480308723588955
197,59,856,0,28.561866666666194,9.27858934926985,127.94326520834916,8.327788803923458,23.401755900131217,29.422867029783152,31.082889633206296,43.547908071877146,84.20600289142367,60.80446177957678,55.671536095618876,41.753652071714214,58.76439921204212,6.958942011952445,33.24827850155009,5.412510453740651,0.7732157791058398,15.770569383513633,17.63203259270677,17.78396291943386,60.310830770253745,30.928631164232684,52.16771743230673
198,59,857,0,28.59523333333286,7.669198772401842,125.59703321020653,8.259979865611509,21.69176983293168,30.715117147134407,32.356385067384515,43.193319659324246,80.47909711437138,58.7882980912993,54.451311284053304,39.879833616489805,58.285910670254225,6.135359017921473,30.67679508960748,4.601519263441105,0.0,15.64215767763964,15.64215767763964,16.10531742204398,61.35359017921502,30.676795089607538,50.24349602755975
199,59,858,0,28.62859999999953,6.396978329542417,133.41053996403141,6.396978329542389,20.406732442294565,31.184666317286304,32.91218198111417,46.956763518186605,80.09382333169583,59.687209679234506,55.853824949979696,38.78737843748587,58.956815224978584,2.3272427062491943,30.254155181238957,6.981728118747469,3.8787378437485813,15.822207962707914,16.198084782578388,17.06644651249377,63.61130063747686,32.58139788748815,52.682341893865306
200,59,859,0,28.661966666666192,3.1923475378704325,138.6008336295369,8.138921194885787,19.743579138480747,33.85995887898607,34.122297844533826,48.83352716931451,79.82464858859693,60.106063367210986,57.462255681668864,38.308170454445815,57.46225568166875,1.1368683772161603e-13,30.327301609769734,4.788521306805819,7.980868844676365,17.845765256206207,17.845765256206285,19.154085227222993,62.25077698847451,30.32730160976962,61.40603094926983
201,59,860,0,28.69533333333285,1.560061927887432,136.805956935024,9.489486239898007,20.519410977412306,30.008390342904924,31.550299943218523,47.728717276265215,79.25667352239462,58.746223574969434,56.942260367888935,39.001548197184206,56.16222940394516,0.7800309639436591,30.421207593803615,5.4602167476057275,7.020278675493159,15.9095724254217,17.44202259932762,17.940712170704728,62.40247711549466,32.761300485634706,53.861688767264084
202,59,861,0,28.728699999999524,2.2182377652269687,140.66146340331494,9.541001388060304,19.08200277612059,29.966742030323942,33.27356647840522,50.802003619199084,81.23112795049329,62.150256191887784,60.388442193930416,40.78180511797899,58.03564574481635,0.7842654830379843,30.58635383848423,7.0583893473425405,8.626920313418623,15.995940007393328,15.763541116941624,17.253840626837302,61.17270767696863,32.939150287598466,54.15408530032893
203,59,862,0,28.76206666666619,6.501701840009266,139.84661290790586,9.591873681299438,16.08122981268683,31.577284141096722,33.450979997401284,49.515486015488754,81.66424954781492,65.58818912342734,61.4988784630948,42.57614662829644,59.92198414352822,2.3653414793498087,29.172544911980935,8.67291875761589,5.519130118482849,16.08122981268677,17.41736704556419,18.134284675015124,61.498878463094854,34.691675030463784,57.551242087796595
204,59,863,0,28.795433333332856,6.310372918562734,137.98305347502532,9.977575653851128,16.088357324899196,33.46580611898695,33.725091282027506,49.53743223697759,81.70044472335525,65.61725907792822,61.52613595598592,48.905390118860566,63.103729185626605,7.099169533383019,24.45269505943031,5.521576303742336,2.3663898444609686,16.088357324899196,17.6380285115998,18.14232214086769,63.103729185626605,36.284644281735325,52.91408553479938
205,59,864,0,28.82879999999952,4.835059447081448,135.59734358527027,9.670118894162698,18.411357851167775,30.732118609284957,33.948866445594064,46.777794588859216,79.46284503668763,61.19741446385717,57.33675178159325,45.869401425274646,62.68818194787531,8.409390261300302,23.69919073639187,2.293470071263755,0.7644900237545471,15.366059304642484,15.592598196286424,16.054290498846058,61.15920190036621,36.69552114021974,44.99463820945586
206,59,865,0,28.862166666666187,6.3407542603300175,139.43724249186684,10.8743038438292,17.19378405761213,34.146006693417014,34.146006693417014,47.049432112681764,81.43394346125277,64.24127874403176,59.97649311150576,47.67362272965846,64.59006950469859,9.996082185250941,23.83681136482926,2.306788196596358,0.7689293988654526,13.925903701526428,14.178357554719183,14.609658578443714,61.51435190923672,33.8328935500802,51.878521739165166
207,59,866,0,28.895533333332853,7.9816021220626805,140.37359908494645,11.068490658249683,19.042951371497416,34.755765659158826,36.542785764418575,46.06407415789996,84.1496515685704,65.10681528558231,60.26485697500203,48.52494977207965,65.74348033636596,11.739907202922495,25.827795846429467,3.9133024009740893,0.7826604801948633,15.963204244125395,17.50082037018273,17.21853056428631,59.48219649480728,34.43706112857262,59.99489513760931
208,59,867,0,28.92889999999952,7.766793191330639,136.5957231320603,12.28037830004644,20.034482034831612,35.330208878615835,36.841134900139224,44.82435130981806,84.88985522819293,64.85656886623576,60.16614179250263,47.2189973561413,63.97412545025594,11.423950973260048,28.179079067374573,3.8079836577533115,0.7615967315506396,17.029820631889468,16.824221698973897,18.278321557215975,59.40454506095193,36.55664311443195,56.87042242231266
209,59,868,0,28.962266666666185,9.9818464277509,139.96848172116776,12.724407429197068,22.32008715341446,36.60766479225199,38.17322228759121,46.44509272270817,91.33525844396355,69.03007945075112,63.130739931416485,50.5045919451332,67.86554542627272,13.415282235425934,30.776235716565566,5.523939743998994,0.7891342491427622,16.09524374089218,16.09524374089218,17.360953481139518,61.55247143313102,34.721906962279036,60.71720143391432
210,59,869,0,28.99563333333285,10.903352389888521,138.27927079825872,9.752254850570274,20.281407814789077,32.52782702101368,34.23722097825046,48.418742245406435,89.2344641480251,68.95885536697621,62.449658741709754,49.34294024036319,66.30457594798804,10.022784736323842,30.0683542089713,6.938850971301122,0.7709834412556802,15.725038446478408,15.725038446478408,16.19065226636917,61.67867530045402,35.46523829776106,54.7561102890499
211,59,870,0,29.02899999999952,10.915931296894708,135.37515327739104,7.87159000207923,17.259602840051357,34.102459549516446,35.80691697709991,51.5250458459721,87.55910665426111,70.3040214080049,64.06545105690577,49.399865875204455,66.381069769806,6.946856138700696,28.55929745910248,6.946856138700582,0.7718729043000394,9.390239160857842,11.238639127725254,10.806220660201006,60.20608653540546,35.506153597803234,60.38394833068513
212,59,871,0,29.062366666666183,5.025942706910453,137.60440047404992,8.104089106258678,14.392109670364645,35.28913337830971,36.69282402547831,53.046914616936355,80.4778830728219,66.10595522427884,62.77903405622925,47.68027903004753,63.57370537339676,3.1786852686697102,23.840139515023907,6.3573705373397615,4.76802790300485,8.104089106258733,8.558872020898864,7.946713171674617,63.57370537339676,38.14422322403806,52.83219719349838
213,59,872,0,29.09573333333285,5.0659299088802285,146.49211805697598,11.327763645505522,14.769596800669374,38.58097275624169,38.5809727562418,51.662550919747346,82.70043299046071,67.96658187303319,64.88050176426475,49.6616186343756,64.07950791532323,5.6069569425907275,24.8308093171878,7.208944640473874,5.606956942590841,11.327763645505522,11.662646481864355,11.213913885181569,62.47752021744026,38.447704749193974,53.25253858274223
214,59,873,0,29.129099999999514,3.5869030194790748,141.74395119448718,11.342783287689345,12.932762756848483,35.326897787682654,37.033796601272336,53.32314687754056,80.98779039850017,68.0566997261356,65.76858363808708,52.935689269679756,65.76858363808708,6.416447184203662,20.853453348661787,4.812335388152746,3.208223592101831,11.342783287689288,11.678110149941748,11.228782572356295,62.56036004598525,40.1027949012726,51.73105102739404
215,59,874,0,29.16246666666618,2.2259179783117866,142.21508244230964,14.252829357465842,12.979220653407443,36.33772750881317,36.33772750881317,46.077039809264896,75.04018174734225,62.10670168141825,60.59752532792919,50.36677429853847,62.958467873173106,11.017731877805318,17.313578665122577,1.5739616968293149,3.1479233936586297,12.68968488578739,14.252829357465842,13.37867442304929,59.81054447951442,37.77508072390384,50.75873954314945
216,59,875,0,29.19583333333285,0.0,144.2877437609234,12.607959468384989,12.895630537892016,32.877535876397204,34.54602131710952,44.03770920323347,69.44509573846504,56.64414726326342,56.2976966294147,50.04239700392412,60.98917134853258,11.728686797794694,13.292511704167396,2.345737359558939,0.7819124531863508,12.607959468384989,14.161036815815878,14.07442415735369,57.86152153578729,37.531797752943135,50.43183787353997
217,59,876,0,29.229199999999512,1.5628219645692525,148.67357889385096,12.502575716553451,11.050820089341654,34.523865608513084,34.523865608512985,39.350851585752245,62.99936746529562,51.95060928130284,51.57312483078323,51.57312483078323,59.387234653629264,16.409630627976526,7.032698840561352,7.032698840561352,3.9070549114230744,15.706166361876154,15.706166361876154,15.628219645691956,60.9500566181984,37.507727149660525,45.990534013924595
218,59,877,0,29.26256666666617,1.5761106843680182,145.13917135608966,12.707010577221663,14.531022524144682,36.28479283902245,34.99533641020978,34.8174230237802,60.408438669588804,45.95112790750609,46.49526518885449,52.01165258414238,58.31609532161423,20.489438896783383,4.728332053103827,11.032774790575672,7.88055342183975,17.621453151552274,15.839716343017619,15.761106843679556,59.89220600598213,37.826656424830844,52.60527660575495
219,59,878,0,29.295933333332844,1.5642912147542916,142.56521377901075,12.61171896674837,15.720932143493027,36.01268821423229,36.28346411868588,32.99875932558843,59.771483390108564,44.05084056648793,44.582299620498134,51.62161008689259,59.443066160664216,22.68222261393771,3.9107280368857573,13.296475325411734,10.167892895903151,15.720932143493027,15.720932143493027,14.860766540166026,57.87877494590987,35.97869793934939,47.34404309070696
220,59,879,0,29.32929999999951,1.539817448139729,138.66053983050165,10.888153593689617,14.196415419239461,32.482484653271385,34.015679230534545,33.9109616524485,57.30521194821469,43.224735575747324,43.88479727198211,52.35379323675056,56.97324558116975,20.78753554988623,2.3097261722095936,13.08844830918764,8.468995964768453,15.474973833035989,14.196415419239461,14.62826575732737,58.51306302930948,35.415801307213655,45.31355991238961
221,59,880,0,29.362666666666176,1.5577533458582025,135.66770715740796,12.559008982583233,12.559008982583219,31.193986441291663,31.31045474851957,35.86217516914122,59.378811388672744,46.83633546537651,47.51147704867492,54.5213671050368,60.7523804884695,21.808546842014778,1.5577533458581456,12.46202676686562,9.346520075149215,15.886029415790794,17.41621186758335,16.356410131510984,59.19462714261135,37.38608030059663,42.7744432675099
222,59,881,0,29.39603333333284,1.562285467470133,136.14311692813746,9.503011503156763,11.047026481973266,36.06816082136501,34.688366778519786,40.649455002802895,61.24876366451572,50.21235073136926,49.99313495904437,54.67999136145477,62.49141869880543,17.966282875906472,2.3434282012052563,10.154855538555807,8.592570071085674,15.7007746327596,14.403560322323516,14.060569207231197,59.36684776386517,35.932565751813115,45.73522330503268
223,59,882,0,29.429399999999507,1.5704156394922393,132.2510032142083,14.220718442557281,14.478516804727455,34.86888589295185,36.25586041795413,37.72267815253454,66.42319811092598,52.03742305568886,51.8237161032464,54.96454738223099,64.38704121918488,21.985818952892373,6.281662557969298,10.99290947644613,6.2816625579691845,11.104515479664233,12.949979115497394,12.563325115938483,59.67579430070799,39.260390987307915,49.08648041268108
224,59,883,0,29.462766666666173,2.2479538443615215,134.12581963034575,14.39392774546172,15.974713536153963,36.86918435273771,36.869184352737825,39.770363340518635,71.811482816821,55.838015116015065,54.83924754641305,57.22356265712665,69.93990991426597,23.843151107136123,7.947717035712117,11.126803849996804,7.947717035712003,12.815308650490753,16.595320379784713,15.895434071424006,61.99219287855391,39.738585178560186,49.91267542203319
225,59,884,0,29.49613333333284,1.5807313503029263,133.38225745964786,15.886153460950196,16.120360001884297,38.232790730872985,38.232790730873,39.64454057687214,73.14192737082257,57.103578175001886,56.11596293575161,58.48705996120583,71.13291076362879,25.291701604845798,7.903656751514291,11.06511945212003,7.903656751514291,14.314131176920444,16.120360001884354,15.016947827877175,61.64852266181157,39.51828375757151,50.97705430783072
226,59,885,0,29.529499999999505,2.2108897491800894,130.35815434314637,18.825047875626478,22.108897491800317,34.711673160000984,38.037585504033906,37.65009575125295,80.27996105737854,58.18043646276503,57.061732394687624,59.40673509583905,71.91341616864725,28.140032413818517,14.070016206909258,10.943345938707239,7.816675670505106,9.509396376008487,13.357141240945639,11.725013505757715,60.97007022994012,39.0833783525257,50.416043192373444
227,59,886,0,29.56286666666617,4.68846589370753,135.13666493484152,17.261932804256542,23.6497877555643,39.19537546776656,40.90296514513142,39.3508515857522,84.91172874908735,61.2697968141614,58.605823671344524,57.824412689059955,71.88981037018266,25.786562415391586,19.535274557114917,8.59552080513049,8.59552080513049,12.599873493059109,14.826230956132841,13.283986698838078,62.51287858276754,39.07054911422972,50.3994939722364
228,59,887,0,29.59623333333284,5.56978913498815,142.7983242643948,15.524862570509123,23.376786942614938,38.896605882399825,41.96577602328594,44.90507560994795,88.71404937089129,65.33896455215951,62.56365330375024,54.06735470694463,67.97038877444459,16.22020641208337,27.033677353472285,0.7723907815277471,0.7723907815277471,15.753742668517292,15.753742668517292,14.67542484902782,60.24648095916683,37.074757513333395,48.50712500726661
229,59,888,0,29.629599999999503,2.202995908544737,148.64917927914706,18.950887367265747,25.11801796516634,42.17457162352978,45.41592411866718,45.28215085571657,91.00533168740748,65.88762649698693,64.64676385311492,56.07912045089489,70.09890056361866,17.914163477369186,27.260683552518344,2.3366300187872184,0.7788766729290728,17.416211867583293,17.205948080735105,17.13528680444017,59.194627142611296,37.38608030059663,50.45293515121286
230,59,889,0,29.66296666666617,9.543423027243659,151.43213763165434,19.086846054487147,22.18800784900908,42.621771251502324,45.7417499917493,44.04193805558865,94.77422564259673,72.59582526670424,67.46395048753539,53.343588757586076,69.03287956864085,17.258219892160298,32.94751070321479,6.275716324421865,1.5689290811053525,19.086846054487147,17.54116038614057,18.042684432712917,62.75716324421893,40.79215610874229,52.15361924162122
231,59,890,0,29.696333333332834,16.94281037872444,151.44791377973905,16.942810378724396,21.693045781865578,39.999999999999886,41.8681403512336,41.52957840326509,97.07486498452988,75.41259061674924,66.72595402972127,52.153619241621186,70.56077897395812,19.941089710031576,35.28038948697906,9.203579866168525,3.0678599553894514,21.693045781865635,20.0,19.941089710031633,67.49291901856861,42.950039375452775,55.561306891841575
232,59,891,0,29.7296999999995,27.512672967584844,153.7077359671018,13.819681422727344,17.06263544687038,39.94260551832505,43.165432717788256,41.45904426818198,99.77192792968634,82.7634560420584,68.67578292209936,53.41449782829949,71.72803994085933,21.365799131319818,36.62708422511969,15.26128509379987,7.630642546899935,20.073086541327662,20.07308654132772,19.83967062193983,70.20191143147932,47.30998379077954,58.49274506870185
233,59,892,0,29.76306666666617,28.859210323157534,146.94245671725977,9.22637325382206,14.389689164886489,38.19220976443294,39.69862307568868,47.24066746567084,99.33634607455467,85.27906025529354,70.5314985034754,50.05461184117604,69.77309529376055,12.892854565151424,38.67856369545427,18.960080242869708,3.7920160485739416,22.953446201196353,21.45088209851883,21.23528987201405,77.35712739090846,51.57141826060564,65.85455740442673
234,59,893,0,29.796433333332832,3.4850928139406157,136.88032008487824,7.947234361289385,15.894468722578882,35.982633962257566,36.15101407683596,53.19763300913748,80.23286183692885,64.37523980313804,62.34323551893806,56.108911967044264,74.81188262272576,12.468647103787589,14.027227991761151,4.675742663920346,4.675742663920346,22.31548226664626,22.041662298275583,21.820132431628338,77.92904439867263,54.550331079070816,64.37523980313814
235,59,894,0,29.82979999999949,12.34544380951434,140.75971643550582,7.807944232738313,15.615888465476514,33.99957500796856,35.51740002078845,50.74008598482102,86.41810666660066,70.85301940150477,64.31308154456241,50.5317069278704,70.43813692975874,9.95321500094417,25.265853463935173,5.359423462046834,2.2968957694486107,21.655340990077775,21.492312264984346,21.43769384818745,79.62572000755335,53.594234620468626,72.3755060240646
236,59,895,0,29.863166666666164,1.564638227423984,140.31237350499705,7.97812085334812,14.42525169731536,34.74060652722129,34.56398816637959,53.56458476777069,76.1385822659746,61.73880840030466,61.02089086953532,51.63306150499142,68.84408200665524,7.040872023407928,14.864063160527849,2.346957341135976,0.782319113711992,23.934362560044363,23.521670197796787,23.46957341135976,82.92582605347113,56.326976187263426,72.39728342828852
237,59,896,0,29.89653333333283,2.20964125933711,141.66713038511526,7.966974860920773,14.40509861250561,36.07201287574831,36.24081123740964,48.837570893630186,72.95163328885621,58.565915281098796,57.02950962404026,49.99847419093936,67.18544969407475,10.15594007003449,13.280844706968423,3.9061307961670764,2.343678477700223,22.09641259337116,21.93006333219404,22.655558617769373,84.37242519721022,56.24828346480683,69.38414294372596
238,59,897,0,29.92989999999949,1.6025018558672173,146.8892048044471,8.171188233635705,16.342376467271432,36.996628245894,38.7593490123853,50.089399252762135,74.82156501815714,58.48582946161555,57.69006681122056,48.07505567601714,65.70257609055676,7.211258351402648,16.826269486605952,2.4037527838008828,0.8012509279336655,24.51356470090714,22.662798582955016,24.0375278380086,88.13760207269806,56.08756495535329,68.23346770521819
239,59,898,0,29.96326666666616,4.761155079952687,142.13640635924213,6.543581764863675,16.184815106613446,36.639933544982334,38.385659434199546,49.83443402087021,77.22926859006722,61.05509769337826,57.927386806090965,49.19860249284437,65.06911942602,7.935258466587811,19.044620319810747,1.5870516933175622,1.5870516933175622,25.5904396227997,23.8586184734415,24.599301246422158,85.7007914391483,55.54680926611462,72.04935025548305
240,59,899,0,29.996633333332827,15.669415312307365,139.16699268500616,7.989865444404492,20.905607517808097,39.29869367401418,41.01078452276383,45.871527533835426,90.1910638061537,69.38915333005508,61.11071971799856,47.00824593692198,65.8115443116908,10.968590718615246,32.905772155845284,6.267766124922787,3.133883062461564,20.60989803170212,20.430417998422637,21.153710671614817,87.74872574892098,57.976836655537056,72.68987550175315
241,59,900,0,30.029999999999493,12.438938361507667,133.26582456609125,7.928298679213065,23.78489603763928,37.44616318496533,40.54597844225376,46.87866877197767,90.83672604828932,67.14794821907059,60.63982451234949,46.64601885565344,63.74955910272638,8.551770123536471,34.984514141739965,8.551770123536471,2.3323009427826946,20.45108625175853,20.451086251758586,20.99070848504408,83.9628339401761,55.9752226267841,70.5882352941176
242,59,901,0,30.06336666666616,7.660417888726101,133.03567894569755,7.812124059378034,20.151413236570335,35.37089605228869,36.89745860806747,44.85107620159771,80.38695220966126,60.24031057272203,55.921050587701075,41.36625659912136,59.75125953206418,6.128334310980904,29.10958797715955,4.596250733235706,0.0,20.151413236570225,18.638601159987903,19.151044721815424,79.66834604275232,52.090841643338024,66.32347161566936
243,59,902,0,30.096733333332825,3.1149398408716706,136.57865694555036,6.421612990679407,18.947439348187523,35.85565022591436,37.508842701104896,48.681836082280505,77.09082795639856,58.15017883866804,56.0689171356907,42.05168785176801,59.18385697656237,2.3362048806537814,25.698253687191595,2.3362048806537814,2.3362048806537814,18.947439348187523,18.947439348187523,19.468374005448197,76.31602610135678,49.8390374539473,62.995759673252486
244,59,903,0,30.13009999999949,1.5496776884521068,135.89533551186992,7.901836773196653,18.85264275471151,34.23349905846787,37.32118090428088,48.43827429327272,75.41057101884576,56.55792826413425,55.7883967842763,38.74194221130301,55.7883967842763,0.7748388442261103,27.119359547912154,3.874194221130324,6.973549598034538,17.669044171975415,17.325923272968367,17.821293417199342,72.83485135724959,46.49033065356355,58.087079613380936
245,59,904,0,30.16346666666616,1.5676754420071575,138.843306465624,6.463691434082033,17.527144274924254,37.75462420755658,37.91701043741684,50.55601391655594,76.04437917317668,58.53121534969292,57.22015363325863,40.759561492184275,56.436315912255054,1.5676754420071575,26.650482514120426,4.703026326021359,6.2707017680284025,13.394224847950857,12.927382868164148,12.541403536056691,70.54539489031879,43.89491237619836,57.21478462985627
246,59,905,0,30.196833333332822,3.1923475378704325,146.12619971120245,8.595658806541326,19.4182919870484,38.4409548056421,41.77586540020818,50.12087300544579,81.09128299850695,61.67512996379456,59.05842945060397,39.90434422338103,55.866081912733534,1.596173768935273,31.923475378704893,7.980868844676252,6.384695075740979,13.162386092320515,13.162386092320515,13.567477035949537,70.23164583315076,43.096691761251634,56.68102727988602
247,59,906,0,30.23019999999949,12.703460912517901,142.68302346746574,6.496655501279429,17.616530652282954,36.37717604595125,37.94716835699217,47.688439809757504,84.45652151663259,66.85003359766314,59.87547530064444,40.96743046886195,56.72413449534736,1.575670402648484,34.6647488582679,14.181033623836925,3.1513408052970817,12.703460912517887,14.52696332725875,14.18103362383681,67.75382731388709,40.96743046886195,54.4005768682361
248,59,907,0,30.263566666666154,10.924671842382963,142.87567024237046,6.434796561622297,18.986338439614432,36.030804972791884,37.58584835209222,45.92712992894749,82.10949919726666,63.1250899626923,56.96436032099655,37.456017745312806,53.06269180585991,1.1368683772161603e-13,35.895350339258016,14.046006654492203,4.68200221816403,12.869593123244567,14.805791019359125,14.046006654492317,67.10869846035212,40.577352557422216,49.0059505957084
249,59,908,0,30.29693333333282,25.19743700195749,147.19382906583465,6.480585833317357,20.673445235712375,36.45700134141156,41.137234478347295,44.70582020871826,96.91608511213471,76.24313929569423,62.87091742740938,39.29432339213088,56.58382568466857,3.929432339213122,47.93907453839972,22.790707567435902,2.357659403527805,16.02900173999204,17.572955646932932,17.289502292537577,67.5862362344651,40.86609632781608,52.46049713590955
250,59,909,0,30.33029999999949,18.768939031490948,147.3422516989484,6.426583921361039,18.962106443157538,39.246447489677166,40.7944430438127,42.799766077779815,86.86732502538109,67.90532411984765,57.670995283982734,34.29086206074646,49.87761754290398,0.0,43.642915350040994,20.262782126804723,4.676026644647209,14.370278511270472,14.370278511270472,14.80741770804957,67.02304857327721,37.408213157177954,52.27956721015752
251,59,910,0,30.363666666666152,12.606243507890099,147.23220855321853,6.497109190661031,18.97490918544317,37.85154504656733,42.80789629090853,40.17467602489637,77.99715236003256,59.065497597107765,52.0007544700469,31.515608769725304,45.69763271610179,0.7878902192430814,38.60662074291349,14.969914165619457,5.515231534701911,16.069870409958526,14.527977807556596,14.182023946376432,67.7585588549095,40.970291400642964,52.853282671045754
252,59,911,0,30.397033333332818,10.98782972995184,148.38344878756985,6.471997510413459,20.64604798679243,36.13697669622721,37.9657351616957,39.74137559983731,77.69568912572144,57.051266467618625,51.01492374620534,29.824109267012318,45.52100888122936,1.569689961421659,39.2422490355425,14.127209652795273,6.27875984568675,12.94399502082678,13.411436909374345,12.557519691373614,67.49666834113316,40.81193899696427,50.62098021559426
253,59,912,0,30.430399999999484,11.17161546955886,149.3490817043353,8.055966481052337,22.343230939117817,37.95062067983077,41.350071259137195,40.27983240526129,81.33058825917496,58.98782232399575,52.92681787073536,30.018195210267777,45.81724532093506,1.579905011066785,42.657435298801715,15.799050110667395,6.319620044267026,14.306648356882475,13.028230478141518,13.429192594067217,66.35601046480264,39.4976252766682,49.383089692544516
254,59,913,0,30.46376666666615,15.418866889834021,137.92777574671763,6.357361681412423,21.80557067202872,33.95653195494398,37.13354879034893,39.31055157437662,82.64570185836179,60.84105910083376,52.42414742543565,32.37962046865141,46.25660066950195,0.770943344491684,42.40188394704353,16.189810234325705,3.8547167224585337,13.962377808112194,14.627621493249553,13.876980200850596,64.75924093730276,38.547167224584996,46.89465288856899
255,59,914,0,30.49713333333281,15.495769446145097,139.4619250153057,4.875873831083203,21.80557067202872,37.03738924492698,38.6703214272493,41.1426684587291,83.161884056827,61.38568302330556,52.42414742543565,33.92150715763478,47.79848735848543,0.770943344491684,40.85999725806016,16.189810234325705,2.3128300334751657,11.225104532618062,11.74265917824929,10.793206822883803,63.21735424831934,37.00528053560157,46.894652888569
256,59,915,0,30.53049999999948,17.156506175918366,136.5857949499775,4.932148746058787,22.05723974265583,34.34844138796719,37.56212577435539,41.29478171455579,85.14208826114404,63.085248109456366,53.809042097198244,32.753329972207666,48.350153768496966,0.0,43.67110662961022,17.156506175918253,3.1193647592579055,12.861470387249556,13.325932093055426,12.477459037031508,65.50665994441533,37.43237711109447,47.435887689866206
257,59,916,0,30.563866666666147,11.056644552171141,138.48640405317582,7.9730597734865745,22.11328910434236,34.54206181208393,39.216033844761064,41.399715341024326,82.51842796336605,60.4182650211528,53.94577554606565,34.4002046960419,50.03666137606092,1.5636456680018682,39.09114170004773,12.509165344015287,4.690937004005718,14.159413743337423,14.83404529302447,13.290988178016164,67.23676372408192,35.96385036404382,53.73574752757411
258,59,917,0,30.597233333332813,9.366968538266185,131.98472184705088,7.852082852474597,20.254487143999576,34.01794780790602,35.71818129775575,42.03164001265219,79.49627994452173,59.241910704118794,53.897204963423974,35.418163261678615,52.35728482161187,2.3098802127182125,34.648203190772506,10.009480921778731,3.8498003545303163,17.216830585065036,17.216830585065015,16.939121559933255,61.59680567248461,35.41816326167867,53.166286492899914
259,59,918,0,30.63059999999948,4.938309238896882,138.6952964307851,7.962784384958313,17.459559752100954,37.609042690030506,37.77080275993657,44.71829208943403,75.03955477139564,57.59008722775633,53.876252198825796,34.355870967367196,53.09543694956744,0.0,29.670979471817077,6.246521994066825,6.246521994066825,12.877534987140576,14.81492771669086,13.273859237391889,65.58848093770092,37.47913196440055,47.49513741274129
260,59,919,0,30.663966666666145,2.1999950500167498,139.7040163078543,6.414032652772503,18.925073006127437,37.464565709860125,39.169798260535714,47.59316975161319,74.75128664513505,55.8512843438104,53.669283936305874,34.22389120576031,52.89146822708403,3.111262836887363,29.55699695042938,6.222525673774612,7.778157092218294,14.086841626994259,14.086841626994259,14.000682765992849,63.78088815618969,37.335154042647616,45.77893150022658
261,59,920,0,30.69733333333281,5.070445669612508,144.21830745224375,6.611052320957445,19.50639396376682,38.61536376537873,40.37297589837024,47.48385063998847,78.61643846520553,59.13104956987403,55.31784188499,35.27514554984862,56.11954973839556,0.80170785340556,31.266606282820362,5.611954973839488,5.611954973839488,16.351695954863985,16.351695954863985,16.034157068113018,65.7400439792633,36.87856125665991,40.59524327297878
262,59,921,0,30.73069999999948,6.340941717957874,136.38878615534404,6.340941717957737,20.22797239643067,35.50527700381234,37.196941678730205,45.54378256815508,78.41803846482296,58.217345050544424,53.82664920093498,35.37179804632865,52.28874493805108,0.7689521314418926,33.064941652002744,8.45847344586116,5.382664920093475,15.683607692964587,15.683607692964587,15.379042628838533,63.05407477823803,35.37179804632865,40.71817548441016
263,59,922,0,30.764066666666142,9.50475155654721,138.57639871819097,7.96758272532944,20.55241964596459,34.518333338779684,36.243576339556746,44.44410532790245,82.4617423976435,61.91412413154985,56.252575097473596,37.501716731649026,54.69000356698825,2.343857295728071,35.157859435920955,10.1567149481549,3.906428826213414,15.703649530482556,15.93516545065897,16.40700107009644,64.06543274990042,35.93914520116368,50.60898781332911
264,59,923,0,30.79743333333281,9.529870923843271,135.83398175369888,8.436943783353454,22.15649984860322,32.9380049949287,36.33936166343176,44.561563190870665,83.97576510397899,61.8202081033206,56.401240645101666,39.16752822576507,56.401240645101666,3.916752822576541,35.25077540318853,8.616856209668299,2.350051693545879,19.059741847686507,17.516251124690456,18.017062983851872,64.23474629025463,37.600827096734406,56.94263566958681
265,59,924,0,30.83079999999948,6.1283343109810176,132.83261809695372,6.316942418317766,21.666933743364105,32.210212657244526,35.37089605228869,43.576938765361774,77.57851602538045,55.915803479963856,52.09084164333808,36.770005865885764,53.62292522108328,2.29812536661791,31.407713343777345,6.894376099853503,2.2981253666177963,16.9224162247,16.92241622469999,17.61896114407017,59.75125953206424,33.7058387103952,57.427593762243674
266,59,925,0,30.86416666666614,4.7213003097572255,134.88567604257045,8.02466746966114,22.256423100316187,37.80317506771809,39.46986978947118,46.312616409827804,81.24356602131864,58.99001859444138,55.86872033212637,39.34416924797631,56.65560371708591,2.3606501548786127,32.262218783340586,5.508183694716649,2.3606501548786127,17.382822130608638,16.04933493932228,17.3114344691096,64.52443756668123,36.196635708138274,54.083566082922275
267,59,926,0,30.89753333333281,6.222525673774612,133.53988075459372,7.932194958602132,21.99995050016703,37.367548976327996,37.464565709860125,44.246708239479815,80.30735320181206,58.31024523716954,54.44709964552783,37.33515404264767,56.002731063971396,3.1112628368872493,32.66825978731663,6.222525673774612,3.111262836887363,17.392487997872102,17.392487997872124,17.111945602880155,65.33651957463337,35.77952262420399,47.312682515318556
268,59,927,0,30.930899999999472,4.979733266486313,135.4084616038299,8.029578622437754,23.82998791402368,36.35546346156465,38.08763564745104,46.3409600559087,83.10337862199108,59.29856671858647,55.90291238083444,36.218788303075826,56.690277343944786,0.787364963110349,35.43142333996536,7.086284667993027,5.511554741772329,17.606015806163434,17.606015806163377,17.322029188427507,62.98919704882752,33.06932845063443,54.116665604708594
269,59,928,0,30.964266666666138,6.414032652772503,130.45989196291197,7.932194958602221,21.99995050016714,32.705277657308734,36.082601641322476,47.31268251531856,83.6287541940069,61.63913450703969,57.55836248241508,40.44641687953492,59.11399390085876,3.111262836887363,32.66825978731663,7.77815709221818,3.1112628368872493,18.92507300612738,18.925073006127455,18.667577021323837,63.78088815618969,35.77952262420399,51.921747549505604
270,59,929,0,30.997633333332804,6.206774317850886,130.3607319086715,7.912115840797054,22.216871015782036,34.27803154643461,37.53046075202543,47.472695044782434,83.69082012899531,61.4831046250673,57.41266244012081,38.79233948656804,58.96435601958353,2.3275403691940255,33.36141195844857,5.430927528119582,3.8792339486568608,15.594327475692216,15.824231681594108,16.292782584358577,65.17113033743436,34.13725874817993,53.3250058708729
271,59,930,0,31.03099999999947,6.484742447058446,136.79579178133807,8.01964132879098,22.24248309368188,34.7438692747575,38.267414863709504,47.83426857963691,84.55069711596605,62.31865872478208,58.19289931608728,39.319526564923876,59.76568037868424,2.3591715938954394,33.81479284583452,7.0775147816862045,3.9319526564922853,11.12124154684094,11.977943717937984,11.009467438178717,66.05680462907213,34.601183377133054,52.75268054536719
272,59,931,0,31.06436666666613,2.218357157827642,133.33230809845844,7.9984004798400585,20.631914198463438,34.65184654593687,36.38376260140339,49.25552233490913,79.69121967339663,59.068315636191116,57.25446171286751,39.215384734840654,59.60738479695783,0.7843076946967358,29.01938470378218,3.9215384734841336,5.490153862877719,12.935133872878616,16.376825459863607,14.901846199239515,64.31323096513876,32.9409231772662,44.91830892487911
273,59,932,0,31.0977333333328,3.113193996590212,133.84924066448448,6.418013840490019,18.936819792008304,34.386351608878826,36.10499809894063,50.67912655134646,79.08064282222603,60.14590894771024,57.59408893691864,38.91492495737748,59.15068593521369,0.7782984991475814,28.797044468459376,5.448089494032843,5.448089494032843,12.549686210482934,13.299570583383339,12.452775986360734,63.82047693009906,32.688536964197056,48.87813719946667
274,59,933,0,31.131099999999467,4.590731488048959,131.36053699741112,6.843458449150655,21.640915772039772,32.28052894365054,33.97692695625183,47.83083017453883,80.50886049785395,58.86965553108555,55.85389977126141,38.256095733740665,56.619021685936275,0.0,32.13512041634215,6.120975317398461,6.120975317398461,12.33722016996009,12.61871388271633,12.241950634797035,62.739997003334736,30.604876586992532,52.83220838936261
275,59,934,0,31.164466666666133,6.191095627157324,132.86536932669028,8.33501757224298,23.422069320134423,32.5400829348936,35.73313542728512,45.54770160635799,83.2063444233344,59.804990354828185,55.71986064441592,37.146573762943945,55.71986064441592,1.5477739067893026,35.59879985615464,7.738869533946627,4.6433217203680215,12.763270604534645,12.763270604534645,12.382191254314648,61.910956271573184,32.50325204257592,51.659490223222555
