,video_id,frame_seq,time_seconds,m1,m3,m4,m5,m6,m7,m8,m9,m10,m11,m12,m13,m14,m15,m16,m17,e1,e2,e3,b1,b2,b3,label_measures
0,109,0,0.0,18.61048987432082,156.7264037807507,11.166293924592424,26.3192071826716,48.956555300249526,52.63841436534322,37.220979748641525,93.12686157811498,66.99776354755477,57.69251861039436,52.10937164809821,40.94307772350567,9.30524493716041,46.526224685801935,16.749440886888692,5.583146962296269,11.770307274870856,11.770307274870875,11.166293924592424,44.66517569836981,66.99776354755477,63.71205464435222,"{'neutral': ['m1', 'm3', 'm12', 'e1', 'e2']}"
1,109,1,0.0333666666666666,14.763640862887089,155.41318060248588,11.072730647165258,26.09867642287576,48.12358151144074,52.19735284575147,37.09318859672838,88.8888888888889,62.85393610547087,55.36365323582663,51.67274302010492,40.600012372939545,9.2272755393044,42.4454674808004,16.609095970747944,1.8454551078608572,11.072730647165317,11.671682920864194,11.072730647165372,44.29092258866132,66.43638388299195,63.17820619970297,"{'neutral': ['m1', 'm3', 'm12', 'e1', 'e2']}"
2,109,2,0.0667333333333332,14.751713689717803,155.28762621281604,11.06378526728838,26.077591960304623,48.08470368343443,52.15518392060925,37.0632219450125,88.81707779700088,62.80315799543252,55.31892633644179,51.630997914012255,40.56721264672399,9.21982105607367,42.411176857938585,16.595677900932515,1.8439642112147112,11.063785267288324,11.66225366254863,11.063785267288324,44.25514106915335,66.38271160373,63.12716612003204,"{'neutral': ['m1', 'm3', 'm12', 'e1', 'e2']}"
3,109,3,0.1000999999999998,19.172599811889835,154.57444138843564,11.89034164526431,26.587612194507606,49.0251345281052,53.175224389015405,33.840505580930085,90.31964874960391,63.92095498620131,54.52081454705399,48.88073028356576,37.60056175658895,9.400140439147208,47.00070219573627,16.920252790465156,1.8800280878293731,11.280168526976697,11.890341645264238,13.160196614806123,41.36061793224792,63.92095498620131,64.36179438241605,"{'neutral': ['m1', 'm3', 'm12', 'e1', 'e2']}"
4,109,4,0.1334666666666664,11.080752827296806,141.13165701282915,7.387168551531204,26.117584882778505,44.47664439137132,48.58151614325772,36.93584275765579,81.34275584868425,55.4037641364838,49.863387722835455,48.0165955849526,33.2422584818903,3.693584275765602,40.62942703342151,14.774337103062408,0.0,11.680139041202802,11.680139041202748,11.080752827296749,48.016595584952654,66.4845169637806,60.12719578176287,"{'neutral': ['m1', 'm3', 'm12', 'e1', 'e2']}"
5,109,5,0.166833333333333,11.759620640757074,149.49063616998382,11.759620640757074,22.62008194445204,44.77930130552,44.77930130552,37.18718564432106,81.89628113842672,59.499497030913744,53.92141918426557,52.06205990204956,37.18718564432106,7.43743712886419,37.187185644321175,14.874874257728491,1.1368683772161605e-13,8.315307499260621,11.759620640757074,11.15615569329634,37.18718564432112,59.4994970309138,59.96253511966886,"{'neutral': ['m1', 'm3', 'm12', 'e1', 'e2']}"
6,109,6,0.2001999999999996,14.888391899456678,149.62648678804274,11.166293924592424,26.31920718267163,44.81999479585805,48.95655530024955,33.498881773777384,85.68913039165797,59.553567597826486,52.10937164809809,52.10937164809821,37.220979748641525,11.166293924592424,40.94307772350578,14.888391899456678,3.722097974864141,11.16629392459248,11.770307274870875,13.027342912024494,40.94307772350572,63.27566557269063,60.01702647554976,"{'neutral': ['m1', 'm3', 'm12', 'e1', 'e2']}"
7,109,7,0.2335666666666662,14.888391899456678,149.62648678804274,11.166293924592424,26.31920718267163,44.81999479585805,48.95655530024955,33.498881773777384,85.68913039165797,59.553567597826486,52.10937164809809,52.10937164809821,37.220979748641525,11.166293924592424,40.94307772350578,14.888391899456678,3.722097974864141,11.16629392459248,11.770307274870875,13.027342912024494,40.94307772350572,63.27566557269063,60.01702647554976,"{'neutral': ['m1', 'm3', 'm12', 'e1', 'e2']}"
8,109,8,0.2669333333333328,11.183738240959542,149.535311948962,11.183738240959428,26.09538922890556,41.17614213104013,44.89001392432328,41.00704021685158,89.46990592767611,63.37451669877055,57.78264757829084,52.19077845781101,41.00704021685158,5.591869120479714,42.87099659034482,16.775607361439256,1.863956373493238,14.911650987946018,15.370578018911836,14.911650987946018,48.46286571082453,67.10242944575702,63.81158751041479,"{'neutral': ['m1', 'm3', 'm12', 'e1', 'e2']}"
9,109,9,0.3002999999999994,15.083603960100843,158.55730661493064,11.312702970075634,26.664296612298813,45.40766091865008,49.166533607906814,37.709009900252,90.58015013005138,64.10531683042848,56.563514850378056,49.02171287032763,41.47991089027721,7.541801980050423,45.25081188030242,18.854504950126056,0.0,18.854504950126,15.5478230856201,15.083603960100788,52.79261386035285,60.33441584040327,64.21612990679347,"{'neutral': ['m1', 'm3', 'm12', 'e1', 'e2']}"
10,109,10,0.333666666666666,8.41965335948226,154.7934436289807,11.907187971459969,22.903933372554715,49.094593710413776,49.09459371041377,37.84163535598845,79.07305248690477,56.60612540848933,52.71536832460311,48.94998487284579,37.65383451757373,5.648075177636088,35.77114279169496,13.17884208115072,1.882691725878772,11.907187971460022,11.907187971460022,13.178842081150776,41.4192179693311,60.24613522811797,60.71498381849204,"{'neutral': ['m1', 'm3', 'm12', 'e1', 'e2']}"
11,109,11,0.3670333333333326,14.921374499089438,157.07360341538563,11.191030874317107,22.6907944259022,48.63773026169675,48.63773026169675,37.48948945300352,85.79790336976441,63.525462863918975,55.955154371585536,48.49446712204076,37.30343624772365,5.59551543715861,42.89895168488215,16.786546311475604,1.8651718123861656,11.19103087431705,13.449945214216935,13.056202686703273,41.033779872495984,63.41584162113014,60.72559462947351,"{'neutral': ['m1', 'm3', 'm12', 'e1', 'e2']}"
12,109,12,0.4003999999999992,15.380600784785884,153.1259484761235,8.341301924424004,26.37751273232544,44.919285569091365,48.63773026169675,37.48948945300352,85.79790336976441,59.80195761538345,52.224810746813205,44.76412349726843,37.30343624772365,3.730343624772331,44.76412349726843,18.651718123861883,0.0,11.796382309369132,11.796382309369186,13.056202686703273,41.033779872495984,59.68549799635781,60.14998358527411,"{'neutral': ['m1', 'm3', 'm12', 'e1', 'e2']}"
13,109,13,0.4337666666666658,15.051533894137492,158.22018935200433,11.288650420603176,18.81441736767192,45.31111723553863,49.06199798232522,37.62883473534396,82.78343641775655,63.96901905008463,56.44325210301588,45.154601682412704,37.62883473534396,3.762883473534316,41.391718208878274,18.81441736767192,0.0,7.525766947068746,8.414063238233465,9.40720868383596,48.91748515594708,63.96901905008463,67.83634653712147,"{'neutral': ['m1', 'm3', 'm12', 'e1', 'e2']}"
14,109,14,0.4671333333333324,15.070216539374885,154.88267956318674,7.535108269687385,22.60532480906238,45.36735944544075,45.36735944544076,41.4430954832809,86.65374510140555,64.04842029234317,56.51331202265567,48.97820375296829,37.67554134843715,1.8837770674217609,43.32687255070289,20.721547741640507,1.883777067421988,11.302662404531134,11.914052274091286,13.186439471953008,48.97820375296834,64.04842029234317,75.72690090203835,"{'neutral': ['m1', 'm3', 'm12', 'e1', 'e2']}"
15,109,15,0.5004999999999991,22.56033705395339,173.33002536702952,7.520112351317834,22.56033705395339,45.277072060768674,49.0251345281052,37.78809689379938,90.31964874960391,67.78537669981596,56.40084263488348,37.60056175658895,26.32039322961225,5.640084263488348,58.28087072271296,35.72053366875957,9.400140439147322,8.407741207991153,11.89034164526431,13.160196614806123,48.8807302835657,67.68101116186017,75.57619378759874,"{'neutral': ['m1', 'm3', 'm12', 'e1', 'e2']}"
16,109,16,0.5338666666666656,19.19976369667025,166.06152139464567,8.41965335948226,22.59230071054424,49.09459371041377,49.094593710413776,37.84163535598845,86.68563690454833,64.12216961584194,54.59806005048199,37.65383451757373,26.357684162301663,5.648075177636088,54.59806005048199,28.240375888180324,9.413458629393515,7.5307669035147455,11.907187971460091,11.296150355272175,48.949984872845846,64.01151867987534,71.64130609525569,"{'neutral': ['m1', 'm3', 'm12', 'e1', 'e2']}"
17,109,17,0.5672333333333321,18.82691725878692,166.06152139464567,7.5307669035147455,22.59230071054424,45.3412209597558,49.094593710413776,37.84163535598845,86.68563690454833,64.12216961584194,54.59806005048199,37.65383451757373,26.357684162301663,5.648075177636088,54.59806005048199,32.005759339937754,9.413458629393515,11.296150355272118,11.907187971460091,11.296150355272175,48.949984872845846,64.01151867987534,71.64130609525569,"{'neutral': ['m1', 'm3', 'm12', 'e1', 'e2']}"
18,109,18,0.6005999999999987,15.359076025778563,169.34208459343157,7.679538012889338,19.198845032223176,46.23694165181859,50.06446268447306,38.39769006444647,80.63514913533754,61.43630410311437,53.75676609022503,38.39769006444647,26.878383045112518,5.759653509666919,47.997112580558,28.79826754833482,9.599422516111533,11.51930701933395,12.14241574928684,11.51930701933395,46.0772280773358,65.27607310955904,57.72438549837279,"{'neutral': ['m1', 'm3', 'm12', 'e1', 'e2']}"
19,109,19,0.6339666666666652,11.899282346174612,158.2201893520041,11.899282346174612,22.888726598693417,45.31111723553886,49.06199798232546,41.56240643079493,86.54631989129098,64.07959652077632,58.324693839783095,45.154601682412704,37.62883473534396,0.0,45.154601682412704,22.577300841206352,3.76288347353443,7.525766947068746,11.89928234617454,13.17009215737039,45.15460168241265,63.96901905008463,56.56854249492396,"{'neutral': ['m1', 'm3', 'm12', 'e1', 'e2']}"
20,109,20,0.6673333333333318,11.423909559550792,156.31240823633416,11.423909559550792,22.8478191191017,45.8540291403001,49.64985245162753,38.269623393473054,83.86183688267408,61.04640072525205,55.21556287116209,45.69563823820317,38.0796985318359,3.807969853183636,41.88766838501965,15.231879412734427,3.807969853183636,11.423909559550792,12.041857997317203,11.423909559550792,49.50360809138675,64.73548750412118,64.84738989966337,"{'neutral': ['m1', 'm3', 'm12', 'e1', 'e2']}"
21,109,21,0.7006999999999983,15.220847812943816,156.4307777750085,11.415635859707775,22.83127171941578,45.66254343883156,49.61389383568337,41.85733148559552,91.3250868776629,68.49381515824712,60.88339125177515,49.467755392067374,38.05211953235949,1.902605976617906,47.56514941544947,24.733877696033687,5.707817929853945,12.033136751923797,12.033136751923742,13.318241836325797,45.66254343883145,64.68860320501119,57.20487907552352,"{'neutral': ['m1', 'm3', 'm12', 'e1', 'e2']}"
22,109,22,0.7340666666666649,11.91986981189293,154.95830755460722,11.308181405479218,22.928327379688135,45.38951196940636,49.14688227804563,41.63431535712093,86.77796209649757,64.5216287964084,58.42560392830967,49.00211942374358,37.69393801826425,1.8846969009132408,43.34802872100386,20.731665910045308,1.8846969009131271,11.919869811892804,11.919869811892804,13.192878306392458,45.2327256219171,64.07969463104928,57.041278790132885,"{'neutral': ['m1', 'm3', 'm12', 'e1', 'e2']}"
23,109,23,0.7674333333333314,3.767554134843749,154.6533934573631,11.302662404531134,22.605324809062267,45.210649618124535,45.36735944544053,41.61399557114549,79.20828970674894,56.638757930669954,54.62953495523391,45.21064961812465,37.67554134843715,0.0,37.67554134843715,15.070216539374885,7.535108269687498,15.070216539374885,11.914052274091286,13.186439471952951,52.74575788781209,64.04842029234322,60.39848747160249,"{'neutral': ['m1', 'm3', 'm12', 'e1', 'e2']}"
24,109,24,0.800799999999998,11.92463595946355,162.32403856018936,11.312702970075634,26.664296612298813,45.250811880302535,49.166533607906814,41.6509627948972,90.58015013005138,64.54742770270485,58.44896534539066,49.02171287032763,41.47991089027721,3.7709009900252113,45.25081188030242,18.854504950126056,3.7709009900252113,11.312702970075634,15.5478230856201,13.198153465088184,52.79261386035285,67.87621782045363,72.04296225828833,"{'neutral': ['m1', 'm3', 'm12', 'e1', 'e2']}"
25,109,25,0.8341666666666645,19.41075644608563,164.0886874966374,11.420287602944768,26.917876023809647,45.83949109595619,53.430458313164,38.25748998900776,95.24516817879775,68.94340175530712,59.00481928188117,49.48791294609384,38.06762534314908,5.710143801472327,51.3912942132514,24.74395647304698,1.903381267157556,11.420287602944768,12.03804011983003,13.32366887010221,53.29467548040884,64.71496308335355,64.82683000018201,"{'neutral': ['m1', 'm3', 'm12', 'e1', 'e2']}"
26,109,26,0.867533333333331,11.420287602944768,160.29137493949176,11.420287602944768,22.840575205889422,45.83949109595619,46.31126501094779,38.25748998900776,83.83524844265618,61.0270459314112,55.19805674756629,49.48791294609384,38.06762534314908,5.710143801472327,39.97100661030663,17.13043140441721,1.903381267157556,12.038040119829978,12.03804011983003,11.420287602944711,49.4879129460939,64.71496308335355,64.82683000018179,"{'neutral': ['m1', 'm3', 'm12', 'e1', 'e2']}"
27,109,27,0.9008999999999976,11.420287602944768,160.29137493949176,11.420287602944768,22.840575205889422,45.83949109595619,46.31126501094779,38.25748998900776,83.83524844265618,61.0270459314112,55.19805674756629,49.48791294609384,38.06762534314908,5.710143801472327,39.97100661030663,17.13043140441721,1.903381267157556,12.038040119829978,12.03804011983003,11.420287602944711,49.4879129460939,64.71496308335355,64.82683000018179,"{'neutral': ['m1', 'm3', 'm12', 'e1', 'e2']}"
28,109,28,0.934266666666664,19.033812671574537,164.08868749663762,11.420287602944768,26.917876023809647,45.83949109595597,49.634110939482085,42.04706649821095,98.9758258921878,72.42859683401483,62.81158181619617,53.29467548040884,41.87438787746407,5.710143801472327,51.3912942132514,24.74395647304698,1.9033812671574424,11.420287602944711,15.695684020624354,13.323668870102154,49.4879129460939,64.71496308335355,57.60677032537053,"{'neutral': ['m1', 'm3', 'm12', 'e1', 'e2']}"
29,109,29,0.9676333333333308,18.864566947613525,155.42388371770025,11.318740168568183,26.41039372665909,45.43189341752952,45.89947239169837,37.917310293965045,94.39826284667394,68.01716341904405,58.48015753760217,52.82078745331819,37.72913389522728,7.545826779045456,49.04787406379535,22.637480337136253,0.0,11.93099972543788,11.93099972543788,11.318740168568183,45.27496067427268,64.13952762188632,68.01716341904394,"{'neutral': ['m1', 'm3', 'm12', 'e1', 'e2']}"
