,video_id,frame_seq,time_seconds,m1,m3,m4,m5,m6,m7,m8,m9,m10,m11,m12,m13,m14,m15,m16,m17,e1,e2,e3,b1,b2,b3,label_measures
0,43,1,0.0333666666666666,3.715409135194772,42.1170756093382,3.27264505193403,6.112832194733859,10.799177706982691,11.596231365127712,9.58487161622246,22.557787346998023,16.50803538560723,13.903927924470338,19.026427686117277,5.85428544188224,3.1710712810195503,8.53749960274493,4.634642641490103,2.1953570407058294,5.562426993624806,5.254381988757362,4.878571201568533,8.2935710426665,24.39285600784264,13.590126786667057,{}
1,43,4,0.1334666666666664,5.0231160538635695,43.78219928614373,3.304173162713182,5.9515895210576,11.841874708145914,12.460817331035186,9.082303303465096,23.21297597001393,17.323729440492937,14.284154549097195,17.239496869600032,4.433013480754312,1.9702282136685767,11.328812228594302,6.8957987478400185,1.4776711602514467,5.765232499155969,5.506955271188641,4.679292007462848,7.388355801257148,23.150181510605748,17.759397121869657,{}
2,43,5,0.166833333333333,2.080000739555937,44.49505724208125,3.733715593823484,6.3733913871899,11.93863249286882,12.56637228058261,8.687444855261388,20.66669121911879,14.29343791758671,12.5016523364109,18.139652409694264,3.92208700750146,2.696434817657263,8.08930445297176,3.6769565695326207,1.7159130657818764,5.589834026317245,5.280271230829075,4.657478321407979,7.84417401500292,24.022782920946423,15.205992531535898,{}
3,43,6,0.2001999999999996,3.5730942066608566,46.697989090768445,3.7736080677848727,5.987137370763349,12.535243710765602,13.341719271354776,8.306077039546981,21.53568915065676,15.551092700000437,12.88297437417907,18.33346353248561,2.9729940863490185,2.7252445791532693,9.166731766242805,5.202739651110761,1.7342465503702726,5.336687708541899,5.336687708541913,4.95499014391504,7.927984230264045,24.27945170518366,17.70672504888436,{}
4,43,7,0.2335666666666662,3.2783850660406046,45.59719148806768,3.2783850660406304,5.905139120801224,11.282810924174257,12.526691748505533,9.272673246152122,21.691361835859997,15.790793535371336,13.195245355356548,17.59366047380871,3.90970232751306,1.9548511637565296,9.28554302784346,5.3758407003304285,0.9774255818782648,5.94544770560403,5.905139120801237,5.1314843048608765,8.308117445965223,24.92435233789567,15.157976933960231,"{'happy': ['m3', 'm12', 'e1', 'e2']}"
5,43,8,0.2669333333333328,2.458643099192841,45.40974696391553,3.2986158613235705,6.392472057901412,12.293215495964205,13.065554221358168,9.186248712796305,21.18431726572386,14.792779224653849,12.784944115802771,17.702230314188483,3.9338289587085455,1.9669144793543007,8.851115157094227,4.425557578547114,1.475185859515733,5.133797510318205,5.296079316430958,4.917286198385682,7.375929297578537,23.60297375225132,16.63903860581358,"{'happy': ['m3', 'm12', 'e1', 'e2']}"
6,43,9,0.3002999999999994,3.1473820351414568,46.01073358904858,3.297340448555529,6.594680897111058,12.902300250735538,13.524009681136304,9.326287164217264,22.211884274852835,15.621337667873297,13.025770052009364,17.695385731031593,3.4407694477006032,1.7203847238503158,9.58500060430876,5.161154171550862,1.2288462313216542,5.495567414259244,5.753310549615399,5.161154171550876,7.864615880458487,24.085386133904123,15.07829878828312,"{'happy': ['m3', 'm12', 'e1', 'e2']}"
7,43,10,0.333666666666666,3.52298024930332,46.66094934841169,3.0898580795117385,6.3511429656549625,12.359432318046984,12.981081815257124,8.981872518599765,21.87588970636712,15.52634469300424,12.702285931309971,16.61068160248226,2.442747294482672,1.221373647241336,10.503813366275551,6.106868236206736,0.7328241883448072,5.570320869793138,5.462149002316977,4.885494588965372,8.305340801241144,24.427472944826874,15.152911006936971,"{'happy': ['m3', 'm12', 'e1', 'e2']}"
8,43,11,0.3670333333333326,5.903165572221621,49.32414306019008,3.720681829948637,6.3511429656549625,13.62693973007661,14.368670652732874,9.179010978705652,25.149622671890395,18.801221497024496,14.412209037447866,15.145033225792671,1.4656483766896145,2.8421709430404014e-14,14.656483766896088,9.282439719034189,0.9770989177930574,4.634787119267617,5.462149002316977,4.641219859517122,8.30534080124113,23.93892348593032,16.994219437314538,"{'happy': ['m3', 'm12', 'e1', 'e2']}"
9,43,12,0.4003999999999992,7.587174796710681,50.55814564302121,4.09988349195261,7.308934632033671,13.512841383943206,13.97359048257442,8.650710249141035,27.48191595783381,20.17675012759464,14.635579551692729,13.915796950789796,0.4798550672686303,0.4798550672686019,18.23449255620733,11.996376681715333,1.4395652018058342,5.471189553089675,4.726024322999879,4.318695605417531,7.677681076297816,23.03304322889346,17.466988103218004,"{'happy': ['m3', 'm12', 'e1', 'e2']}"
10,43,13,0.4337666666666658,9.601682879715447,52.16422440494513,4.030028915264889,6.997302292000834,14.105101203427058,15.055209803722803,8.81039513353075,29.13482525202076,22.143597590104648,15.883165705521748,15.150096519113047,1.4661383728173971,0.9774255818782648,18.571086055686976,12.217819773478285,0.4887127909391324,5.720236560472789,5.263597845123783,4.8871279093913245,8.308117445965209,23.94692675601739,16.85173546910569,"{'happy': ['m3', 'm12', 'e1', 'e2']}"
11,43,14,0.4671333333333324,8.604701479275983,48.765079357065446,4.148894715434278,6.604757066820615,12.95719458481959,14.015012347664555,8.297789430868603,27.640346885800216,21.037935551052296,15.781720405437769,15.053333309802184,2.4279569854519707,0.9711827941807768,17.481290295254126,11.654193530169408,0.4855913970903884,5.069723023713777,5.867423175425221,5.098709669449121,8.740645147627063,24.76516125161001,15.355748269889002,"{'happy': ['m3', 'm12', 'e1', 'e2']}"
12,43,15,0.5004999999999991,11.283818019959384,53.33911518981902,4.129707119111049,7.1854497925098695,13.9501964345512,14.78753367633576,8.455095855219032,30.72573266177761,23.54047190266676,16.67542522876505,14.500369764143528,1.4500369764143386,0.7250184882071835,21.025536158008123,14.258696934741153,0.7250184882071835,4.585419536933229,4.976348133305758,4.591783758645448,8.216876199681337,24.167282940239232,16.204699352201047,"{'happy': ['m3', 'm12', 'e1', 'e2']}"
13,43,16,0.5338666666666656,11.76379157566143,50.97542637201073,3.654467316016836,6.683607693691572,13.740957978916905,14.782340153663553,8.394035441223124,30.215631903669443,23.532476066661477,16.315072287132864,15.355362152595632,2.8791304036116685,1.919420269074436,19.19420269074459,13.435941883521224,0.959710134537204,5.00983398213822,5.16819724156021,4.798550672686133,8.157536143566446,23.99275336343069,16.23726313123467,"{'happy': ['m3', 'm12', 'e1', 'e2']}"
14,43,17,0.5672333333333321,11.125624500311387,49.99050337680177,3.599842603426419,6.144872384460939,13.184367929501647,14.101474259443322,8.455601455209774,29.157269176364903,23.02114169894216,16.30754594337708,15.125839715596156,3.78145992889904,1.89072996444952,17.96193466227041,12.76242726003423,0.9453649822247598,4.93495008860862,5.090946232174113,4.726824911123799,8.980967331135219,24.57948953784374,15.103666471744315,"{'happy': ['m3', 'm12', 'e1', 'e2']}"
15,43,18,0.6005999999999987,13.256586799732302,54.2130186635238,4.124843511420414,7.353431299088311,14.872334783691183,15.814151965902344,8.305999533376783,32.547151886295154,25.201668821903937,17.138562788631134,15.448845330597097,2.4138820829057863,2.1724938746152134,21.483550537861618,15.20745712230655,0.7241646248717188,4.58001923103221,4.754796276968524,4.344987749230441,8.207199081879722,23.65604441247683,16.18561487523428,"{'happy': ['m3', 'm12', 'e1', 'e2']}"
16,43,19,0.6339666666666652,12.536229364668982,53.44546392304869,3.420305253278452,6.303230445511416,13.681221013113865,15.496776884521209,8.083003896575448,29.92467459190876,23.64528361319054,15.97371198787775,14.564266812476802,0.9396301169339836,1.1745376461674937,19.967139984847197,14.799174341710255,0.7047225877005019,4.014101619148563,4.627141703983961,3.993427996969445,7.986855993938889,23.49075292334966,15.012043136587168,"{'happy': ['m3', 'm12', 'e1', 'e2']}"
17,43,20,0.6673333333333318,12.742891888224143,53.26005275863957,3.902594710666372,7.482883771855096,14.693914626067636,15.50239706106619,8.142257835454608,31.905528215239176,24.431357680844663,16.564069329761736,15.144291958639316,1.8930364948299143,1.8930364948299143,21.29666056683652,14.671032834931822,0.9465182474149572,4.940970309644479,4.232958286327618,3.7860729896598286,8.045405103027136,23.66295618537393,15.122091665308444,"{'happy': ['m3', 'm12', 'e1', 'e2']}"
18,43,21,0.7006999999999983,12.720516920049423,53.72638241924808,4.10494347292771,7.596538711612462,14.453400618443972,15.847479500786896,8.265927780357126,32.222221337817594,24.6296608375663,16.815655263635477,15.854760677142025,1.9217891729869048,2.162012819610254,21.37990454947942,14.653642444025223,1.2011182331168015,4.731857072444877,4.104943472927723,3.843578345973839,7.206709398700923,23.06147007584296,15.351775897968873,"{'happy': ['m3', 'm12', 'e1', 'e2']}"
19,43,22,0.7340666666666649,13.132715322482438,54.01417301471959,4.5044841937701605,7.670860171492102,14.742201045244244,16.122725735664048,7.787533942974293,32.62427076050718,24.9537402288977,16.855908521573525,15.668872710195105,1.8992572982054696,2.611478785032517,21.60405176708716,14.956651223368029,1.187035811378422,4.676378764762264,4.676378764762288,4.035921758686612,7.122214868270504,23.265901903016957,18.46899554808393,"{'happy': ['m3', 'm12', 'e1', 'e2']}"
20,43,23,0.7674333333333314,13.694995151617674,53.821717664681245,4.086169583710085,8.016930462175697,14.38729823632398,15.66588079676927,7.843882811726576,33.137581558460965,25.134299959787267,16.738749150037734,15.303999222891632,1.9129999028614575,2.391249878576815,22.477748858622107,15.303999222891632,0.9564999514307146,4.277597823748701,4.086169583710104,3.825999805722901,7.173749635730445,22.47774885862208,16.182950286216297,{}
21,43,24,0.800799999999998,15.040410238889574,53.95984225552196,4.043527725462395,7.208468212872283,14.822910928933506,15.731862222269475,8.142257835454608,34.012155673527886,26.809199949553467,17.747217139030454,15.617551082346807,1.41977737112245,1.8930364948299427,23.18969706166644,17.0373284534692,0.9465182474149856,4.232958286327618,4.232958286327618,3.5494434278060822,7.572145979319657,23.66295618537393,16.31886398089487,{}
22,43,25,0.8341666666666645,15.66412112543059,51.94532865026514,4.110688141463144,6.888585142376261,14.010415857701378,15.29022185811139,8.193172507581423,34.12898844286265,27.25448365811363,17.80142726616799,15.876948642798482,1.924478623369538,2.6461581071330897,22.85318365251291,17.079747782404382,1.683918795448335,4.564301818614769,4.303265023099463,3.848957246739019,8.660153805162793,24.055982792118883,19.17248246059351,{}
23,43,26,0.867533333333331,14.535981307290337,54.41523393490315,4.193783331150046,7.9298470869820115,14.904246326797116,16.078458910562873,8.169292452830778,34.47117546636691,26.546513711913867,17.91585024419814,16.688737213773607,2.4542260608490665,2.6996486669339674,22.824302365896244,16.443314607688706,1.7179582425943352,4.6565665471356175,4.193783331150052,3.6813390912735713,8.83521381905662,23.56057018415096,20.12465369896229,{}
24,43,27,0.9008999999999976,13.265091799283075,52.25598959042569,4.127489878297621,8.09799952247741,14.41184525129441,15.824297816972248,8.450556312081705,33.60835590937401,25.51225481719801,17.63264448946751,15.941842963080203,3.3816030527745795,2.4154307519818587,22.221962918233004,15.458756812683816,0.9661723007927492,4.320853885099859,3.983630448714508,3.864689203170968,8.212464556738297,23.188135219025757,18.39537256002002,{}
