,video_id,frame_seq,time_seconds,m1,m3,m4,m5,m6,m7,m8,m9,m10,m11,m12,m13,m14,m15,m16,m17,e1,e2,e3,b1,b2,b3
0,20,0,0.0,56.2339914090234,202.01792231747717,6.5975258556707495,23.787717763820318,59.46929440955069,63.70969429030994,44.47828616379325,130.65766589316854,106.87177345783307,78.18833637193882,39.83179400079905,63.435820075346555,7.376258148296188,78.18833637193882,47.208052149095124,2.9505032593184524,12.60455544909424,7.94447315770869,8.851509777955357,82.6140912609165,48.68330377875435,36.88129074148053
1,20,1,0.0333333333333333,40.226371311101005,178.2569461040224,11.516776604113758,27.291078373825275,54.45115189657997,57.42419855133252,51.91892279374886,130.93796983650307,103.6509894370241,82.8518591060386,59.996173835407205,79.99489844720966,18.57024428238799,59.99617383540726,27.141126258874692,8.570881976486817,5.713921317657821,8.080705021764517,5.713921317657878,79.99489844720966,42.85440988243374,39.79285734880896
2,20,2,0.0666666666666666,43.20876194283745,183.95467537947883,10.462260811147102,27.643209775185785,53.482597817516314,56.34099872325141,53.867369669182956,134.94992722607532,107.31217321264167,84.78902066664796,57.48408180789693,80.47771453105565,15.808122497171667,64.6695920338841,30.1791429491459,5.748408180789625,3.2134578636654387,6.426915727330853,2.874204090394869,80.47771453105568,43.113061355922696,44.08414469285175
3,20,3,0.0999999999999999,43.462378696411456,184.350171800985,9.117201339327686,27.540890733403607,53.6483583072787,56.51561835511619,52.39416926192472,132.3172617429402,104.78833852384945,82.16869803804752,56.220688131295674,77.84402972025555,15.136339112271912,64.1492467139143,30.993456277509154,6.487002476687962,3.22341744624084,6.44683489248168,2.1623341588959875,80.72714193211687,43.24668317791975,45.58600669663843
4,20,4,0.1333333333333332,36.7137109148,198.39639876405755,7.434817782132037,22.064871174695007,57.163733881126895,60.224495196556845,39.79804982314435,105.9900408340928,83.92558418427497,64.88490393553286,30.619842306655926,55.40733369775842,3.645219322220896,61.968728477756144,31.348886171100162,2.1871315933325377,7.852042723324412,6.5207665579053575,5.832350915553491,77.27864963108405,43.74263186665132,36.0121103704333
5,20,5,0.1666666666666665,25.38954525597838,205.1533425397402,4.69052129773991,15.48582550223323,56.850201737062285,58.32112019575524,43.42216999204558,88.76122202264943,73.41827130159928,60.07255939326734,25.215642214457944,53.397830571793236,3.7081826785966996,48.20637482175778,24.474005678738536,8.158001892912807,10.48832447165705,7.987669943681952,8.158001892912807,77.1301997148125,40.04837292884497,38.93415228394776
6,20,6,0.1999999999999998,39.390894576773384,207.93206208796278,6.484592068663892,17.93549545933648,57.453632107228415,60.31019247762835,41.01216126808125,104.40998738861845,86.53954759699015,65.97494845709161,30.44997621096536,59.44995355474191,4.349996601566545,57.9999546875531,31.89997507815417,2.899997734377621,9.17059804996141,6.484592068663841,6.524994902349704,78.29993882819667,39.14996941409834,42.64574607559681
7,20,7,0.2333333333333331,49.79792007736711,204.4856543107744,5.244680953509692,20.826885457803428,58.83544569097249,61.713993518110144,46.63843355383604,121.78853517842799,101.04063265580858,75.63986440531448,36.36531942563198,66.9121877431628,5.091144719588442,69.09410690870072,38.547238591169844,0.7273063885126021,10.58974086309551,9.31406632865007,8.000370273638964,77.09447718233977,37.81993220265724,40.021682081485416
8,20,8,0.2666666666666664,23.08217678742412,189.0682744041333,10.985169668292103,30.51620251054918,50.36298117164478,55.07074436800264,51.5029134231714,115.87357283523681,85.35791995526401,73.18306138436918,46.77680212196793,73.93752593472351,9.053574604251821,54.321447625511155,16.5982201077951,1.5089291007086558,6.221474063789974,7.5446455035432445,4.5267873021259675,79.97324233755805,43.75894392055062,38.794446863799
9,20,9,0.2999999999999997,25.96354371438296,193.05793888666938,13.984264217038188,30.675511422555186,55.129184323950284,58.135452332457696,47.62868767902873,118.2038980290427,87.52906207480949,73.56511134233455,45.504192582887356,72.80670813261969,12.134451355436568,57.63864393832398,19.718483452584564,1.5168064194295994,4.550419258288741,8.580352839407409,6.067225677718284,78.87393381033803,43.98738616345776,43.77767156646156
10,20,10,0.333333333333333,22.87590456297624,191.07195283298432,7.625301520991975,22.630184176571287,49.71088401604684,51.04266131544395,55.83438465702524,108.92135651512375,86.29635733967653,74.02451084623374,46.358784570368584,67.29500986021253,1.4954446635601926,50.8451185610495,22.431669953404253,4.486333990680919,7.477223317801418,7.477223317801441,5.981778654241111,77.76312250513445,46.35878457036864,38.33125441912238
11,20,11,0.3666666666666663,25.477278399889762,187.96887910669514,8.678780033058022,19.85771273295322,51.149827266761875,54.096682349337634,55.25146926556381,108.40814589590767,88.61910148736064,75.16412406984159,47.62875188584019,74.41992482162527,5.953593985729981,46.14035338940778,19.34918045362258,1.4883984964325236,7.589372977311543,9.530400487465542,6.697793233946243,74.4199248216253,40.186759403677684,40.07635600990122
12,20,12,0.3999999999999997,38.59292353761461,191.8628415953738,9.325935102110126,22.556427761134874,57.809515159210235,60.7439898677888,51.94554223444068,122.20178129343957,99.68286079693875,79.62622983067371,51.60959340876997,76.67711020731537,12.533758399272756,56.77055274964687,27.279356516064126,3.6863995291978426,8.969397171165484,9.891647927411567,8.847358870074856,76.67711020731537,41.287674727016,43.990347896045456
13,20,13,0.433333333333333,36.00553973997272,194.1070898418442,10.837505411565287,26.960523104980428,64.44306469479561,67.25319092616124,49.484881151760625,123.16239308024207,96.21075665065129,77.40958446673778,50.61395907440544,78.89823032186735,15.630781478860513,57.312865422488585,21.585364899378874,5.210260492953466,6.1378440998371095,7.443229275647854,5.954583420518361,77.40958446673787,40.19343808849851,36.76684041383781
14,20,14,0.4666666666666663,26.02097773815841,195.15591111965657,10.535585930236712,28.46558566974897,61.54080954035946,65.98002690541387,47.701894127117136,112.38068070736635,83.91513175510887,70.772950422917,49.168576083289736,73.00788569943018,13.409611659079133,50.658532934298364,14.899568510087647,1.4899568510088557,9.06305370507729,9.540378825423403,7.44978425504388,73.00788569943012,40.228834977237,40.53120833656842
15,20,15,0.4999999999999996,25.22300299155393,193.0129173309086,11.780001281075178,29.549512021089242,61.645114064819275,64.55480387481454,48.23940121112705,114.56595740578415,85.05981695138935,72.32590195175555,46.75613863547835,71.5953372855763,10.958469992690198,54.792349963451215,18.264116654483814,0.7305646661793617,6.024390570003091,7.305646661793458,5.84451732943478,71.59533728557625,39.45049197368485,45.011321694204376
16,20,16,0.533333333333333,21.064019844884815,203.28316369005498,15.003099668462534,29.75267228813948,62.22565761272821,65.33077047234828,47.64881109232428,113.43321836545655,83.68903905953368,72.08757309075997,50.01994867522126,76.50109797386767,16.18292457139512,48.548773714185245,11.769399688287308,1.4711749610358993,10.710315382699441,9.868941659015778,9.562637246733459,75.0299230128318,39.72172394796979,47.92057457610201
17,20,17,0.5666666666666663,25.181255609989663,199.63063605667057,13.293426071377354,29.160107172502762,60.98634863094134,65.45856158535175,46.499055497527756,114.01754250991377,84.86261368625883,71.37278784014848,47.58185856009902,76.41934859652258,15.86061952003297,50.46560756374129,14.41874501821178,2.8837490036423787,11.890001739787161,12.319381143838038,11.534996014569515,73.53559959288023,40.372486050993075,47.930129326941
18,20,18,0.5999999999999996,20.356328493977795,204.24984096962777,15.262660923204418,30.267408650737384,63.302193136987825,67.94423015912564,49.75018790017371,115.39567073456622,85.13690199895728,74.0830382865405,47.89206515493527,77.82460587676985,13.469643324825483,50.88531922711877,13.469643324825597,1.4966270360916951,10.58275126127584,10.792331037748855,9.728075734596246,74.83135180458643,38.912302938384926,55.918600745050476
19,20,19,0.633333333333333,19.589577833223053,200.99296000329437,13.731294701518616,28.64856593199374,61.516488734704716,62.995161768274,47.86876092571673,109.73923946943033,81.09878991217042,70.74498109352885,50.63851278273637,74.46840115108296,14.893680230216546,46.17040871367146,10.425576161151639,1.4893680230215978,13.731294701518616,14.129385680911604,13.404312207194948,75.95776917410461,40.21293662158479,51.356208401821696
20,20,20,0.6666666666666663,17.546630015895783,192.68261687488226,14.860259289317264,26.390440506970556,57.294701669837785,61.82241557806565,51.33287735334631,110.07168157734917,83.68257651505826,74.31558378379117,49.5437225225275,75.77275209327723,11.657346475888858,46.6293859035552,13.114514785374809,2.914336618972129,13.195220253485273,13.823912376579676,13.114514785374865,71.40124716481895,37.886376046638645,47.03742914341458
21,20,21,0.6999999999999996,13.440940202931804,192.58297961724747,16.29953416597012,30.753899556615035,57.32247464907401,61.85238331703858,51.21271096203334,111.57266280804919,80.82991418136898,73.62267012131326,52.48348761123316,77.26735676098224,13.84980923074204,45.92305165982907,8.018310607271815,2.1868119838013627,13.440940202931836,13.830613366727198,13.12087190280829,72.89373279337948,39.362615708424926,45.66197477649038
22,20,22,0.733333333333333,22.03627147359405,195.28037681513032,10.671410570244184,26.54732803498977,57.635310766954085,60.544320281295185,43.99935295544945,102.98440636364509,76.44839049352993,65.22947834552485,39.577436299531996,65.96239383255329,8.794985844340545,49.83825311792907,14.658309740567347,1.4658309740566438,11.817907128284933,9.833093104546819,10.260816818397132,71.8257177287802,41.0432672735887,46.92948918981254
23,20,23,0.7666666666666663,28.454336126850613,197.36795746416965,9.419590453941046,25.49387402188695,58.76873349966915,60.48007945671928,43.2942658588817,106.41427693846899,80.92080636532455,66.27687702446377,37.23420057554148,67.02156103597468,8.936208138129928,53.61724882877979,17.87241627625997,0.0,12.281643348671274,12.725165966853258,11.914944184173237,75.95776917410461,43.1916726676281,47.683042433337185
24,20,24,0.7999999999999996,19.046620469967397,193.51350793312892,10.54223787002869,24.787269380585197,55.19855178830882,58.212406666036685,47.98395558904293,102.20052982679125,77.41515517161832,67.33607986853877,43.442632173250786,62.26777278165952,5.068307086879315,48.510939260130044,18.101096738854494,3.620219347770899,11.6748565948425,11.028307658432716,9.412570304204337,68.06012373809293,39.09836895592571,46.020948286161165
25,20,25,0.8333333333333329,25.05819639431969,198.5427758951862,8.904650133467612,23.60492758901665,57.261367293334565,61.76266109811155,47.209855178033386,104.76972056710662,81.16483873830431,68.07206908765221,42.45354846326694,61.48444949852461,5.123704124877122,51.96899898089566,21.226774231633385,2.1958731963758282,8.783492785503483,7.31957732125295,5.85566185700236,70.2679422840281,42.453548463267,40.832483667727374
26,20,26,0.8666666666666663,24.893364285895753,198.5513015881371,8.84607559629097,23.449655041764526,55.56818505582247,59.90881172240161,46.89931008352901,104.08054830313726,80.63093872057769,67.62429293904466,45.082861959363186,62.5342923952457,7.271429348284414,49.44571956833374,20.3600021751962,0.0,7.415432027722652,7.271429348284392,5.817143478627543,71.26000761318696,42.17429022004944,41.64440971319677
27,20,27,0.8999999999999996,23.620751769642883,200.5999584936136,13.505681525802306,25.28804022736387,58.88812408965228,63.414976365743556,42.708714974393025,105.03422699863943,79.7662895226173,67.38525456054055,42.48200830990589,65.92035772226785,11.71917470618098,49.80649250126908,17.578762059271412,0.0,10.358384880813025,7.888710899548302,8.056932610499416,71.77994507535834,42.48200830990595,39.443554497741566
28,20,28,0.9333333333333328,24.159697579325478,201.89020940194325,13.26520505819835,26.53041011639671,58.88812408965228,61.96011454146457,41.25186951154363,105.03422699863943,78.51901713280768,65.92035772226785,41.017111471633314,62.99056404572258,10.986726287044576,52.00383775867806,18.311210478407816,2.1973452574089833,10.358384880813025,8.541742994878593,8.789381029635706,71.77994507535831,43.94690514817859,39.795615174595056
29,20,29,0.9666666666666662,24.125873951963886,207.19967254717966,13.663739713703132,28.314346972722664,58.10279859771887,62.52736376749849,43.20853885099878,109.19934624403629,80.90367498612927,68.17387016699706,44.46121967412853,66.69182951119274,12.597345574336373,52.61244328105215,17.04346754174935,0.7410203279022198,9.014901369504855,8.641707770199753,7.4102032790214025,72.61999213440987,44.46121967412847,40.69544393558586
