,video_id,frame_seq,gap,time_seconds,m1,m3,m4,m5,m6,m7,m8,m9,m10,m11,m12,m13,m14,m15,m16,m17,e1,e2,e3,b1,b2,b3,m_0_16,m_1_15,m_2_14,m_3_13
0,7,177,1,5.905900000000005,5.0990195135927845,31.144823004794873,3.0,5.0990195135927845,8.06225774829855,9.0,8.06225774829855,21.213203435596427,16.1245154965971,13.5,14.0,11.0,4.5,8.5,3.5,2.5,4.123105625617661,4.123105625617661,3.5,10.0,13.0,10.04987562112089,78.40918313565064,78.23042886243178,76.16429609731846,71.06335201775947
1,7,178,0,5.939266666666672,4.123105625617661,30.14962686336267,4.0,6.082762530298219,8.06225774829855,9.0,6.324555320336759,20.396078054371138,14.317821063276353,12.0,13.0,10.0,5.5,8.5,2.5,2.5,4.0,3.0,3.5,8.0,11.0,10.0,76.4198926981712,75.32595834106593,72.24956747275377,68.18357573492314
2,7,179,0,5.972633333333339,3.0,29.068883707497267,3.1622776601683795,5.0,8.06225774829855,8.0,6.082762530298219,17.11724276862369,12.165525060596439,10.5,12.0,10.0,5.0,6.0,1.0,3.0,4.0,4.0,4.0,10.0,11.0,9.055385138137417,76.32168761236873,74.24284477308234,71.25307010929424,67.26812023536856
3,7,180,0,6.006000000000006,2.0,28.071337695236398,3.1622776601683795,6.082762530298219,7.0710678118654755,9.055385138137417,6.082762530298219,17.26267650163207,11.180339887498949,10.0,11.0,9.0,4.0,7.0,1.0,2.0,4.123105625617661,4.0,4.0,8.0,10.0,10.0,68.18357573492314,67.11929677819934,64.07027391856539,61.032778078668514
4,7,181,0,6.039366666666672,1.0,27.073972741361768,3.0,6.082762530298219,8.06225774829855,9.0,6.324555320336759,16.278820596099706,10.198039027185569,9.5,11.0,9.0,4.0,6.0,0.0,2.0,3.0,3.0,3.5,9.0,9.0,9.055385138137417,70.178344238091,69.18092222571191,66.12110101926616,63.12685640834652
5,7,182,0,6.072733333333339,2.0,26.019223662515376,3.0,5.0,7.0,8.0,5.385164807134504,15.132745950421556,10.198039027185569,9.0,10.0,9.0,4.5,5.5,0.5,1.5,4.0,3.0,3.0,8.0,9.0,8.0,68.26419266350405,67.1863081289633,64.19501538281614,61.1310068623117
6,7,183,0,6.106100000000006,2.0,26.019223662515376,3.0,4.123105625617661,7.0,7.0,5.0990195135927845,14.142135623730951,10.04987562112089,9.0,10.0,9.0,4.5,4.5,0.5,1.5,3.0,3.1622776601683795,3.0,7.0,8.0,8.06225774829855,66.18912297349165,65.19202405202648,62.20128616033595,59.21148537234985
7,7,184,0,6.139466666666673,2.0,24.020824298928627,3.0,5.0,7.0,7.0710678118654755,5.385164807134504,15.132745950421556,10.198039027185569,9.0,10.0,9.0,4.5,5.5,0.5,1.5,3.0,3.0,3.5,7.0,8.0,8.0,63.198101237299845,62.20128616033595,59.21148537234985,57.21887800367987
8,7,185,0,6.172833333333339,1.0,24.08318915758459,3.0,5.0990195135927845,7.0710678118654755,7.0710678118654755,5.385164807134504,14.317821063276353,9.219544457292887,8.5,10.0,8.0,4.0,5.0,0.0,2.0,2.23606797749979,3.0,3.0,7.0,8.0,8.0,62.20128616033595,60.29925372672534,58.309518948453004,56.32051136131489
9,7,186,0,6.206200000000006,2.0,24.020824298928627,2.0,5.0,6.0,7.0,5.385164807134504,14.142135623730951,9.219544457292887,8.0,10.0,9.0,4.5,4.5,0.5,2.5,2.23606797749979,2.0,2.0,8.0,8.0,7.0,60.207972893961475,58.309518948453004,57.3149195236284,53.23532661682466
10,7,187,0,6.239566666666673,1.0,21.02379604162864,3.0,4.0,6.082762530298219,6.0,5.385164807134504,13.152946437965905,9.219544457292887,8.5,10.0,9.0,4.5,3.5,0.5,2.5,3.0,2.0,2.5,7.0,8.0,7.0,58.309518948453004,57.3149195236284,54.3323108288245,52.3450093132096
11,7,188,0,6.27293333333334,2.23606797749979,23.021728866442675,2.23606797749979,4.123105625617661,7.0,7.0,4.123105625617661,12.165525060596439,8.06225774829855,7.0,9.0,8.0,4.5,3.5,1.5,2.5,3.1622776601683795,3.0,3.0,6.0,7.0,8.0,57.21887800367987,56.22277118748239,54.147945482723536,51.15662224971465
12,7,189,0,6.306300000000007,1.0,20.0,3.0,4.123105625617661,6.0,5.0,3.1622776601683795,11.180339887498949,7.0710678118654755,6.5,7.0,7.0,4.0,4.0,0.0,1.0,3.0,2.0,2.0,7.0,7.0,8.0,56.22277118748239,55.226805085936306,52.23983154643591,50.24937810560445
13,7,190,0,6.339666666666673,1.0,19.1049731745428,2.23606797749979,5.0,5.0,6.082762530298219,4.123105625617661,12.165525060596439,7.280109889280518,6.5,9.0,7.0,4.0,4.0,1.0,2.0,2.0,3.0,3.0,7.0,7.0,8.0,55.326304774492215,54.3323108288245,51.478150704935004,49.49747468305833
14,7,191,0,6.37303333333334,1.0,19.026297590440446,3.0,4.123105625617661,6.0,5.0,4.47213595499958,12.36931687685298,8.246211251235321,7.5,9.0,8.0,4.5,3.5,0.5,2.5,2.0,2.0,2.5,7.0,7.0,7.0710678118654755,54.230987451824994,52.23983154643591,50.35871324805669,48.25971404805462
15,7,192,0,6.406400000000007,0.0,16.1245154965971,2.23606797749979,3.0,5.0,4.123105625617661,6.082762530298219,11.180339887498949,8.246211251235321,8.0,11.0,9.0,4.0,1.0,2.0,2.0,2.0,2.0,2.0,6.0,6.0,6.082762530298219,53.150729063673246,50.24937810560445,49.36598018878993,47.265209192385896
16,7,325,1,10.844166666666611,7.0710678118654755,46.2709412050371,4.123105625617661,8.246211251235321,12.041594578792296,13.038404810405298,10.04987562112089,29.427877939124322,21.213203435596427,17.5,13.0,8.0,0.5,18.5,9.5,2.5,2.23606797749979,2.8284271247461903,1.5,12.0,20.0,20.223748416156685,107.78682665335315,106.92053123698928,100.9752444909147,92.91393867445294
17,7,326,0,10.877533333333275,4.123105625617661,40.311288741492746,4.123105625617661,9.055385138137417,10.04987562112089,11.045361017187261,11.180339887498949,28.442925306655784,19.4164878389476,17.0,14.0,9.0,0.5,16.5,7.5,2.5,2.23606797749979,2.8284271247461903,2.0,12.0,20.0,19.235384061671343,116.55899793666725,114.42464769445436,110.16805344563369,102.1077861869505
18,7,327,0,10.910899999999945,4.0,37.33630940518894,4.123105625617661,8.06225774829855,9.219544457292887,10.04987562112089,11.180339887498949,27.294688127912362,19.235384061671343,17.0,14.0,9.0,0.5,15.5,7.5,1.5,2.0,2.8284271247461903,2.0,11.0,19.0,19.235384061671343,112.44998888394787,111.30588483993108,107.20074626605917,99.14131328563285
19,7,328,0,10.944266666666609,5.0,37.33630940518894,4.123105625617661,7.0710678118654755,10.04987562112089,11.045361017187261,10.198039027185569,26.30589287593181,19.235384061671343,16.5,13.0,8.0,0.5,15.5,7.5,2.5,1.4142135623730951,2.23606797749979,2.0,11.0,19.0,17.11724276862369,109.48972554536796,107.20074626605917,104.08650248711405,95.88534820294495
20,7,329,0,10.977633333333277,5.0,34.36568055487916,4.123105625617661,7.0710678118654755,9.055385138137417,10.04987562112089,10.198039027185569,26.30589287593181,19.235384061671343,16.5,14.0,9.0,1.5,14.5,6.5,1.5,2.23606797749979,1.4142135623730951,1.0,11.0,18.0,17.11724276862369,104.5609869884557,103.40696301506973,99.14131328563285,92.07062506576133
21,7,330,0,11.01099999999994,3.0,34.23448553724738,4.123105625617661,8.06225774829855,9.055385138137417,10.04987562112089,9.219544457292887,24.331050121192877,16.278820596099706,14.5,12.0,8.0,1.0,14.0,6.0,2.0,2.23606797749979,2.23606797749979,2.0,10.0,17.0,16.1245154965971,102.42070103255493,100.2845950283492,96.0260381354974,89.80534505250787
22,7,331,0,11.044366666666606,4.0,33.24154027718932,3.1622776601683795,7.0710678118654755,9.055385138137417,9.055385138137417,10.198039027185569,24.331050121192877,17.26267650163207,15.0,12.0,8.0,0.0,14.0,6.0,2.0,2.23606797749979,2.23606797749979,2.0,9.0,16.0,16.1245154965971,98.47842403288143,96.17692030835673,93.05912099305473,85.98837130682264
23,7,332,0,11.077733333333272,3.0,33.24154027718932,3.1622776601683795,7.0710678118654755,9.055385138137417,9.0,10.04987562112089,23.194827009486403,16.1245154965971,14.5,12.0,8.0,0.0,13.0,6.0,2.0,2.23606797749979,2.23606797749979,1.0,10.0,16.0,16.0312195418814,96.17692030835673,93.90420650854784,90.93404203047393,84.71717653463199
24,7,333,0,11.111099999999938,4.0,32.2490309931942,3.1622776601683795,7.0710678118654755,9.0,9.055385138137417,8.06225774829855,22.20360331117452,15.132745950421556,13.0,10.0,6.0,0.0,14.0,6.0,3.0,1.4142135623730951,1.4142135623730951,1.5,9.0,15.0,15.132745950421556,93.2148056909416,91.0823802938856,86.97700845625813,80.75270893288967
25,7,334,0,11.144466666666604,3.0,29.274562336608895,3.0,7.0710678118654755,8.06225774829855,9.055385138137417,9.219544457292887,22.20360331117452,15.132745950421556,13.5,12.0,8.0,1.0,12.0,5.0,1.0,1.4142135623730951,2.23606797749979,1.5,8.0,14.0,14.142135623730951,89.26925562588724,87.96590248499699,83.86298349093002,77.78174593052023
26,7,335,0,11.17783333333327,3.0,29.274562336608895,3.0,7.0710678118654755,8.06225774829855,8.06225774829855,8.246211251235321,21.213203435596427,14.142135623730951,12.5,10.0,6.0,0.0,13.0,6.0,2.0,1.4142135623730951,2.8284271247461903,2.0,8.0,15.0,14.142135623730951,88.11923740024082,86.14522621712709,84.01190391843289,76.94153624668537
27,7,336,0,11.211199999999936,3.0,30.265491900843113,3.1622776601683795,6.082762530298219,7.0,8.0,8.06225774829855,20.223748416156685,14.142135623730951,12.5,10.0,6.0,0.0,12.0,6.0,3.0,2.0,2.23606797749979,2.0,8.0,14.0,14.142135623730951,85.98837130682264,84.01190391843289,80.75270893288967,74.67261881037788
28,7,337,0,11.244566666666602,3.0,27.294688127912362,3.0,6.082762530298219,7.0710678118654755,7.0710678118654755,8.246211251235321,20.223748416156685,14.142135623730951,12.5,11.0,7.0,1.0,11.0,5.0,1.0,2.0,2.23606797749979,1.5,8.0,14.0,13.038404810405298,82.20097323024831,81.04936767180853,76.94153624668537,71.7007670809734
29,7,338,0,11.277933333333268,3.1622776601683795,27.294688127912362,3.0,6.082762530298219,7.0710678118654755,7.0710678118654755,7.280109889280518,19.4164878389476,13.341664064126334,11.5,9.0,5.0,0.0,12.0,6.0,2.0,1.4142135623730951,1.4142135623730951,1.0,8.0,14.0,13.152946437965905,80.06247560499239,79.07591289387686,76.79192665899195,69.72087205421343
30,7,339,0,11.311299999999934,3.0,26.1725046566048,3.0,6.082762530298219,7.0710678118654755,8.06225774829855,7.280109889280518,19.235384061671343,13.152946437965905,11.5,9.0,6.0,0.5,11.5,5.5,1.5,1.0,1.4142135623730951,1.0,8.0,13.0,13.152946437965905,78.91767862779544,77.92945527847606,73.824115301167,68.59300255857006
31,7,340,0,11.3446666666666,4.0,28.160255680657446,2.0,5.0990195135927845,7.0710678118654755,8.0,7.0710678118654755,18.110770276274835,13.038404810405298,11.0,8.0,5.0,0.5,11.5,6.5,1.5,0.0,1.4142135623730951,1.0,7.0,12.0,13.152946437965905,76.79192665899195,75.95393340703298,72.69112738154499,66.61080993352356
32,7,341,0,11.378033333333263,3.0,26.1725046566048,2.0,5.0990195135927845,6.082762530298219,7.0,8.246211251235321,18.24828759089466,13.152946437965905,11.5,9.0,6.0,0.5,10.5,4.5,1.5,1.0,1.4142135623730951,1.0,8.0,13.0,12.041594578792296,74.67261881037788,73.68174807915459,71.449282711585,66.37017402418047
33,7,342,0,11.411399999999931,3.0,27.073972741361768,2.0,5.0990195135927845,7.0,7.0710678118654755,7.0710678118654755,17.11724276862369,12.041594578792296,10.5,8.0,6.0,0.0,10.0,5.0,2.0,1.0,1.4142135623730951,1.0,7.0,12.0,12.165525060596439,71.84705978674423,70.8590149522275,67.7421582177598,63.63961030678928
34,7,343,0,11.444766666666595,4.0,24.186773244895647,2.0,5.0990195135927845,6.0,7.0710678118654755,7.0710678118654755,18.110770276274835,13.038404810405298,11.0,9.0,6.0,0.5,10.5,5.5,1.5,1.0,1.4142135623730951,1.0,7.0,12.0,12.041594578792296,70.8590149522275,69.87131027825369,66.75327707311455,61.5223536610881
35,7,344,0,11.478133333333265,3.0,24.186773244895647,2.0,5.0990195135927845,6.0,7.0710678118654755,7.280109889280518,17.26267650163207,12.165525060596439,10.5,9.0,6.0,0.5,9.5,4.5,1.5,1.4142135623730951,1.4142135623730951,1.0,8.0,13.0,12.041594578792296,68.8839603971781,67.89698078707183,64.77653896280658,59.682493245507096
36,7,357,1,11.91189999999992,1.0,50.24937810560445,4.123105625617661,8.0,15.033296378372908,15.033296378372908,16.1245154965971,28.284271247461902,20.396078054371138,20.0,14.0,19.0,0.5,11.5,2.5,2.5,4.0,4.0,4.0,13.0,8.0,14.035668847618199,110.22250223978767,109.1146186356347,105.11898020814318,101.04454463255303
37,7,358,0,11.945266666666583,1.0,48.16637831516918,4.123105625617661,7.0710678118654755,14.035668847618199,15.033296378372908,15.132745950421556,26.476404589747453,19.4164878389476,19.0,13.0,17.0,0.0,11.0,3.0,3.0,3.0,3.0,3.5,11.0,6.0,14.035668847618199,102.39628899525607,103.23759005323593,100.17983829094555,96.13012014972206
38,7,359,0,11.978633333333253,1.4142135623730951,41.19465984809196,3.0,6.082762530298219,12.041594578792296,12.041594578792296,14.142135623730951,24.331050121192877,18.24828759089466,17.5,12.0,16.0,0.0,10.0,2.0,3.0,2.0,3.0,3.0,12.0,7.0,13.038404810405298,100.40418317978589,99.32270636667126,95.1892851112981,90.08884503644167
39,7,360,0,12.011999999999915,1.0,41.10960958218893,3.1622776601683795,6.082762530298219,12.041594578792296,12.041594578792296,13.152946437965905,23.345235059857504,17.26267650163207,16.5,12.0,15.0,0.5,9.5,2.5,2.5,2.0,2.0,2.5,10.0,6.0,11.045361017187261,95.42536350467836,95.25754563287887,92.13576938409967,88.09086218218096
40,7,361,0,12.045366666666585,1.0,40.11234224026316,4.0,7.0,11.045361017187261,11.0,12.165525060596439,23.194827009486403,16.278820596099706,16.0,12.0,15.0,1.5,9.5,1.5,2.5,2.0,3.0,2.5,10.0,6.0,12.0,91.35097153287424,91.19758768739445,89.1403387922662,84.0535543567314
41,7,362,0,12.078733333333249,1.0,40.11234224026316,3.0,6.0,11.045361017187261,11.0,12.165525060596439,21.213203435596427,15.297058540778355,15.0,11.0,14.0,0.5,8.5,1.5,2.5,2.0,2.0,2.5,9.0,5.0,11.045361017187261,87.28115489611719,87.20665112249179,84.1486779456457,79.1580697086532
42,7,363,0,12.112099999999916,0.0,21.0,3.0,2.0,6.0,6.0,5.0,10.0,8.0,8.0,8.0,8.0,3.0,2.0,0.0,1.0,3.0,4.0,4.0,8.0,7.0,10.0,60.00833275470999,60.00833275470999,59.00847396772772,56.0357029044876
43,7,364,0,12.14546666666658,1.0,35.12833614050059,4.0,5.0,10.0,11.045361017187261,11.180339887498949,20.223748416156685,15.297058540778355,15.0,11.0,14.0,1.5,7.5,1.5,1.5,2.0,3.0,2.5,9.0,5.0,10.04987562112089,78.31347265956222,78.16009211867653,76.10519036176179,73.02739212103907
44,7,365,0,12.178833333333246,1.4142135623730951,34.132096331752024,3.0,5.0,10.04987562112089,10.04987562112089,10.198039027185569,19.235384061671343,14.317821063276353,13.5,10.0,13.0,1.5,7.5,1.5,1.5,2.0,2.0,2.0,8.0,4.0,10.198039027185569,74.24284477308234,74.24284477308234,73.10950690573696,69.06518659932803
45,7,366,0,12.212199999999912,1.4142135623730951,33.06055050963308,2.0,4.0,10.04987562112089,10.04987562112089,10.198039027185569,17.26267650163207,13.341664064126334,12.5,9.0,11.0,0.0,7.0,2.0,2.0,2.23606797749979,2.0,2.0,8.0,5.0,8.0,73.17103251970687,72.17340230306452,70.06425622241343,67.06713054842886
46,7,367,0,12.245566666666578,1.0,32.0624390837628,3.0,4.0,9.055385138137417,9.0,9.055385138137417,16.1245154965971,12.165525060596439,12.0,9.0,11.0,1.0,6.0,1.0,2.0,1.0,2.0,2.0,7.0,3.0,9.055385138137417,69.26037828369117,69.18092222571191,68.11754546370561,66.06814663663572
47,7,368,0,12.278933333333244,0.0,30.14962686336267,3.0,4.123105625617661,9.0,10.04987562112089,9.219544457292887,16.278820596099706,12.165525060596439,12.0,8.0,11.0,0.5,6.5,1.5,1.5,1.4142135623730951,2.0,2.0,7.0,4.0,10.04987562112089,67.26812023536856,66.12110101926616,64.07027391856539,61.07372593840988
48,7,369,0,12.31229999999991,1.4142135623730951,29.154759474226502,2.0,4.0,8.0,9.055385138137417,9.055385138137417,16.1245154965971,12.165525060596439,11.5,8.0,11.0,0.5,6.5,1.5,1.5,1.0,2.0,2.0,8.0,4.0,10.04987562112089,65.27633568147036,64.19501538281614,62.12889826803627,59.07622195096772
49,7,370,0,12.345666666666576,1.0,28.071337695236398,2.0,4.0,9.0,9.0,9.055385138137417,15.132745950421556,11.180339887498949,11.0,8.0,10.0,0.0,6.0,1.0,1.0,1.0,1.0,1.5,7.0,4.0,7.0,62.20128616033595,62.07253821135398,61.07372593840988,58.034472514187634
50,7,371,0,12.379033333333242,0.0,28.160255680657446,2.0,4.123105625617661,8.06225774829855,8.0,8.246211251235321,14.317821063276353,10.198039027185569,10.0,7.0,10.0,0.5,5.5,1.5,1.5,2.0,1.0,1.5,7.0,4.0,7.0710678118654755,60.40695324215582,61.204574992397426,59.135437767890075,56.08029957123981
51,7,372,0,12.412399999999908,1.0,26.1725046566048,2.0,4.0,7.0,8.0,8.06225774829855,14.142135623730951,10.198039027185569,10.0,7.0,10.0,0.5,5.5,1.5,1.5,1.0,1.0,1.0,6.0,4.0,7.0,58.137767414994535,59.07622195096772,58.034472514187634,55.036351623268054
52,7,373,0,12.445766666666572,0.0,25.179356624028344,2.0,4.123105625617661,8.06225774829855,7.0710678118654755,8.246211251235321,14.317821063276353,10.198039027185569,10.0,7.0,10.0,0.5,5.5,0.5,1.5,2.0,1.0,1.5,7.0,3.0,7.280109889280518,57.42821606144492,57.21887800367987,55.14526271584895,53.08483775994799
53,7,374,0,12.47913333333324,1.0,24.186773244895647,2.0,4.0,7.0,7.0710678118654755,7.0710678118654755,13.152946437965905,9.219544457292887,9.0,6.0,9.0,0.5,5.5,1.5,1.5,1.0,1.0,1.5,6.0,3.0,8.06225774829855,55.14526271584895,55.08175741568164,54.037024344425184,52.03844732503075
54,7,375,0,12.512499999999903,0.0,24.08318915758459,2.23606797749979,3.0,7.0710678118654755,8.0,8.06225774829855,13.152946437965905,10.198039027185569,10.0,7.0,9.0,0.0,5.0,1.0,2.0,2.23606797749979,2.0,2.0,6.0,4.0,8.06225774829855,53.33854141237835,54.147945482723536,53.08483775994799,50.039984012787215
55,7,376,0,12.545866666666573,1.0,24.08318915758459,2.0,3.0,7.0710678118654755,7.0,7.0710678118654755,12.165525060596439,9.219544457292887,9.0,6.0,8.0,0.0,5.0,1.0,2.0,1.0,2.0,2.0,5.0,3.0,7.0,53.150729063673246,53.08483775994799,52.03844732503075,49.01020301937138
56,7,441,1,14.714699999999851,13.152946437965905,112.21853679316978,10.0,17.029386365926403,29.068883707497267,33.06055050963308,27.16615541441225,67.26812023536856,50.24937810560445,43.5,41.0,34.0,10.5,29.5,10.5,3.5,12.0,12.041594578792296,12.0,31.0,38.0,33.06055050963308,259.77105304479176,260.62233212063774,256.43907658545334,241.29857024027308
57,7,442,0,14.74806666666652,8.0,114.0701538527936,9.055385138137417,18.027756377319946,30.01666203960727,33.015148038438355,27.073972741361768,62.12889826803627,44.10215414239989,40.0,37.0,33.0,8.0,27.0,7.0,1.0,13.0,13.038404810405298,12.5,33.0,36.0,37.0,265.228203628498,264.15336454416024,259.09457732650446,246.03251817595168
58,7,443,0,14.781433333333185,6.0,108.07404868885037,10.0,18.027756377319946,28.0178514522438,30.066592756745816,26.076809620810597,60.07495318350236,42.04759208325728,39.0,38.0,34.0,10.0,24.0,5.0,2.0,11.0,12.041594578792296,12.0,35.0,39.0,37.12142238654117,258.1937257177254,257.07002936943076,252.01785651020842,240.0
59,7,444,0,14.81479999999985,6.082762530298219,99.24716620639605,10.04987562112089,17.11724276862369,25.079872407968907,28.160255680657446,26.1725046566048,59.413803110051795,42.2965719651132,39.0,42.0,35.0,12.5,20.5,2.5,4.5,11.045361017187261,13.038404810405298,12.0,31.0,41.0,36.22154055254967,249.80192152983932,248.45321491178174,244.24782496472716,233.13729860320507
60,7,445,0,14.848166666666517,4.123105625617661,96.13012014972206,10.04987562112089,15.132745950421556,25.079872407968907,27.073972741361768,26.30589287593181,55.57877292636101,40.44749683231337,38.0,38.0,33.0,9.5,19.5,3.5,1.5,12.041594578792296,13.152946437965905,12.5,34.0,42.0,35.22782990761707,242.00206610688264,242.404620418011,239.1693960355296,227.00881040171106
61,7,446,0,14.881533333333184,4.47213595499958,93.13431161500041,10.04987562112089,16.1245154965971,25.079872407968907,27.073972741361768,27.459060435491963,57.87054518492115,41.773197148410844,39.0,39.0,34.0,9.5,20.5,3.5,1.5,13.0,14.035668847618199,13.5,35.0,43.0,37.21558813185679,241.82845159327303,240.29981273400944,237.0759372015642,225.00222221124838
62,7,447,0,14.914899999999848,4.123105625617661,94.19129471453293,10.04987562112089,14.142135623730951,26.076809620810597,27.018512172212592,28.442925306655784,56.71860364994893,42.579337712087536,40.0,41.0,35.0,10.0,18.0,3.0,3.0,11.045361017187261,12.041594578792296,11.5,34.0,43.0,38.3275357934736,241.19701490690136,239.47024867402632,234.10467744152402,221.0
63,7,448,0,14.948266666666514,7.280109889280518,93.1933474020544,11.045361017187261,15.132745950421556,26.076809620810597,27.073972741361768,26.30589287593181,59.682493245507096,44.553338819890925,40.5,42.0,36.0,13.0,20.0,4.0,4.0,13.0,13.152946437965905,13.0,34.0,44.0,38.3275357934736,234.33736364481018,235.54405108174564,232.17450333746814,221.0
64,7,449,0,14.98163333333318,9.219544457292887,93.1933474020544,11.045361017187261,16.0312195418814,27.018512172212592,29.068883707497267,27.16615541441225,63.387695966961914,47.38143096192854,42.5,42.0,36.0,12.0,24.0,7.0,3.0,12.0,12.165525060596439,12.0,34.0,44.0,38.3275357934736,231.04977818643323,230.2628932329306,228.00877176108818,217.05759604307792
65,7,450,0,15.014999999999846,15.033296378372908,93.1933474020544,9.055385138137417,15.132745950421556,25.079872407968907,27.073972741361768,29.614185789921695,68.73136110975832,53.600373133029585,45.5,45.0,39.0,13.0,26.0,10.0,6.0,14.035668847618199,14.035668847618199,13.5,34.0,45.0,40.311288741492746,226.1725005388586,226.3183598385248,225.01999911119012,214.03737991294884
66,7,451,0,15.048366666666512,7.0710678118654755,92.34717104492157,10.0,15.033296378372908,26.076809620810597,28.071337695236398,27.65863337187866,59.53990258641679,44.553338819890925,40.5,44.0,36.0,13.0,19.0,4.0,5.0,13.038404810405298,13.038404810405298,12.5,33.0,45.0,33.54101966249684,228.37250272307304,228.3703133071372,227.03523955544875,215.00930212434997
67,7,452,0,15.081733333333178,4.0,92.19544457292888,9.055385138137417,14.035668847618199,25.079872407968907,26.076809620810597,27.459060435491963,54.45181356024793,40.44749683231337,38.0,42.0,36.0,12.0,15.0,1.0,4.0,14.035668847618199,14.142135623730951,14.0,33.0,43.0,37.33630940518894,232.14219780126146,232.36393868240398,230.05434140654683,219.0091322296858
68,7,453,0,15.115099999999844,4.123105625617661,92.26592003551474,10.04987562112089,14.142135623730951,24.08318915758459,25.079872407968907,27.294688127912362,55.57877292636101,41.43669871020132,39.0,43.0,36.0,12.5,15.5,1.5,4.5,14.035668847618199,14.035668847618199,13.5,34.0,45.0,37.33630940518894,226.07299706068392,228.26519664635694,229.01964981197574,219.03652663425797
69,7,454,0,15.14846666666651,5.0990195135927845,94.33981132056604,8.06225774829855,12.041594578792296,25.079872407968907,27.16615541441225,30.4138126514911,55.57877292636101,43.56604182158393,40.5,45.0,37.0,11.0,14.0,2.0,5.0,14.035668847618199,14.035668847618199,14.0,33.0,44.0,38.3275357934736,226.27637967759694,228.3703133071372,229.05457864884517,218.0
70,7,455,0,15.181833333333175,4.123105625617661,92.34717104492157,8.06225774829855,12.041594578792296,25.179356624028344,26.1725046566048,30.265491900843113,54.45181356024793,42.42640687119285,40.0,45.0,37.0,11.0,13.0,1.0,5.0,14.0,14.035668847618199,13.5,31.0,41.0,40.311288741492746,228.1622229905731,230.31283073246266,229.01964981197574,218.02064122463267
71,7,456,0,15.21519999999984,5.385164807134504,91.44397191723465,9.055385138137417,12.041594578792296,24.08318915758459,26.1725046566048,30.265491900843113,56.568542494923804,44.553338819890925,41.5,47.0,38.0,12.5,13.5,1.5,6.5,15.033296378372908,15.132745950421556,15.0,31.0,41.0,38.47076812334269,228.1622229905731,227.3719419805355,226.05530296810116,216.0092590608097
72,7,457,0,15.248566666666507,3.1622776601683795,92.34717104492157,10.04987562112089,13.152946437965905,25.179356624028344,26.1725046566048,27.294688127912362,53.600373133029585,40.44749683231337,38.5,45.0,37.0,14.0,12.0,0.0,6.0,14.035668847618199,15.033296378372908,14.5,34.0,44.0,39.319206502675,226.79726629745784,228.1403077055872,227.0,217.14741536569116
73,7,458,0,15.281933333333171,11.0,94.19129471453293,8.06225774829855,10.198039027185569,24.08318915758459,24.08318915758459,29.614185789921695,58.69412236331676,48.507731342539614,42.5,44.0,38.0,12.0,17.0,6.0,6.0,14.035668847618199,15.033296378372908,15.0,34.0,44.0,35.510561809129406,229.78685776170926,228.1074308302998,228.00877176108818,218.14673960433146
74,7,459,0,15.31529999999984,10.04987562112089,93.34345183246653,9.055385138137417,11.180339887498949,25.079872407968907,26.1725046566048,29.614185789921695,59.841457201508724,48.662100242385755,43.0,47.0,39.0,14.0,16.0,5.0,7.0,15.033296378372908,14.142135623730951,14.5,33.0,43.0,34.52535300326414,226.63847863944022,227.1079038695043,225.00222221124838,215.11392330576837
75,7,460,0,15.348666666666505,4.123105625617661,93.43446901438462,9.055385138137417,12.041594578792296,25.079872407968907,25.179356624028344,30.59411708155671,55.731499172371095,43.73785545725808,41.0,47.0,38.0,12.5,12.5,0.5,5.5,14.035668847618199,14.035668847618199,13.5,33.0,45.0,36.345563690772494,225.80079716422614,227.17834403833479,227.00881040171106,215.02092921387907
76,7,461,0,15.38203333333317,4.0,93.43446901438462,9.055385138137417,12.165525060596439,24.186773244895647,24.186773244895647,30.59411708155671,55.731499172371095,43.56604182158393,41.0,48.0,39.0,13.5,11.5,0.5,6.5,15.033296378372908,16.0312195418814,16.0,32.0,43.0,37.21558813185679,225.28204544525957,226.37358503146962,225.055548698538,215.00930212434997
77,7,462,0,15.415399999999837,1.4142135623730951,92.34717104492157,9.219544457292887,10.04987562112089,24.186773244895647,25.179356624028344,29.427877939124322,49.8196748283246,39.81205847478876,38.5,47.0,39.0,14.0,6.0,3.0,7.0,15.033296378372908,14.035668847618199,14.0,32.0,43.0,34.52535300326414,224.18296099391677,225.31977276750482,225.055548698538,216.0208323287363
78,7,463,0,15.448766666666502,2.0,92.34717104492157,10.04987562112089,10.04987562112089,24.08318915758459,25.179356624028344,27.459060435491963,49.49747468305833,39.45883931389772,38.0,47.0,39.0,16.0,6.0,3.0,7.0,15.033296378372908,15.033296378372908,14.0,31.0,41.0,32.7566787083184,225.49944567559362,224.03571143904713,222.00900882621858,213.19005605327843
79,7,464,0,15.482133333333168,2.0,93.34345183246653,11.180339887498949,10.198039027185569,25.179356624028344,25.317977802344327,26.30589287593181,49.64876634922564,39.45883931389772,38.0,46.0,38.0,16.0,7.0,3.0,7.0,15.033296378372908,16.0312195418814,15.5,30.0,41.0,36.49657518178932,225.64130827488125,225.10886255321003,223.0022421411946,216.11339616044165
80,7,465,0,15.515499999999834,2.23606797749979,95.33624704172071,9.0,10.04987562112089,24.08318915758459,25.179356624028344,30.265491900843113,50.48762224545735,40.44749683231337,39.5,48.0,40.0,14.0,6.0,3.0,7.0,16.0312195418814,16.0,16.0,30.0,41.0,33.37663853655727,226.497240601293,227.03523955544875,226.03539545832197,216.27991122617004
81,7,466,0,15.5488666666665,1.0,92.43916918709297,9.055385138137417,10.04987562112089,22.090722034374522,23.194827009486403,30.265491900843113,50.35871324805669,40.311288741492746,39.5,49.0,40.0,14.5,5.5,3.5,6.5,15.132745950421556,15.033296378372908,14.5,30.0,41.0,38.3275357934736,224.72205054244233,226.17913254763357,226.00221237855172,216.05786262017867
82,7,467,0,15.582233333333166,3.0,93.43446901438462,8.06225774829855,10.198039027185569,23.08679276123039,24.186773244895647,30.265491900843113,51.478150704935004,41.30375285612676,39.5,49.0,40.0,14.5,6.5,2.5,7.5,16.0312195418814,15.0,15.5,31.0,42.0,37.8549864614954,226.43321311150447,226.03539545832197,227.01982292302142,217.27862297059966
83,7,468,0,15.615599999999832,2.0,92.43916918709297,8.06225774829855,10.04987562112089,24.186773244895647,25.179356624028344,30.4138126514911,50.48762224545735,40.44749683231337,39.0,48.0,39.0,13.5,6.5,2.5,7.5,14.142135623730951,15.033296378372908,14.5,30.0,40.0,36.345563690772494,224.32119828495925,225.03555274667156,224.0200883849482,216.14809737770074
84,7,469,0,15.648966666666498,1.4142135623730951,92.43916918709297,9.055385138137417,9.055385138137417,23.194827009486403,25.179356624028344,31.25699921617557,50.48762224545735,41.43669871020132,40.5,51.0,42.0,15.5,3.5,4.5,8.5,16.1245154965971,15.033296378372908,15.0,31.0,41.0,41.593268686170845,226.43321311150447,226.07963198837706,227.00220263248548,217.1128738697915
85,7,470,0,15.682333333333164,3.0,93.43446901438462,10.04987562112089,9.055385138137417,26.1725046566048,27.294688127912362,28.160255680657446,50.24937810560445,41.19465984809196,39.5,49.0,40.0,16.5,5.5,2.5,8.5,16.0312195418814,16.0312195418814,15.5,30.0,41.0,36.49657518178932,230.05434140654683,229.0349318335524,226.2211307548435,217.5890622251036
86,7,471,0,15.71569999999983,2.0,98.2496819333274,11.180339887498949,11.045361017187261,27.294688127912362,28.284271247461902,27.018512172212592,51.15662224971465,40.11234224026316,39.0,46.0,39.0,15.5,8.5,1.5,7.5,13.038404810405298,13.038404810405298,13.0,31.0,41.0,36.49657518178932,230.17601960239037,230.0021739027699,228.17756243767704,217.45114393812693
87,7,472,0,15.749066666666495,0.0,90.13878188659973,11.045361017187261,9.0,25.179356624028344,26.1725046566048,28.284271247461902,48.25971404805462,39.319206502675,39.0,47.0,42.0,16.5,3.5,5.5,8.5,14.142135623730951,15.033296378372908,15.0,31.0,41.0,35.35533905932738,225.10886255321003,227.00881040171106,227.14092541856036,220.44500447957535
88,7,473,0,15.78243333333316,0.0,91.26883367283708,9.055385138137417,8.06225774829855,23.08679276123039,24.08318915758459,29.068883707497267,46.17358552246078,38.118237105091836,38.0,47.0,40.0,14.5,2.5,5.5,7.5,15.132745950421556,15.033296378372908,15.0,31.0,41.0,41.30375285612676,230.4256930118688,231.07790893982056,231.00865784641059,222.14409737825582
89,7,474,0,15.815799999999829,1.0,88.20430828479978,10.198039027185569,9.055385138137417,24.08318915758459,24.08318915758459,28.071337695236398,46.2709412050371,37.21558813185679,37.5,47.0,41.0,16.0,2.0,7.0,8.0,14.035668847618199,15.033296378372908,15.0,30.0,40.0,42.42640687119285,228.49288829195538,229.0785891348207,230.0021739027699,222.11033294288674
90,7,475,0,15.849166666666491,1.0,98.2496819333274,9.055385138137417,9.055385138137417,26.076809620810597,26.1725046566048,27.073972741361768,45.27692569068709,36.22154055254967,36.0,46.0,39.0,15.5,2.5,6.5,8.5,16.1245154965971,16.0312195418814,16.0,29.0,42.0,39.20459156782532,228.49288829195538,228.1403077055872,229.0,222.11033294288674
91,7,476,0,15.88253333333316,1.0,91.19758768739445,9.055385138137417,9.0,22.090722034374522,23.194827009486403,29.427877939124322,47.265209192385896,38.3275357934736,38.0,46.0,40.0,14.0,4.0,4.0,7.0,15.033296378372908,15.0,15.0,29.0,39.0,42.2965719651132,228.17756243767704,229.0087334579186,228.0548179714693,220.27482833950864
92,7,477,0,15.915899999999825,2.23606797749979,94.33981132056604,9.055385138137417,10.04987562112089,24.186773244895647,24.331050121192877,29.274562336608895,50.24937810560445,40.19950248448356,39.0,49.0,41.0,16.0,5.0,4.0,9.0,13.038404810405298,14.035668847618199,14.0,29.0,41.0,40.44749683231337,225.5681715136247,228.07893370497854,229.00218339570478,222.11033294288674
93,7,478,0,15.94926666666649,2.23606797749979,90.35485598461214,10.0,11.045361017187261,24.186773244895647,25.179356624028344,30.265491900843113,53.150729063673246,42.1070065428546,41.0,50.0,42.0,16.0,7.0,3.0,9.0,13.038404810405298,15.033296378372908,14.0,30.0,39.0,36.49657518178932,228.1403077055872,231.00865784641059,232.17450333746814,223.503914954526
94,7,479,0,15.982633333333157,5.0990195135927845,92.43916918709297,11.045361017187261,13.038404810405298,24.186773244895647,25.179356624028344,28.160255680657446,57.14017850864661,44.10215414239989,41.5,52.0,43.0,19.5,9.5,1.5,10.5,14.035668847618199,14.0,14.0,28.0,39.0,38.63935817272331,231.21634890292685,233.00214591286493,231.10603626906848,222.44100341438852
95,7,480,0,16.015999999999824,5.0,91.54780172128658,10.0,11.045361017187261,22.20360331117452,23.194827009486403,28.160255680657446,54.147945482723536,43.104524124504614,40.5,51.0,41.0,18.0,8.0,2.0,10.0,14.035668847618199,14.035668847618199,14.0,29.0,39.0,38.63935817272331,223.27113561766106,228.00877176108818,229.05457864884517,221.18318200080222
96,7,481,0,16.04936666666649,2.23606797749979,89.1403387922662,10.04987562112089,12.0,24.08318915758459,25.079872407968907,28.160255680657446,52.08646657242167,40.11234224026316,39.0,46.0,41.0,15.5,8.5,2.5,7.5,12.165525060596439,13.038404810405298,13.0,29.0,38.0,36.49657518178932,215.00232556881798,220.18401395196702,222.64994947226015,217.1174797200815
97,7,482,0,16.082733333333156,3.1622776601683795,95.02105029939419,12.041594578792296,11.0,25.019992006393608,26.019223662515376,24.515301344262525,50.24937810560445,39.319206502675,37.5,44.0,42.0,19.0,7.0,4.0,8.0,10.0,11.0,11.0,29.0,35.0,39.319206502675,222.27235545609355,225.00222221124838,226.2211307548435,220.7351353998724
98,7,483,0,16.116099999999822,3.1622776601683795,93.53608929178085,9.0,10.04987562112089,23.194827009486403,23.194827009486403,29.274562336608895,51.35172830587107,41.30375285612676,39.5,52.0,42.0,18.0,4.0,4.0,11.0,13.038404810405298,14.0,13.5,27.0,39.0,39.6232255123179,224.43707358633955,228.0350850198276,229.01964981197574,224.1807306616695
99,7,484,0,16.149466666666488,2.8284271247461903,91.08786966440702,9.055385138137417,9.055385138137417,23.08679276123039,24.020824298928627,28.284271247461902,48.16637831516918,39.11521443121589,38.0,45.0,41.0,15.0,5.0,4.0,8.0,13.0,15.033296378372908,14.0,28.0,38.0,39.319206502675,227.07928130941406,230.05434140654683,229.36869882353173,223.80795338861395
100,7,485,0,16.182833333333154,2.23606797749979,96.0,10.0,11.045361017187261,26.0,26.0,25.96150997149434,44.28317965096906,33.54101966249684,34.0,42.0,42.0,17.0,2.0,9.0,7.0,10.0,12.0,11.5,29.0,34.0,41.30375285612676,233.05364189387817,236.10379073619296,235.61409125941512,228.1622229905731
101,7,486,0,16.21619999999982,2.0,92.26592003551474,9.055385138137417,8.06225774829855,23.194827009486403,24.08318915758459,29.068883707497267,44.181444068749045,36.124783736376884,37.0,47.0,40.0,14.5,0.5,6.5,7.5,14.035668847618199,14.035668847618199,14.0,26.0,38.0,38.47076812334269,222.32408776378685,225.00888871331284,225.10886255321003,219.3855054464629
102,7,487,0,16.249566666666485,2.0,91.35097153287424,10.04987562112089,9.055385138137417,23.194827009486403,23.08679276123039,30.066592756745816,47.16990566028302,38.118237105091836,39.0,48.0,40.0,14.0,3.0,5.0,7.0,13.038404810405298,14.035668847618199,13.5,27.0,39.0,40.607881008493905,232.36393868240398,232.0538730553748,231.01947969814148,225.17992805754247
103,7,488,0,16.28293333333315,1.0,88.56635930193812,9.055385138137417,10.198039027185569,22.360679774997898,23.194827009486403,29.274562336608895,48.373546489791295,38.2099463490856,38.0,48.0,38.0,14.0,5.0,4.0,8.0,13.038404810405298,13.038404810405298,13.0,28.0,39.0,43.73785545725808,234.03418553707064,235.01914815605983,235.10423220350586,229.31419493786248
104,7,489,0,16.316299999999817,1.4142135623730951,90.19977827023745,11.180339887498949,10.04987562112089,24.186773244895647,25.179356624028344,26.1725046566048,48.25971404805462,38.2099463490856,37.5,45.0,39.0,16.0,6.0,4.0,8.0,11.180339887498949,13.0,12.5,28.0,38.0,42.42640687119285,230.2628932329306,231.00865784641059,230.07824755939012,225.31977276750482
105,7,490,0,16.349666666666483,1.0,90.27181176868004,10.198039027185569,10.04987562112089,22.20360331117452,23.08679276123039,28.284271247461902,47.51841748206689,37.48332962798263,37.5,45.0,38.0,13.5,5.5,3.5,6.5,13.038404810405298,15.033296378372908,14.5,27.0,38.0,44.553338819890925,227.07928130941406,229.00218339570478,230.07824755939012,223.1815404552984
106,7,491,0,16.38303333333315,0.0,95.524865872714,11.180339887498949,9.055385138137417,26.1725046566048,26.1725046566048,27.294688127912362,47.51841748206689,38.47076812334269,38.0,48.0,38.0,16.0,4.0,4.0,8.0,14.035668847618199,14.0,14.5,28.0,40.0,45.27692569068709,227.56317804073663,229.10696191953662,228.00877176108818,222.03603311174518
107,7,492,0,16.416399999999815,2.0,92.26592003551474,11.045361017187261,9.055385138137417,23.194827009486403,24.186773244895647,27.294688127912362,49.36598018878993,40.311288741492746,39.0,47.0,40.0,16.5,5.5,3.5,7.5,14.142135623730951,14.035668847618199,14.0,30.0,40.0,40.607881008493905,231.26175645791503,231.03462943896528,230.00869548780108,222.14409737825582
108,7,493,0,16.44976666666648,1.0,94.53041838477179,9.219544457292887,8.06225774829855,24.186773244895647,24.186773244895647,27.294688127912362,44.721359549995796,36.6742416417845,36.0,47.0,37.0,15.0,2.0,5.0,8.0,14.035668847618199,14.035668847618199,14.0,30.0,41.0,38.2099463490856,229.63013739489858,229.21823662178366,229.05457864884517,222.00225224082752
109,7,494,0,16.483133333333146,1.4142135623730951,97.41663102366043,11.045361017187261,9.055385138137417,25.079872407968907,26.30589287593181,25.495097567963924,46.69047011971501,37.656340767525464,36.5,45.0,36.0,15.5,5.5,2.5,6.5,14.035668847618199,15.0,15.0,29.0,41.0,42.2965719651132,229.55827146935917,230.13908837917995,229.0087334579186,220.00227271553356
110,7,495,0,16.516499999999812,2.23606797749979,93.43446901438462,11.045361017187261,11.045361017187261,25.179356624028344,26.1725046566048,25.495097567963924,49.64876634922564,38.63935817272331,37.0,48.0,39.0,18.5,5.5,4.5,9.5,13.152946437965905,13.0,13.0,30.0,40.0,33.24154027718932,231.70023737579555,228.21919288263203,227.01982292302142,218.00917411888886
111,7,496,0,16.549866666666478,1.4142135623730951,94.42986815621421,10.04987562112089,10.04987562112089,26.076809620810597,26.1725046566048,27.459060435491963,48.662100242385755,38.63935817272331,37.5,46.0,37.0,14.5,6.5,3.5,6.5,13.152946437965905,13.0,13.0,30.0,42.0,32.38826948140329,229.87170334775874,229.2640399190418,227.03523955544875,218.0022935659164
112,7,497,0,16.583233333333144,4.123105625617661,96.42095207992918,10.04987562112089,10.198039027185569,28.160255680657446,29.274562336608895,25.709920264364882,50.00999900019995,39.81205847478876,37.0,45.0,36.0,15.5,8.5,0.5,7.5,15.033296378372908,14.035668847618199,13.5,32.0,43.0,33.54101966249684,226.79726629745784,226.2211307548435,224.0089283934906,215.03720608304042
113,7,498,0,16.61659999999981,3.1622776601683795,95.42536350467836,8.06225774829855,11.045361017187261,24.08318915758459,25.179356624028344,28.635642126552707,50.80354318352215,39.81205847478876,37.5,44.0,35.0,11.5,10.5,0.5,5.5,16.0,15.132745950421556,15.0,33.0,44.0,38.3275357934736,228.06358762415363,228.49288829195538,228.21919288263203,217.03686322834653
114,7,499,0,16.649966666666476,3.1622776601683795,100.24470060806208,10.198039027185569,11.180339887498949,28.071337695236398,29.068883707497267,25.317977802344327,49.8196748283246,38.63935817272331,36.5,41.0,34.0,12.5,11.5,0.5,4.5,13.038404810405298,13.038404810405298,13.0,32.0,44.0,34.23448553724738,226.1725005388586,224.50167037240502,222.14409737825582,216.00231480241132
115,7,500,0,16.68333333333314,5.385164807134504,98.2496819333274,10.04987562112089,13.038404810405298,27.073972741361768,28.0178514522438,22.561028345356956,50.80354318352215,37.8549864614954,34.5,40.0,33.0,14.5,13.5,0.5,6.5,13.038404810405298,13.0,12.5,33.0,43.0,31.400636936215164,234.94041797868667,232.26062946612367,229.0349318335524,219.02054698132775
116,7,501,0,16.716699999999808,3.1622776601683795,98.12746812182611,10.04987562112089,13.152946437965905,27.073972741361768,28.0178514522438,23.53720459187964,49.8196748283246,36.6742416417845,34.5,36.0,31.0,10.5,15.5,2.5,2.5,13.038404810405298,13.038404810405298,12.5,34.0,44.0,32.2490309931942,231.95258136093247,230.4256930118688,228.07893370497854,218.0022935659164
117,7,502,0,16.750066666666473,2.23606797749979,96.08329719571451,8.06225774829855,12.165525060596439,26.019223662515376,27.018512172212592,26.30589287593181,48.662100242385755,36.49657518178932,35.0,35.0,31.0,7.0,15.0,1.0,1.0,13.0,13.038404810405298,13.0,33.0,43.0,34.23448553724738,232.7767170487633,232.26062946612367,228.01973598791838,219.02054698132775
118,7,503,0,16.78343333333314,2.23606797749979,95.13148795220224,11.045361017187261,14.035668847618199,27.018512172212592,28.0178514522438,21.37755832643195,48.507731342539614,34.52535300326414,33.0,34.0,29.0,10.5,16.5,1.5,1.5,14.035668847618199,15.132745950421556,14.5,34.0,45.0,35.35533905932738,231.8641843838759,230.3670983452281,228.07893370497854,218.00917411888886
119,7,504,0,16.816799999999805,1.4142135623730951,95.13148795220224,10.0,13.038404810405298,27.018512172212592,29.068883707497267,22.561028345356956,46.52956049652737,33.54101966249684,32.5,34.0,29.0,9.5,14.5,0.5,1.5,14.0,14.142135623730951,14.0,35.0,44.0,35.22782990761707,232.94849216082082,229.31419493786248,225.07998578283232,216.00231480241132
120,7,505,0,16.85016666666647,1.4142135623730951,93.13431161500041,10.04987562112089,14.035668847618199,29.068883707497267,30.01666203960727,23.194827009486403,48.373546489791295,34.36568055487916,33.5,33.0,28.0,7.5,17.5,1.5,0.5,15.0,14.142135623730951,14.0,36.0,44.0,38.2099463490856,234.94041797868667,230.3670983452281,226.10838109190027,216.0092590608097
121,7,506,0,16.883533333333137,1.0,89.20201791439474,12.041594578792296,15.033296378372908,27.073972741361768,28.071337695236398,21.37755832643195,48.507731342539614,33.54101966249684,33.0,35.0,29.0,11.0,16.0,1.0,2.0,15.0,15.132745950421556,14.5,35.0,45.0,37.33630940518894,231.78006816808042,231.36551169091732,227.1079038695043,217.00230413523263
122,7,507,0,16.916899999999803,1.0,94.19129471453293,12.041594578792296,16.0312195418814,28.071337695236398,29.068883707497267,22.20360331117452,50.35871324805669,34.36568055487916,34.0,35.0,29.0,10.0,18.0,1.0,1.0,16.0,15.132745950421556,15.0,35.0,44.0,34.36568055487916,229.0589443789524,226.37358503146962,223.10983842045155,212.00235847744713
123,7,508,0,16.95026666666647,1.0,94.13288479590966,11.045361017187261,15.033296378372908,28.0178514522438,30.01666203960727,22.360679774997898,49.36598018878993,34.36568055487916,33.5,34.0,29.0,9.5,17.5,1.5,1.5,15.0,16.1245154965971,15.0,35.0,44.0,37.21558813185679,231.14713928578047,227.43130831088317,223.14345161801185,213.0211257129208
124,7,509,0,16.983633333333135,1.0,90.13878188659973,11.045361017187261,14.142135623730951,27.073972741361768,28.0178514522438,23.194827009486403,48.507731342539614,34.36568055487916,34.0,36.0,31.0,10.5,14.5,0.5,2.5,15.033296378372908,15.132745950421556,15.0,34.0,44.0,36.345563690772494,233.6193485137736,230.17601960239037,226.05530296810116,216.00231480241132
125,7,510,0,17.0169999999998,5.0,93.04837451562494,11.180339887498949,16.1245154965971,27.018512172212592,29.017236257093817,19.235384061671343,51.478150704935004,35.35533905932738,32.5,34.0,31.0,13.5,18.5,1.5,4.5,13.0,14.142135623730951,13.5,35.0,44.0,36.345563690772494,235.54405108174564,234.21357774475842,231.05410621756974,219.00228309312212
126,7,511,0,17.050366666666466,4.47213595499958,96.13012014972206,8.0,11.045361017187261,27.018512172212592,28.0178514522438,24.331050121192877,47.51841748206689,36.49657518178932,34.0,34.0,29.0,7.5,15.5,3.5,1.5,16.0,15.132745950421556,15.0,35.0,44.0,30.4138126514911,229.87170334775874,229.2640399190418,226.05530296810116,216.00231480241132
127,7,512,0,17.083733333333132,2.8284271247461903,94.19129471453293,10.0,15.033296378372908,27.018512172212592,27.018512172212592,24.331050121192877,51.478150704935004,36.49657518178932,35.0,37.0,31.0,10.0,17.0,1.0,2.0,14.035668847618199,14.035668847618199,14.0,35.0,45.0,33.24154027718932,228.96506283710622,228.3703133071372,226.07963198837706,217.00230413523263
128,7,513,0,17.117099999999798,2.23606797749979,95.13148795220224,10.04987562112089,15.033296378372908,27.018512172212592,28.0178514522438,24.331050121192877,51.478150704935004,36.49657518178932,35.0,37.0,32.0,10.5,16.5,0.5,2.5,13.0,13.038404810405298,13.0,36.0,45.0,34.23448553724738,229.87170334775874,230.31283073246266,226.05530296810116,216.00231480241132
129,7,514,0,17.150466666666464,6.324555320336759,92.19544457292888,10.0,14.142135623730951,25.019992006393608,26.076809620810597,26.30589287593181,56.568542494923804,42.42640687119285,39.0,40.0,34.0,11.0,19.0,4.0,3.0,14.0,14.035668847618199,14.0,37.0,46.0,35.22782990761707,232.86047324524614,232.26062946612367,229.0349318335524,219.02054698132775
130,7,515,0,17.18383333333313,7.0710678118654755,93.13431161500041,9.055385138137417,14.035668847618199,26.019223662515376,27.018512172212592,26.30589287593181,56.43580423808985,42.42640687119285,38.5,39.0,34.0,10.5,19.5,5.5,2.5,14.035668847618199,13.038404810405298,13.5,37.0,45.0,36.22154055254967,228.56071403458645,229.10696191953662,227.0,216.08331726442927
131,7,516,0,17.217199999999796,2.23606797749979,89.1403387922662,10.04987562112089,14.035668847618199,26.019223662515376,27.073972741361768,26.076809620810597,52.23983154643591,38.2099463490856,37.0,39.0,34.0,10.5,15.5,0.5,2.5,15.033296378372908,14.142135623730951,14.0,37.0,45.0,33.37663853655727,232.6972281742952,231.21634890292685,227.01982292302142,216.03703386225243
132,7,517,0,17.25056666666646,1.0,90.08884503644167,11.045361017187261,14.035668847618199,25.019992006393608,27.018512172212592,25.179356624028344,50.35871324805669,36.345563690772494,36.0,38.0,34.0,11.0,14.0,1.0,2.0,14.0,14.035668847618199,14.0,37.0,45.0,35.35533905932738,228.49288829195538,229.13969538253298,226.00221237855172,218.05733191066977
133,7,518,0,17.283933333333128,1.4142135623730951,89.08984229416954,10.04987562112089,13.038404810405298,25.019992006393608,26.019223662515376,25.079872407968907,49.25444142409901,36.22154055254967,35.5,38.0,34.0,11.0,13.0,1.0,3.0,15.0,15.033296378372908,15.5,35.0,43.0,36.124783736376884,230.70327262524907,230.17601960239037,227.00220263248548,216.03703386225243
134,7,519,0,17.317299999999793,1.0,87.09190547921202,10.0,11.045361017187261,25.019992006393608,25.019992006393608,25.317977802344327,46.389654018972806,35.35533905932738,35.0,38.0,34.0,11.0,10.0,2.0,3.0,14.035668847618199,13.038404810405298,13.5,35.0,43.0,37.12142238654117,230.62740513651016,229.13969538253298,227.00220263248548,216.08331726442927
135,7,520,0,17.35066666666646,1.4142135623730951,90.0222194794152,10.0,11.045361017187261,26.019223662515376,26.019223662515376,24.186773244895647,44.28317965096906,33.24154027718932,33.5,36.0,34.0,11.0,9.0,3.0,3.0,14.0,14.035668847618199,13.5,37.0,44.0,37.12142238654117,228.63289352147035,228.17756243767704,227.00881040171106,216.03703386225243
136,7,521,0,17.384033333333125,1.4142135623730951,93.02150289046077,12.041594578792296,12.0,27.0,27.0,20.223748416156685,43.289721643826724,31.400636936215164,31.5,35.0,33.0,14.0,9.0,4.0,3.0,14.0,13.038404810405298,13.0,37.0,45.0,35.22782990761707,227.56317804073663,227.14092541856036,226.00221237855172,217.05759604307792
137,7,522,0,17.41739999999979,1.4142135623730951,92.02173656261873,11.0,11.045361017187261,27.0,27.0,21.213203435596427,42.2965719651132,31.25699921617557,31.5,35.0,33.0,13.0,8.0,4.0,3.0,14.0,14.0,14.0,36.0,43.0,37.21558813185679,227.56317804073663,227.14092541856036,225.0,215.03720608304042
138,7,523,0,17.450766666666457,1.0,90.08884503644167,10.04987562112089,11.045361017187261,25.0,27.018512172212592,25.079872407968907,46.2709412050371,35.22782990761707,35.0,39.0,35.0,12.0,9.0,3.0,3.0,14.0,13.038404810405298,13.0,35.0,43.0,35.22782990761707,231.70023737579555,230.17601960239037,227.00881040171106,218.05733191066977
139,7,524,0,17.484133333333123,2.23606797749979,91.08786966440702,11.045361017187261,15.033296378372908,26.019223662515376,27.018512172212592,24.186773244895647,52.3450093132096,37.33630940518894,36.0,39.0,35.0,13.0,15.0,1.0,3.0,14.0,14.035668847618199,14.0,36.0,45.0,35.35533905932738,227.71253808255707,229.17678765529462,227.00220263248548,219.0570701894828
140,7,525,0,17.51749999999979,3.1622776601683795,94.04786015641186,11.045361017187261,15.0,28.0178514522438,29.017236257093817,24.186773244895647,53.23532661682466,38.3275357934736,36.5,40.0,37.0,14.5,14.5,1.5,4.5,13.0,13.038404810405298,13.0,36.0,44.0,36.22154055254967,229.63013739489858,229.17678765529462,226.0,218.11235636707977
141,7,526,0,17.550866666666455,1.4142135623730951,94.04786015641186,12.0,14.035668847618199,27.018512172212592,27.0,23.345235059857504,50.35871324805669,36.345563690772494,35.5,38.0,35.0,13.5,13.5,1.5,3.5,13.0,13.038404810405298,13.5,35.0,44.0,33.37663853655727,228.79029699705362,228.17756243767704,225.00888871331284,217.0829334609241
142,7,527,0,17.58423333333312,1.4142135623730951,91.02197536858887,11.045361017187261,12.0,25.019992006393608,26.019223662515376,22.20360331117452,46.2709412050371,34.36568055487916,33.5,37.0,35.0,14.0,10.0,3.0,4.0,11.0,11.0,11.0,34.0,40.0,33.24154027718932,232.42202993692314,229.05457864884517,225.00888871331284,217.1128738697915
143,7,528,0,17.617599999999786,2.0,89.05054744357274,10.0,11.045361017187261,25.079872407968907,25.019992006393608,23.194827009486403,44.40720662234904,33.37663853655727,33.0,38.0,35.0,13.5,7.5,4.5,5.5,14.0,14.0,14.0,35.0,43.0,37.21558813185679,226.79726629745784,227.2201575564985,228.0548179714693,219.0091322296858
144,7,529,0,17.650966666666452,1.0,91.08786966440702,12.041594578792296,11.045361017187261,26.019223662515376,27.073972741361768,21.095023109728988,43.18564576337837,32.14031735997639,32.5,38.0,34.0,15.0,7.0,5.0,5.0,13.0,14.035668847618199,14.0,36.0,42.0,35.12833614050059,231.3114783144148,230.0347799790284,227.03523955544875,219.22819161777528
145,7,530,0,17.684333333333118,1.0,89.05054744357274,12.041594578792296,12.041594578792296,26.019223662515376,28.0178514522438,21.095023109728988,46.17358552246078,34.132096331752024,33.5,38.0,35.0,15.5,9.5,3.5,5.5,13.0,14.035668847618199,14.0,35.0,42.0,33.24154027718932,226.497240601293,226.07963198837706,223.0,214.05840324546944
146,7,531,0,17.717699999999784,1.0,87.02298546935747,12.041594578792296,13.038404810405298,25.019992006393608,26.019223662515376,23.08679276123039,49.16299421312742,36.124783736376884,35.5,39.0,37.0,15.0,11.0,3.0,5.0,13.0,13.038404810405298,13.0,36.0,42.0,39.11521443121589,229.36869882353173,228.07893370497854,225.00222221124838,215.08370463612533
147,7,532,0,17.75106666666645,3.1622776601683795,90.08884503644167,11.0,13.038404810405298,26.076809620810597,26.019223662515376,25.019992006393608,52.08646657242167,39.05124837953327,37.5,40.0,36.0,13.0,14.0,0.0,4.0,14.0,14.035668847618199,14.0,37.0,42.0,37.21558813185679,233.42022191746798,232.17450333746814,228.0350850198276,216.0
148,7,533,0,17.784433333333116,3.605551275463989,92.04890004774636,10.0,14.035668847618199,26.019223662515376,27.018512172212592,27.073972741361768,54.230987451824994,40.19950248448356,38.5,40.0,37.0,11.5,15.5,0.5,3.5,15.0,14.035668847618199,14.0,36.0,41.0,38.118237105091836,231.26175645791503,229.10696191953662,224.0200883849482,214.0023364358436
149,7,534,0,17.81779999999978,3.605551275463989,95.04735661763561,10.0,15.033296378372908,25.019992006393608,26.019223662515376,27.073972741361768,55.226805085936306,40.19950248448356,38.5,40.0,37.0,11.5,16.5,0.5,2.5,15.0,15.033296378372908,15.0,38.0,42.0,38.2099463490856,231.36551169091732,232.1055794245369,229.0087334579186,219.0091322296858
150,7,535,0,17.851166666666447,5.0990195135927845,96.04686356149273,10.04987562112089,16.0312195418814,27.018512172212592,29.017236257093817,27.018512172212592,58.137767414994535,42.1070065428546,39.5,40.0,37.0,11.5,19.5,2.5,3.5,15.0,15.033296378372908,14.5,38.0,41.0,38.05259518088089,230.17601960239037,229.0785891348207,225.01999911119012,216.0092590608097
151,7,536,0,17.884533333333113,3.1622776601683795,97.04638066409278,11.0,14.035668847618199,27.018512172212592,28.0178514522438,27.018512172212592,55.08175741568164,41.048751503547585,39.5,41.0,38.0,12.5,15.5,1.5,3.5,15.0,15.033296378372908,14.5,38.0,40.0,40.049968789001575,230.05434140654683,230.0195643852931,226.00884938426637,215.0
152,7,537,0,17.91789999999978,2.23606797749979,98.08159868191383,10.0,12.041594578792296,27.018512172212592,27.073972741361768,27.018512172212592,51.088159097779204,39.05124837953327,38.0,39.0,35.0,10.0,14.0,2.0,1.0,15.033296378372908,15.033296378372908,15.0,38.0,40.0,40.01249804748511,228.1074308302998,226.07963198837706,221.05655384991417,212.05895406702354
153,7,538,0,17.951266666666445,4.0,94.00531899844816,9.0,12.041594578792296,26.019223662515376,26.076809620810597,27.0,52.009614495783374,40.0,38.0,37.0,36.0,9.5,15.5,3.5,2.5,16.0,16.0,15.5,40.0,39.0,39.05124837953327,227.03523955544875,225.055548698538,219.0821763631172,209.11719202399405
154,7,539,0,17.98463333333311,10.0,93.02150289046077,9.0,11.045361017187261,26.019223662515376,27.073972741361768,22.02271554554524,52.03844732503075,41.012193308819754,36.0,37.0,35.0,14.0,16.0,4.0,6.0,16.0312195418814,15.0,15.0,40.0,39.0,34.058772731852805,237.03375287076733,235.07658326596462,230.10649708341572,218.1857007230309
155,7,540,0,18.017999999999777,2.0,98.0,9.055385138137417,10.04987562112089,28.0,29.0,27.0,48.041648597857254,38.01315561749642,37.0,46.0,46.0,19.0,2.0,9.0,11.0,12.0,12.0,12.0,34.0,34.0,34.058772731852805,243.0740627874558,242.0743687382041,242.0743687382041,239.0334704596827
156,7,541,0,18.051366666666443,11.045361017187261,113.01769772916099,10.0,11.045361017187261,34.0147027033899,34.0147027033899,39.05124837953327,49.16299421312742,38.118237105091836,43.5,57.0,55.0,17.0,7.0,18.0,9.0,13.038404810405298,13.0,12.5,32.0,30.0,30.0,245.03265088555034,247.0323865407125,249.0020080240318,251.00796800101784
157,7,542,0,18.08473333333311,6.082762530298219,101.1236866416568,9.0,10.0,26.019223662515376,28.0178514522438,23.021728866442675,48.041648597857254,38.05259518088089,35.0,34.0,29.0,8.5,16.5,6.5,1.5,14.035668847618199,14.035668847618199,14.0,42.0,40.0,38.05259518088089,241.0020746798666,241.0020746798666,237.00843866833097,227.05505940189926
158,7,543,0,18.11809999999977,0.0,103.1746092796091,13.0,13.0,33.06055050963308,32.14031735997639,36.22154055254967,62.12889826803627,49.16299421312742,49.0,61.0,67.0,28.0,2.0,17.0,15.0,13.0,13.038404810405298,13.0,34.0,32.0,32.0,247.12952069714376,247.07286374670934,245.03265088555034,244.00204917172314
159,7,544,0,18.15146666666644,3.1622776601683795,84.0535543567314,9.0,10.04987562112089,24.0,25.0,23.08679276123039,45.17742799230607,35.12833614050059,33.5,33.0,36.0,11.5,10.5,0.5,3.5,15.132745950421556,13.0,13.5,43.0,39.0,39.0,237.30360300678117,234.2584043316269,229.10696191953662,218.03669415949233
160,7,545,0,18.184833333333103,2.0,96.04686356149273,9.055385138137417,8.246211251235321,28.0178514522438,28.0178514522438,23.021728866442675,42.190046219457976,34.058772731852805,33.0,32.0,35.0,10.5,8.5,0.5,2.5,14.035668847618199,13.0,13.5,41.0,38.0,38.01315561749642,237.21087664776252,235.1361307838504,230.05434140654683,220.02045359466015
161,7,546,0,18.21819999999977,2.23606797749979,92.0869154657707,10.0,11.045361017187261,26.019223662515376,27.018512172212592,27.16615541441225,46.2709412050371,35.22782990761707,36.0,33.0,37.0,8.0,11.0,2.0,1.0,14.142135623730951,15.0,14.5,39.0,35.0,40.049968789001575,230.13908837917995,228.1074308302998,223.0201784592596,213.0211257129208
162,7,547,0,18.25156666666644,1.0,95.04735661763561,11.0,13.038404810405298,28.0178514522438,28.0178514522438,25.079872407968907,49.16299421312742,36.124783736376884,36.0,35.0,38.0,11.5,12.5,2.5,1.5,14.035668847618199,14.035668847618199,14.0,40.0,36.0,37.0,232.17450333746814,230.21728866442677,226.17913254763357,217.14741536569116
163,7,548,0,18.284933333333104,2.23606797749979,94.04786015641186,11.045361017187261,14.035668847618199,28.0178514522438,29.0,26.1725046566048,53.33854141237835,39.319206502675,38.0,36.0,39.0,11.5,15.5,0.5,1.5,13.038404810405298,14.0,13.5,41.0,37.0,38.05259518088089,234.30749027719963,234.2584043316269,229.2640399190418,217.23029254687293
164,7,549,0,18.31829999999977,5.0,96.04686356149273,9.055385138137417,13.038404810405298,28.0178514522438,29.017236257093817,26.1725046566048,53.23532661682466,40.19950248448356,37.5,36.0,39.0,11.5,15.5,1.5,2.5,14.035668847618199,14.0,14.5,42.0,37.0,39.0,233.25951213187426,232.31013753170566,227.3719419805355,217.33154395991392
165,7,550,0,18.35166666666644,5.0,97.04638066409278,9.055385138137417,13.038404810405298,28.0178514522438,29.017236257093817,27.073972741361768,54.147945482723536,41.10960958218893,38.5,35.0,38.0,9.5,17.5,3.5,1.5,14.142135623730951,14.0,14.0,42.0,37.0,37.013511046643494,235.2126697267815,235.25730594393875,231.26175645791503,220.22715545545242
166,7,551,0,18.3850333333331,7.0710678118654755,96.13012014972206,9.0,11.045361017187261,30.0,30.01666203960727,28.284271247461902,55.326304774492215,44.28317965096906,40.5,36.0,41.0,10.5,16.5,3.5,3.5,14.035668847618199,15.0,15.0,39.0,35.0,37.0,231.1384866265244,228.1403077055872,222.14409737825582,213.08449028495716
167,7,552,0,18.418399999999767,2.23606797749979,96.04686356149273,10.04987562112089,13.038404810405298,29.017236257093817,30.0,26.1725046566048,51.35172830587107,38.3275357934736,37.0,36.0,39.0,11.5,13.5,0.5,2.5,15.033296378372908,15.0,14.5,41.0,36.0,42.04759208325728,233.173754955398,231.21634890292685,224.22310318073826,215.18828964420902
168,7,553,0,18.45176666666644,1.4142135623730951,98.12746812182611,11.045361017187261,14.035668847618199,29.068883707497267,30.01666203960727,26.076809620810597,52.23983154643591,38.2099463490856,37.5,36.0,41.0,12.5,13.5,2.5,1.5,15.132745950421556,15.033296378372908,15.5,38.0,33.0,39.01281840626232,231.21634890292685,229.31419493786248,224.37691503361035,214.3361845326169
169,7,554,0,18.4851333333331,9.0,95.04735661763561,11.045361017187261,13.038404810405298,29.0,30.0,22.090722034374522,55.14526271584895,42.1070065428546,37.5,36.0,39.0,15.5,17.5,2.5,5.5,15.033296378372908,14.0,14.0,42.0,37.0,39.0,235.35929979501554,232.26062946612367,226.2211307548435,215.23243250030885
170,7,555,0,18.518499999999765,3.0,96.04686356149273,9.055385138137417,10.04987562112089,29.017236257093817,29.017236257093817,27.073972741361768,49.16299421312742,39.11521443121589,37.5,36.0,39.0,10.5,11.5,0.5,2.5,14.035668847618199,14.0,14.0,38.0,34.0,41.012193308819754,235.1361307838504,232.13789005675054,227.14092541856036,218.11235636707977
171,7,556,0,18.55186666666643,6.0,97.02061636580135,10.04987562112089,13.038404810405298,30.01666203960727,31.0,25.019992006393608,54.08326913195984,41.048751503547585,38.0,35.0,37.0,11.0,18.0,3.0,2.0,13.038404810405298,14.035668847618199,14.0,42.0,37.0,41.012193308819754,234.2584043316269,234.3608329051593,230.31283073246266,221.32555207205516
172,7,557,0,18.585233333333097,7.0710678118654755,98.08159868191383,9.055385138137417,12.041594578792296,30.01666203960727,31.016124838541646,27.16615541441225,55.326304774492215,43.289721643826724,39.5,36.0,40.0,11.0,17.0,3.0,3.0,15.0,15.0,15.0,42.0,36.0,38.0,234.3608329051593,233.36237914453991,229.42754847663784,219.3855054464629
173,7,558,0,18.618599999999763,13.038404810405298,98.08159868191383,9.055385138137417,12.041594578792296,28.0178514522438,30.0,27.073972741361768,61.204574992397426,49.16299421312742,42.5,35.0,39.0,10.0,24.0,10.0,2.0,16.0312195418814,16.0312195418814,15.5,43.0,37.0,38.0,239.60383970212163,237.60892239139505,232.62201099638014,222.5758297749331
174,7,559,0,18.65196666666643,10.198039027185569,98.12746812182611,8.0,11.045361017187261,27.018512172212592,29.0,28.160255680657446,57.3149195236284,46.2709412050371,41.0,35.0,40.0,9.5,19.5,7.5,2.5,15.033296378372908,15.033296378372908,14.5,41.0,36.0,39.0,234.30749027719963,234.3608329051593,230.4256930118688,219.44703233354514
175,7,560,0,18.68533333333309,2.0,96.18731725128839,11.0,12.165525060596439,27.018512172212592,28.0178514522438,24.08318915758459,49.16299421312742,37.05401462729781,36.0,33.0,39.0,12.0,13.0,0.0,1.0,15.033296378372908,15.0,14.5,41.0,37.0,39.01281840626232,234.4184293096428,234.48027635602958,229.55827146935917,219.5130975591206
176,7,561,0,18.71869999999976,3.0,97.12878049270464,9.055385138137417,10.04987562112089,28.0178514522438,28.071337695236398,24.08318915758459,46.17358552246078,36.124783736376884,34.5,34.0,39.0,12.5,9.5,1.5,3.5,15.033296378372908,15.033296378372908,15.0,43.0,39.0,37.013511046643494,238.1344158243407,235.25730594393875,230.3670983452281,219.3855054464629
177,7,562,0,18.752066666666423,3.0,96.13012014972206,10.04987562112089,11.045361017187261,27.018512172212592,28.0178514522438,23.021728866442675,47.095647357266465,36.05551275463989,34.5,33.0,38.0,12.5,11.5,0.5,2.5,15.033296378372908,15.033296378372908,15.0,43.0,39.0,40.01249804748511,239.1693960355296,236.30488780387088,232.36393868240398,221.44299492194375
178,7,563,0,18.78543333333309,4.0,96.13012014972206,11.045361017187261,13.038404810405298,28.0178514522438,29.017236257093817,23.08679276123039,51.15662224971465,38.118237105091836,36.0,33.0,38.0,12.5,15.5,0.5,2.5,14.035668847618199,15.0,14.5,43.0,38.0,37.05401462729781,237.10335299189677,235.25730594393875,230.31283073246266,219.32852071721086
179,7,564,0,18.81879999999976,5.0990195135927845,96.08329719571451,11.045361017187261,13.038404810405298,28.0178514522438,29.017236257093817,24.020824298928627,53.150729063673246,40.11234224026316,37.5,34.0,38.0,12.0,17.0,2.0,2.0,14.035668847618199,14.035668847618199,13.5,41.0,37.0,38.01315561749642,236.07625886564705,234.17301296263838,230.31283073246266,218.33002542023394
180,7,565,0,18.852166666666424,6.0,98.08159868191383,10.0,13.0,28.0178514522438,29.0,26.019223662515376,55.00909015790027,42.01190307520001,39.0,35.0,39.0,11.0,18.0,3.0,2.0,16.0312195418814,15.033296378372908,15.0,42.0,36.0,37.013511046643494,235.2126697267815,233.36237914453991,229.49074055394914,219.58369702689677
181,7,566,0,18.88553333333309,3.0,96.08329719571451,10.0,14.0,27.018512172212592,28.0178514522438,26.019223662515376,53.009433122794285,39.01281840626232,37.5,35.0,39.0,11.0,16.0,0.0,2.0,14.035668847618199,15.0,15.0,41.0,36.0,38.01315561749642,232.13789005675054,230.2628932329306,226.43321311150447,216.59178193089414
182,7,567,0,18.91889999999976,1.0,96.13012014972206,11.0,11.045361017187261,28.0178514522438,28.0178514522438,26.019223662515376,49.040799340956916,38.01315561749642,37.5,34.0,39.0,10.5,12.5,0.5,0.5,14.035668847618199,15.0,14.5,41.0,37.0,37.05401462729781,233.05364189387817,231.17525819170183,227.31695933211847,218.44907873461037
183,7,568,0,18.95226666666642,1.0,99.08077512817509,11.045361017187261,10.0,28.0178514522438,29.068883707497267,25.0,47.01063709417264,37.013511046643494,36.5,35.0,39.0,12.0,10.0,2.0,2.0,15.033296378372908,15.033296378372908,15.0,40.0,37.0,37.013511046643494,234.05341270744162,232.13789005675054,229.2640399190418,220.32702966272657
184,7,569,0,18.985633333333087,1.0,96.08329719571451,11.0,11.0,28.0178514522438,29.017236257093817,24.0,47.0,36.0,35.5,34.0,38.0,12.0,11.0,1.0,2.0,14.035668847618199,14.035668847618199,14.0,40.0,37.0,39.01281840626232,234.03418553707064,233.0772404161333,230.13908837917995,219.18485349129398
185,7,570,0,19.01899999999976,1.0,97.04638066409278,11.0,11.045361017187261,27.018512172212592,28.0178514522438,25.0,48.010415536631214,37.0,36.5,34.0,37.0,10.5,12.5,0.5,0.5,14.142135623730951,15.033296378372908,14.5,40.0,38.0,37.05401462729781,233.00214591286493,232.03448019637082,227.1079038695043,218.2292372712694
186,7,571,0,19.05236666666642,2.0,95.02105029939419,12.0,12.041594578792296,27.018512172212592,28.0178514522438,24.0,50.00999900019995,38.0,37.0,36.0,38.0,13.0,13.0,0.0,2.0,14.035668847618199,14.035668847618199,14.5,42.0,40.0,37.013511046643494,234.00213674238105,234.05341270744162,230.13908837917995,220.32702966272657
187,7,572,0,19.085733333333085,0.0,98.04590761474952,12.0,12.0,28.0178514522438,29.017236257093817,25.019992006393608,49.01020301937138,37.013511046643494,37.0,36.0,39.0,12.5,11.5,1.5,1.5,14.035668847618199,14.0,14.0,41.0,39.0,38.05259518088089,232.0021551624036,231.05410621756974,228.1074308302998,218.2292372712694
188,7,573,0,19.11909999999975,5.0,96.04686356149273,11.0,12.041594578792296,29.0,30.01666203960727,21.0,49.01020301937138,37.0,34.5,35.0,38.0,15.5,12.5,1.5,5.5,14.035668847618199,14.0,14.0,41.0,39.0,39.01281840626232,236.00847442411893,236.07625886564705,232.17450333746814,221.27358631341428
189,7,574,0,19.152466666666417,3.1622776601683795,95.08417323613851,12.041594578792296,13.038404810405298,30.0,30.01666203960727,21.02379604162864,49.0,36.013886210738214,34.5,34.0,38.0,15.0,13.0,2.0,4.0,13.038404810405298,14.0,14.0,42.0,39.0,39.01281840626232,233.00214591286493,232.07757323791543,229.13969538253298,218.2292372712694
190,7,575,0,19.185833333333083,1.0,92.0869154657707,11.0,11.0,27.0,28.0178514522438,23.0,46.0,35.0,34.5,34.0,38.0,13.0,10.0,3.0,3.0,13.038404810405298,14.0,14.0,40.0,37.0,38.05259518088089,233.01931250435015,232.1055794245369,228.26519664635694,219.3855054464629
191,7,576,0,19.21919999999975,0.0,92.0869154657707,9.0,10.0,26.019223662515376,27.018512172212592,25.0,44.0,34.0,34.0,34.0,38.0,11.0,8.0,4.0,3.0,15.033296378372908,14.0,14.5,40.0,38.0,39.01281840626232,232.0086205294967,230.10649708341572,227.26636354727023,218.33002542023394
192,7,577,0,19.25256666666641,0.0,88.20430828479978,9.0,11.0,24.020824298928627,25.079872407968907,26.0,46.0,35.0,35.0,33.0,39.0,10.0,10.0,4.0,2.0,15.033296378372908,15.0,15.0,39.0,36.0,38.01315561749642,235.00212764994276,233.10512649875378,229.2640399190418,219.5130975591206
193,7,578,0,19.28593333333308,1.0,88.14193099768123,10.0,13.038404810405298,25.079872407968907,25.079872407968907,25.0,47.01063709417264,34.0,34.5,33.0,38.0,10.5,11.5,3.5,1.5,15.033296378372908,14.0,14.5,41.0,38.0,38.0,236.03389587091087,235.30618351416098,231.62469643800938,221.0
194,7,579,0,19.319299999999743,0.0,86.28441342444185,10.04987562112089,15.033296378372908,24.08318915758459,25.079872407968907,26.0,51.03920062069938,36.013886210738214,36.0,33.0,40.0,10.5,14.5,3.5,0.5,13.152946437965905,14.0,14.0,41.0,37.0,38.0,229.0087334579186,229.10696191953662,226.56566377101365,216.22673285234646
195,7,580,0,19.35266666666641,1.4142135623730951,86.28441342444185,11.0,15.0,25.079872407968907,27.16615541441225,24.020824298928627,51.03920062069938,36.05551275463989,35.5,32.0,39.0,11.5,15.5,2.5,0.5,12.0,12.0,12.0,42.0,39.0,38.01315561749642,229.0349318335524,229.13969538253298,226.71568097509268,215.45533179756774
196,7,581,0,19.38603333333308,0.0,86.20904824900923,11.0,17.0,24.020824298928627,26.076809620810597,24.0,52.0,35.0,35.0,33.0,39.0,12.0,16.0,3.0,2.0,13.038404810405298,12.0,12.5,43.0,39.0,33.015148038438355,226.0,227.2201575564985,225.80079716422614,217.68095920406083
197,7,582,0,19.419399999999744,1.0,87.20665112249179,11.0,16.0,26.019223662515376,28.071337695236398,23.021728866442675,51.0098029794274,35.014282800023196,34.5,32.0,38.0,12.0,16.0,3.0,2.0,14.0,14.035668847618199,13.0,42.0,40.0,33.015148038438355,226.00884938426637,226.2675407565124,225.07776433935007,215.10230124292022
198,7,583,0,19.45276666666641,1.4142135623730951,85.14693182963201,13.038404810405298,16.0312195418814,26.019223662515376,28.0178514522438,21.02379604162864,51.03920062069938,35.014282800023196,34.5,33.0,38.0,14.5,15.5,3.5,2.5,13.038404810405298,14.0,13.5,41.0,40.0,38.05259518088089,230.00869548780108,228.17756243767704,225.64130827488125,215.23243250030885
199,7,584,0,19.48613333333308,1.4142135623730951,88.14193099768123,13.0,16.0,25.019992006393608,27.018512172212592,20.09975124224178,50.08991914547278,34.132096331752024,33.5,31.0,36.0,13.5,16.5,1.5,1.5,14.035668847618199,14.035668847618199,14.0,37.0,37.0,37.12142238654117,232.0021551624036,230.2628932329306,226.79726629745784,215.6965461012299
200,7,585,0,19.51949999999974,3.0,90.08884503644167,13.0,16.0312195418814,25.0,26.0,19.026297590440446,51.03920062069938,35.014282800023196,33.5,31.0,35.0,14.0,18.0,0.0,2.0,13.0,13.0,12.5,38.0,38.0,33.13608305156178,225.00888871331284,224.1807306616695,223.72527796384566,215.45533179756774
201,7,586,0,19.552866666666407,1.0,86.02325267042627,10.0,16.0,24.0,25.0,24.020824298928627,51.0098029794274,35.014282800023196,34.5,34.0,36.0,11.0,16.0,2.0,2.0,13.038404810405298,13.0,13.5,38.0,40.0,35.05709628591621,230.07824755939012,229.0349318335524,226.37358503146962,216.74870241826133
202,7,587,0,19.58623333333308,1.4142135623730951,91.0494371207203,12.041594578792296,16.0,25.019992006393608,27.0,22.02271554554524,51.0098029794274,35.014282800023196,34.5,34.0,37.0,13.5,15.5,2.5,2.5,13.038404810405298,13.038404810405298,13.5,39.0,41.0,33.06055050963308,230.0347799790284,230.07824755939012,229.49074055394914,220.10224896624752
203,7,588,0,19.61959999999974,1.4142135623730951,87.02298546935747,12.041594578792296,16.0,25.019992006393608,25.019992006393608,21.0,50.0,34.0,33.5,35.0,37.0,15.0,14.0,3.0,3.0,13.0,14.0,13.5,39.0,40.0,34.058772731852805,232.03448019637082,231.10603626906848,228.49288829195538,219.10727965998757
204,7,589,0,19.652966666666405,0.0,92.04890004774636,13.0,17.029386365926403,26.0,27.0,22.02271554554524,52.03844732503075,35.014282800023196,35.0,34.0,37.0,13.5,16.5,2.5,2.5,12.0,13.0,13.0,37.0,38.0,37.013511046643494,229.01964981197574,230.07824755939012,229.42754847663784,221.0
205,7,590,0,19.68633333333307,0.0,90.0499861188218,12.0,17.029386365926403,26.019223662515376,27.0,24.0,53.009433122794285,36.0,36.0,36.0,39.0,13.5,15.5,2.5,2.5,14.035668847618199,13.0,13.5,39.0,39.0,39.05124837953327,232.0021551624036,231.1384866265244,229.49074055394914,220.00454540758926
206,7,591,0,19.719699999999737,0.0,90.0499861188218,12.0,16.0312195418814,25.019992006393608,26.0,25.0,53.009433122794285,37.0,37.0,37.0,40.0,13.5,14.5,3.5,2.5,13.038404810405298,14.0,14.0,39.0,38.0,38.01315561749642,232.0021551624036,232.1055794245369,229.42754847663784,220.7351353998724
207,7,592,0,19.753066666666403,1.0,92.13576938409967,11.0,13.038404810405298,26.019223662515376,26.019223662515376,24.0,47.01063709417264,34.0,34.5,36.0,41.0,14.5,8.5,6.5,3.5,14.035668847618199,14.0,14.0,39.0,36.0,37.05401462729781,237.00843866833097,235.10423220350586,232.55106965997814,223.0874268084152
208,7,593,0,19.78643333333307,0.0,93.13431161500041,11.045361017187261,11.045361017187261,26.076809620810597,27.073972741361768,24.020824298928627,46.010868281309364,35.0,35.0,36.0,41.0,14.5,7.5,5.5,3.5,13.038404810405298,13.0,13.5,39.0,36.0,36.013886210738214,234.01922997907673,232.26062946612367,229.7063342618135,221.09726366465958
209,7,594,0,19.81979999999973,1.0,91.13725912051558,12.0,12.0,27.018512172212592,28.0178514522438,23.0,47.01063709417264,35.014282800023196,35.0,36.0,41.0,15.5,8.5,5.5,4.5,14.035668847618199,14.0,14.0,40.0,37.0,35.0,235.03404008781365,233.30880823492285,230.70327262524907,221.19900542271884
210,7,595,0,19.8531666666664,1.0,93.13431161500041,13.0,14.035668847618199,28.0178514522438,29.017236257093817,22.02271554554524,50.0,36.013886210738214,35.5,36.0,41.0,16.5,11.5,4.5,4.5,14.0,14.0,14.0,40.0,36.0,38.01315561749642,230.13908837917995,230.5558500667463,228.06358762415363,219.4288039433292
211,7,596,0,19.886533333333063,2.23606797749979,95.33624704172071,12.0,15.033296378372908,28.071337695236398,29.068883707497267,24.020824298928627,53.009433122794285,38.0,37.0,36.0,44.0,16.0,13.0,4.0,4.0,15.033296378372908,14.0,14.0,42.0,36.0,37.0,226.17913254763357,226.56566377101365,223.0874268084152,215.5736533067063
212,7,597,0,19.91989999999973,3.0,94.26027795418386,12.0,15.033296378372908,26.019223662515376,28.071337695236398,23.08679276123039,53.08483775994799,38.05259518088089,36.5,36.0,43.0,16.5,13.5,2.5,4.5,14.035668847618199,14.035668847618199,14.0,42.0,36.0,38.0,228.31557108528537,229.96086623597503,226.6142096162551,218.2131985009156
213,7,598,0,19.9532666666664,0.0,91.19758768739445,11.0,10.04987562112089,25.019992006393608,26.019223662515376,26.019223662515376,47.0,37.013511046643494,37.0,38.0,44.0,15.0,6.0,5.0,5.0,15.033296378372908,15.0,15.0,42.0,36.0,39.0,227.17834403833479,227.49505489130968,225.97787502319778,218.43534512527958
214,7,599,0,19.986633333333064,1.0,94.19129471453293,10.0,9.055385138137417,28.0178514522438,28.071337695236398,24.020824298928627,44.0,35.014282800023196,34.5,37.0,43.0,16.0,4.0,7.0,6.0,14.035668847618199,14.0,14.0,40.0,36.0,34.0147027033899,231.00865784641059,230.17601960239037,227.49505489130968,219.8226557932553
215,7,600,0,20.01999999999973,0.0,96.13012014972206,11.0,10.0,28.0178514522438,29.017236257093817,24.020824298928627,45.0111097397076,35.014282800023196,35.0,37.0,42.0,15.5,5.5,6.5,4.5,14.035668847618199,14.035668847618199,14.0,40.0,35.0,39.01281840626232,237.1349826575573,235.54405108174564,231.04977818643323,221.53103620034824
216,7,601,0,20.053366666666395,0.0,96.13012014972206,11.0,11.045361017187261,29.017236257093817,30.01666203960727,25.019992006393608,47.0,36.013886210738214,36.0,39.0,44.0,16.5,5.5,7.5,5.5,14.035668847618199,13.038404810405298,13.5,40.0,35.0,38.0,227.1079038695043,227.49505489130968,225.88713996153035,218.21548982599745
217,7,602,0,20.08673333333306,3.1622776601683795,98.18350166906862,12.0,11.0,29.017236257093817,31.064449134018133,24.020824298928627,50.0,39.0,37.5,38.0,44.0,17.0,9.0,3.0,6.0,13.038404810405298,13.038404810405298,13.0,41.0,35.0,38.01315561749642,228.17756243767704,228.56071403458645,225.88713996153035,218.21548982599745
218,7,603,0,20.120099999999727,0.0,96.25487000666512,10.04987562112089,10.04987562112089,28.0178514522438,29.068883707497267,27.018512172212592,47.01063709417264,37.0,37.0,37.0,44.0,13.5,6.5,5.5,4.5,14.035668847618199,13.038404810405298,13.0,38.0,32.0,36.013886210738214,231.3114783144148,229.87170334775874,226.497240601293,218.07338214463496
219,7,604,0,20.1534666666664,0.0,97.25224933131366,10.04987562112089,9.0,27.073972741361768,27.16615541441225,25.0,44.01136216933077,35.014282800023196,35.0,36.0,43.0,14.5,4.5,7.5,4.5,14.035668847618199,14.035668847618199,14.5,40.0,33.0,34.0,234.17301296263838,233.69424468736923,231.24878378058554,221.7746604100658
220,7,605,0,20.18683333333306,2.23606797749979,95.33624704172071,7.0,8.06225774829855,26.076809620810597,27.16615541441225,26.019223662515376,39.01281840626232,31.0,32.0,33.0,41.0,11.0,2.0,8.0,4.0,13.0,13.038404810405298,13.0,39.0,33.0,36.0,231.21634890292685,229.7063342618135,227.16733920174352,218.67327225795108
221,7,606,0,20.220199999999725,1.4142135623730951,95.33624704172071,9.0,9.055385138137417,28.0178514522438,28.071337695236398,24.020824298928627,41.012193308819754,32.0,32.5,32.0,40.0,12.0,5.0,6.0,4.0,13.038404810405298,13.0,13.5,39.0,34.0,35.014282800023196,228.07893370497854,227.43130831088317,224.8043593883357,218.11235636707977
222,7,607,0,20.25356666666639,1.0,97.25224933131366,9.0,9.055385138137417,27.073972741361768,28.160255680657446,26.019223662515376,43.0,34.0147027033899,34.5,36.0,43.0,13.5,3.5,8.5,4.5,14.035668847618199,14.035668847618199,14.0,39.0,32.0,35.014282800023196,234.2584043316269,232.7767170487633,230.36058690670154,219.79080963497995
223,7,608,0,20.286933333333057,2.23606797749979,94.26027795418386,11.0,11.045361017187261,27.018512172212592,28.0178514522438,24.0,48.041648597857254,37.013511046643494,36.0,35.0,42.0,14.5,9.5,3.5,4.5,13.038404810405298,13.038404810405298,13.0,40.0,33.0,35.0,233.25951213187426,230.8679276123039,227.37853900489378,220.0545386943882
224,7,609,0,20.32029999999972,4.123105625617661,92.34717104492157,10.0,12.041594578792296,27.073972741361768,27.073972741361768,26.0,52.03844732503075,40.01249804748511,38.0,35.0,43.0,13.0,13.0,1.0,3.0,14.0,15.033296378372908,14.5,40.0,32.0,36.013886210738214,232.2154172315008,231.70023737579555,227.27076362788065,217.55918734909818
225,7,610,0,20.35366666666639,10.0,97.41663102366043,10.04987562112089,13.152946437965905,29.068883707497267,30.14962686336267,25.019992006393608,58.034472514187634,45.0,40.0,34.0,43.0,13.5,19.5,4.5,3.5,13.038404810405298,13.152946437965905,13.5,40.0,31.0,37.05401462729781,232.2154172315008,230.62740513651016,226.07299706068392,217.55918734909818
226,7,611,0,20.38703333333305,10.04987562112089,99.40824915468535,12.041594578792296,12.041594578792296,30.01666203960727,31.064449134018133,22.0,56.08029957123981,44.04543109109048,39.0,34.0,43.0,16.5,17.5,2.5,5.5,13.038404810405298,12.041594578792296,12.5,39.0,30.0,37.05401462729781,231.3114783144148,229.78685776170926,225.28204544525957,216.8155898453799
227,7,612,0,20.42039999999972,11.0,98.32598842625484,10.04987562112089,12.041594578792296,30.01666203960727,30.066592756745816,23.021728866442675,56.00892785976178,44.0,38.5,36.0,44.0,17.0,16.0,1.0,7.0,13.0,13.152946437965905,13.0,40.0,31.0,32.0624390837628,228.3703133071372,226.88322987827902,222.40953216982405,214.83249288690016
228,7,613,0,20.453766666666382,10.04987562112089,100.40418317978589,10.0,11.045361017187261,29.068883707497267,30.14962686336267,23.0,54.037024344425184,43.01162633521314,38.0,33.0,42.0,14.5,16.5,2.5,4.5,14.035668847618199,14.035668847618199,14.0,41.0,33.0,32.01562118716424,232.31013753170566,229.96086623597503,226.6142096162551,218.3575050232989
229,7,614,0,20.48713333333305,9.055385138137417,99.32270636667126,10.04987562112089,12.041594578792296,29.068883707497267,30.14962686336267,24.08318915758459,55.00909015790027,43.0,38.5,35.0,43.0,15.0,16.0,2.0,5.0,13.0,14.142135623730951,13.5,40.0,30.0,34.0147027033899,231.70023737579555,228.37250272307304,225.1443981093023,216.68410186259626
230,7,615,0,20.52049999999972,11.045361017187261,97.32933781753577,11.0,12.041594578792296,28.0178514522438,29.154759474226502,24.020824298928627,58.008620049092706,46.0,40.5,37.0,45.0,17.0,17.0,3.0,7.0,14.035668847618199,14.035668847618199,13.5,40.0,31.0,37.05401462729781,231.3114783144148,228.96506283710622,224.39696967650877,215.95601403989656
231,7,616,0,20.553866666666384,12.0,97.32933781753577,9.055385138137417,11.045361017187261,27.073972741361768,28.160255680657446,27.0,59.033888572581766,48.010415536631214,42.0,39.0,47.0,16.0,16.0,2.0,7.0,13.038404810405298,13.152946437965905,13.0,38.0,30.0,34.0147027033899,229.63013739489858,228.26519664635694,225.1443981093023,215.6965461012299
232,7,617,0,20.58723333333305,12.041594578792296,97.41663102366043,10.0,12.041594578792296,28.071337695236398,29.068883707497267,26.0,60.03332407921454,48.010415536631214,42.0,37.0,46.0,15.5,18.5,3.5,6.5,12.041594578792296,13.152946437965905,12.5,40.0,31.0,34.0147027033899,228.70942263055102,228.37250272307304,224.8777445635739,216.23366990364843
233,7,618,0,20.620599999999715,9.0,96.42095207992918,12.041594578792296,15.132745950421556,28.071337695236398,30.066592756745816,23.08679276123039,59.00847396772772,44.01136216933077,39.5,36.0,45.0,17.5,18.5,0.5,5.5,13.038404810405298,13.038404810405298,13.0,41.0,31.0,34.058772731852805,234.61670869739862,234.33736364481018,230.09780529157595,218.65955272980872
234,7,619,0,20.65396666666638,7.0710678118654755,96.74709297958259,10.04987562112089,15.033296378372908,27.16615541441225,28.284271247461902,27.018512172212592,59.135437767890075,44.10215414239989,40.5,35.0,47.0,14.0,18.0,0.0,4.0,14.035668847618199,15.033296378372908,14.5,42.0,32.0,34.0147027033899,227.8793540450736,229.59311836376978,227.40712389896672,219.14607000811125
235,7,620,0,20.687333333333047,11.0,97.73944955850733,12.041594578792296,15.033296378372908,30.14962686336267,31.144823004794873,22.0,60.03332407921454,45.0111097397076,39.5,34.0,46.0,18.0,20.0,1.0,5.0,13.038404810405298,13.038404810405298,13.5,44.0,32.0,36.124783736376884,229.7063342618135,230.58620947489467,226.41775548750587,218.3323155192561
236,7,621,0,20.72069999999972,8.0,94.89467845985885,11.045361017187261,14.142135623730951,28.160255680657446,29.154759474226502,25.019992006393608,58.137767414994535,44.04543109109048,40.0,33.0,46.0,14.5,18.5,0.5,2.5,13.152946437965905,14.0,13.5,43.0,31.0,38.01315561749642,233.4823333787805,233.34309503390068,230.23466289853056,219.14607000811125
237,7,622,0,20.75406666666638,7.0710678118654755,97.73944955850733,11.0,15.033296378372908,29.154759474226502,31.144823004794873,25.019992006393608,58.077534382926416,43.04648650006177,39.5,31.0,43.0,12.0,21.0,3.0,1.0,13.038404810405298,14.0,13.5,44.0,32.0,36.05551275463989,232.31013753170566,232.94849216082082,230.58620947489467,220.4835594777987
238,7,623,0,20.787433333333045,8.06225774829855,98.73196037757987,11.0,15.0,28.160255680657446,30.14962686336267,24.020824298928627,58.034472514187634,43.04648650006177,39.0,29.0,41.0,11.0,23.0,5.0,0.0,12.041594578792296,12.0,12.0,43.0,32.0,34.132096331752024,233.25951213187426,232.7767170487633,229.47766775876036,220.33610689126738
239,7,624,0,20.82079999999971,8.0,95.63472172804185,10.04987562112089,13.038404810405298,27.16615541441225,28.160255680657446,23.08679276123039,54.0,41.012193308819754,37.0,28.0,39.0,10.5,20.5,4.5,0.5,12.165525060596439,13.0,12.5,42.0,32.0,35.05709628591621,238.10291892372928,237.60892239139505,232.24340679554285,220.0545386943882
240,7,625,0,20.854166666666377,6.324555320336759,94.33981132056604,10.04987562112089,13.038404810405298,27.073972741361768,28.071337695236398,24.08318915758459,53.03772242470448,40.11234224026316,37.0,30.0,38.0,10.0,19.0,3.0,0.0,11.045361017187261,12.0,12.0,42.0,34.0,35.014282800023196,236.01906702637396,237.35627229968034,234.13244115243833,220.91174708466727
241,7,626,0,20.88753333333304,7.0710678118654755,94.26027795418386,10.0,14.0,26.019223662515376,28.071337695236398,25.019992006393608,56.0357029044876,42.04759208325728,38.5,31.0,38.0,9.5,21.5,4.5,0.5,11.045361017187261,12.0,11.0,42.0,36.0,33.0,236.00847442411893,236.25621684941964,232.7767170487633,222.52415599210798
242,7,627,0,20.92089999999971,10.198039027185569,92.26592003551474,11.0,14.0,27.018512172212592,28.071337695236398,19.4164878389476,54.3323108288245,40.44749683231337,35.0,29.0,36.0,13.5,21.5,4.5,2.5,10.0,10.0,10.0,42.0,36.0,32.0624390837628,236.00847442411893,237.21087664776252,234.7701003109212,224.75097330156325
243,7,628,0,20.95426666666637,9.219544457292887,90.27181176868004,11.0,16.0,24.08318915758459,25.019992006393608,18.110770276274835,54.147945482723536,38.2099463490856,33.5,28.0,35.0,13.5,22.5,3.5,2.5,10.04987562112089,10.04987562112089,9.0,42.0,36.0,32.0624390837628,235.05318547086316,237.17082451262846,234.7701003109212,221.7746604100658
244,7,629,0,20.98763333333304,7.0710678118654755,88.36288813749809,9.055385138137417,13.0,25.019992006393608,26.1725046566048,22.360679774997898,51.35172830587107,38.47076812334269,34.5,28.0,36.0,10.0,19.0,2.0,1.0,10.04987562112089,12.041594578792296,10.5,42.0,37.0,28.160255680657446,242.3489220112192,242.0185943269649,237.47420912595962,224.51057881534223
245,7,630,0,21.020999999999702,5.0990195135927845,90.44888059008801,10.04987562112089,12.0,23.08679276123039,25.179356624028344,21.587033144922902,48.507731342539614,36.6742416417845,33.5,27.0,36.0,10.5,16.5,1.5,0.5,10.0,11.045361017187261,10.5,43.0,38.0,27.16615541441225,237.30360300678117,240.01874926763534,238.47222060441337,225.6213642366343
246,7,631,0,21.05436666666637,7.0710678118654755,90.44888059008801,6.0,10.04987562112089,23.194827009486403,24.186773244895647,23.53720459187964,46.52956049652737,36.49657518178932,32.5,25.0,34.0,6.5,16.5,2.5,0.5,10.04987562112089,11.045361017187261,10.5,41.0,36.0,28.071337695236398,242.20652344641752,241.07467722678797,239.83536019528063,227.40712389896672
247,7,632,0,21.08773333333304,2.8284271247461903,89.45389874119518,7.0,11.0,23.194827009486403,25.179356624028344,24.515301344262525,44.553338819890925,33.734255586866,32.0,26.0,35.0,6.5,13.5,0.5,1.5,10.0,11.045361017187261,10.0,40.0,36.0,26.019223662515376,243.24884377936928,244.05122413132864,242.7447218787671,231.08872754853275
248,7,633,0,21.121099999999704,2.23606797749979,84.48076704197234,7.0,11.0,20.223748416156685,21.213203435596427,25.317977802344327,45.27692569068709,34.36568055487916,33.0,27.0,36.0,6.5,13.5,1.5,0.5,11.045361017187261,12.041594578792296,11.5,41.0,35.0,27.294688127912362,247.1639132235934,247.09917037497314,244.989795705862,232.35533133543547
249,7,634,0,21.15446666666637,1.0,89.67719888578144,10.04987562112089,13.0,24.331050121192877,25.179356624028344,19.235384061671343,43.18564576337837,30.265491900843113,29.5,25.0,36.0,11.5,12.5,3.5,0.5,9.055385138137417,9.0,8.0,43.0,34.0,29.154759474226502,248.05039810490126,249.24285345822858,247.58836806279893,236.40854468483155
250,7,635,0,21.187833333333035,2.23606797749979,81.30190649671138,9.0,13.0,21.213203435596427,22.20360331117452,22.561028345356956,46.389654018972806,33.54101966249684,32.0,27.0,34.0,8.5,15.5,0.5,0.5,9.0,11.0,10.5,41.0,37.0,30.066592756745816,228.21919288263203,231.00216449202375,227.31695933211847,213.9369065869655
251,7,636,0,21.2211999999997,8.0,80.39900496896712,8.06225774829855,13.038404810405298,20.223748416156685,22.090722034374522,23.53720459187964,52.46903848937962,39.45883931389772,35.0,28.0,36.0,9.0,20.0,4.0,0.0,11.045361017187261,12.041594578792296,11.0,42.0,37.0,29.154759474226502,234.17301296263838,234.03418553707064,229.55827146935917,216.6887168266959
252,7,637,0,21.254566666666367,6.082762530298219,81.74350127074322,9.0,15.0,20.223748416156685,22.20360331117452,23.769728648009426,53.46026561849464,38.63935817272331,35.0,28.0,39.0,10.5,19.5,0.5,1.5,11.045361017187261,12.0,11.0,42.0,35.0,27.16615541441225,232.1055794245369,234.10467744152402,231.95258136093247,219.20310216782974
253,7,638,0,21.28793333333304,3.0,89.56003573022959,12.0,15.0,23.194827009486403,25.317977802344327,19.4164878389476,49.16299421312742,34.23448553724738,32.5,28.0,38.0,14.0,16.0,2.0,2.0,10.0,10.0,9.5,42.0,34.0,25.079872407968907,243.03291958086666,244.8182999695897,244.51789300580847,232.39836488237177
254,7,639,0,21.3212999999997,6.0,81.49846624323675,10.04987562112089,13.038404810405298,21.095023109728988,22.090722034374522,22.561028345356956,51.478150704935004,38.47076812334269,35.0,31.0,40.0,13.5,15.5,0.5,2.5,11.045361017187261,12.041594578792296,11.0,41.0,36.0,25.079872407968907,229.01964981197574,232.36393868240398,230.471256342304,218.65955272980872
255,7,640,0,21.354666666666365,2.8284271247461903,90.55385138137417,11.0,12.041594578792296,25.079872407968907,26.076809620810597,20.615528128088304,45.70557952810576,33.734255586866,32.0,30.0,40.0,15.0,10.0,5.0,4.0,10.04987562112089,10.0,9.0,41.0,32.0,24.020824298928627,249.07227866625382,253.14027731674784,254.01181074902797,243.82985871299684
256,7,641,0,21.38803333333303,8.54400374531753,87.20665112249179,8.0,15.0,20.09975124224178,21.095023109728988,26.476404589747453,57.55866572463264,42.7551166528639,38.0,35.0,41.0,12.0,19.0,2.0,3.0,9.055385138137417,9.055385138137417,7.5,50.0,35.0,33.13608305156178,255.12545933324648,256.5326489942362,257.78285435614214,245.246814454337
257,7,642,0,21.421399999999696,5.0,74.10802925459562,10.0,12.0,19.026297590440446,20.024984394500787,26.476404589747453,53.23532661682466,41.30375285612676,38.5,38.0,42.0,14.0,13.0,1.0,4.0,13.038404810405298,14.035668847618199,13.0,41.0,38.0,28.0178514522438,207.0,211.463944917331,210.1547049199708,197.29419656948858
258,7,643,0,21.45476666666636,4.123105625617661,77.52418977325722,10.04987562112089,13.0,20.09975124224178,22.090722034374522,24.186773244895647,51.088159097779204,38.118237105091836,36.0,34.0,43.0,14.5,12.5,3.5,3.5,10.04987562112089,12.0,11.0,40.0,34.0,24.08318915758459,221.02036105300343,223.72527796384566,223.02690420664499,211.62466774929618
259,7,644,0,21.488133333333028,1.4142135623730951,78.63841300535,11.0,13.0,19.1049731745428,21.095023109728988,26.476404589747453,51.15662224971465,38.2099463490856,37.5,34.0,44.0,13.0,12.0,3.0,2.0,12.041594578792296,12.041594578792296,11.5,43.0,35.0,26.076809620810597,214.00934559032697,218.58636736997119,219.5449840010015,209.1219739769114
260,7,645,0,21.52149999999969,1.0,79.63039620647382,8.0,13.038404810405298,21.213203435596427,23.194827009486403,28.635642126552707,49.36598018878993,36.6742416417845,36.0,32.0,42.0,9.0,12.0,4.0,0.0,9.055385138137417,10.04987562112089,9.0,42.0,30.0,25.079872407968907,218.02064122463267,221.65288177689007,219.92044015961773,208.4922060893404
261,7,646,0,21.55486666666636,1.0,73.33484846919642,9.055385138137417,11.0,19.026297590440446,20.024984394500787,27.294688127912362,48.25971404805462,37.33630940518894,36.5,35.0,42.0,11.5,9.5,3.5,2.5,11.0,13.0,12.0,40.0,36.0,27.073972741361768,216.0,221.50846484954022,220.7826985975124,208.67678356731494
262,7,647,0,21.588233333333022,1.4142135623730951,73.55270219373317,10.04987562112089,12.0,19.1049731745428,20.223748416156685,24.515301344262525,47.265209192385896,35.35533905932738,34.5,32.0,41.0,12.5,10.5,4.5,2.5,12.0,14.0,13.0,38.0,34.0,23.021728866442675,218.03669415949233,224.32119828495925,225.50388023269133,216.3631207022121
263,7,648,0,21.62159999999969,1.0,72.56031973468694,9.055385138137417,13.0,21.095023109728988,22.20360331117452,24.515301344262525,47.38143096192854,34.52535300326414,33.5,33.0,42.0,13.5,9.5,6.5,3.5,10.04987562112089,12.0,11.0,37.0,33.0,23.021728866442675,220.27482833950864,225.07998578283232,225.80079716422614,214.40149253211834
264,7,649,0,21.65496666666636,0.0,72.56031973468694,10.0,12.0,19.235384061671343,20.223748416156685,23.53720459187964,45.27692569068709,33.37663853655727,33.0,32.0,41.0,13.5,8.5,6.5,2.5,11.0,12.0,10.5,39.0,36.0,21.0,222.08106627986098,226.17913254763357,226.1725005388586,213.88314566603887
265,7,650,0,21.688333333333023,3.0,73.43704787094863,10.0,12.0,19.235384061671343,19.1049731745428,22.80350850198276,47.38143096192854,35.510561809129406,33.5,32.0,40.0,14.0,11.0,4.0,3.0,12.041594578792296,13.038404810405298,12.0,39.0,36.0,21.0,223.14345161801185,226.14154859291116,226.1725005388586,213.56497840235883
266,7,651,0,21.72169999999969,2.0,73.33484846919642,10.04987562112089,14.035668847618199,20.024984394500787,21.095023109728988,23.769728648009426,49.64876634922564,35.6931365951495,34.0,34.0,41.0,14.5,11.5,5.5,4.5,11.0,11.0,10.5,40.0,35.0,25.019992006393608,218.2292372712694,222.08106627986098,221.9954954497951,209.61393083476108
267,7,652,0,21.755066666666355,6.082762530298219,71.25307010929424,9.055385138137417,12.041594578792296,17.11724276862369,19.1049731745428,24.73863375370596,51.78802950489621,39.81205847478876,36.0,34.0,40.0,13.0,14.0,1.0,4.0,12.0,13.038404810405298,12.0,37.0,33.0,23.021728866442675,221.27358631341428,226.03539545832197,225.71885167172013,211.85844330590177
268,7,653,0,21.78843333333302,4.0,70.178344238091,9.055385138137417,13.038404810405298,17.11724276862369,19.026297590440446,25.0,50.80354318352215,37.8549864614954,35.0,35.0,40.0,13.5,12.5,2.5,3.5,12.041594578792296,13.038404810405298,12.0,41.0,37.0,23.021728866442675,223.22410264126944,227.07928130941406,226.97356674291393,214.40149253211834
269,7,654,0,21.821799999999687,1.0,80.22468448052632,9.0,15.033296378372908,18.110770276274835,21.02379604162864,27.85677655436824,51.419840528729765,36.68787265568828,35.0,35.0,41.0,12.0,12.0,4.0,3.0,10.04987562112089,11.0,10.5,43.0,33.0,23.021728866442675,240.00833318866242,242.7447218787671,243.97745797511703,234.61031520374377
270,7,655,0,21.85516666666636,1.4142135623730951,75.32595834106593,10.0,13.0,18.110770276274835,19.1049731745428,24.73863375370596,48.507731342539614,35.6931365951495,34.5,33.0,40.0,12.5,11.5,3.5,2.5,11.0,13.038404810405298,12.0,40.0,37.0,24.020824298928627,220.32702966272657,225.055548698538,224.89108474992955,211.43556938225885
271,7,656,0,21.88853333333302,0.0,74.33034373659252,11.045361017187261,13.0,19.235384061671343,20.09975124224178,24.515301344262525,48.373546489791295,35.510561809129406,35.0,33.0,40.0,12.5,11.5,4.5,0.5,12.0,13.038404810405298,12.5,39.0,36.0,23.021728866442675,221.38202275704322,225.055548698538,225.88713996153035,212.4241040936739
272,7,657,0,21.921899999999685,1.4142135623730951,65.19202405202648,9.0,12.041594578792296,16.1245154965971,17.029386365926403,28.160255680657446,50.00999900019995,38.07886552931954,36.5,35.0,40.0,10.5,11.5,3.5,0.5,11.045361017187261,12.041594578792296,11.0,40.0,36.0,22.090722034374522,215.23243250030885,222.05629916757596,222.72853431924702,209.02152999152983
273,7,658,0,21.95526666666635,0.0,82.21921916437786,9.055385138137417,13.038404810405298,21.02379604162864,22.02271554554524,26.92582403567252,48.83646178829912,35.90264614203248,35.0,36.0,42.0,13.0,9.0,5.0,4.0,9.0,10.04987562112089,9.0,45.0,35.0,25.079872407968907,241.0186714758838,242.66849816158668,242.83533515532702,234.61031520374377
274,7,659,0,21.988633333333016,0.0,88.2779700718135,9.0,15.0,24.08318915758459,25.019992006393608,26.68332812825267,50.35871324805669,35.510561809129406,35.0,35.0,42.0,12.5,11.5,5.5,3.5,7.0710678118654755,8.06225774829855,7.0,42.0,30.0,26.076809620810597,248.0,249.8839730755056,249.23081671414553,238.20159529272678
275,7,660,0,22.02199999999968,1.0,78.23042886243178,8.06225774829855,13.038404810405298,18.110770276274835,20.024984394500787,27.65863337187866,48.83646178829912,35.90264614203248,35.0,35.0,41.0,11.0,10.0,5.0,3.0,9.0,11.045361017187261,9.5,41.0,35.0,23.021728866442675,242.0185943269649,244.6630335788388,244.6630335788388,234.8297255459794
276,7,661,0,22.055366666666348,1.4142135623730951,78.23042886243178,9.055385138137417,15.033296378372908,19.1049731745428,20.09975124224178,26.92582403567252,51.97114584074513,37.107950630558946,35.5,35.0,41.0,12.0,13.0,4.0,3.0,11.045361017187261,12.041594578792296,10.5,40.0,33.0,21.02379604162864,239.0188277102873,242.7447218787671,245.12241839538055,233.5679772571574
277,7,662,0,22.08873333333301,2.23606797749979,89.05054744357274,9.055385138137417,15.033296378372908,24.0,25.019992006393608,24.515301344262525,49.8196748283246,34.92849839314596,33.5,35.0,38.0,12.5,12.5,4.5,4.5,7.0710678118654755,6.082762530298219,5.5,41.0,31.0,26.076809620810597,243.00823031329617,245.17748673155128,245.6175889467202,237.2003372678884
278,7,663,0,22.12209999999968,1.0,80.15609770940699,7.0710678118654755,14.035668847618199,21.02379604162864,21.02379604162864,28.635642126552707,49.8196748283246,35.90264614203248,35.0,37.0,42.0,11.5,9.5,6.5,4.5,10.0,10.198039027185569,9.0,40.0,29.0,24.020824298928627,246.0081299469593,247.07286374670934,247.58836806279893,238.89956048515452
279,7,664,0,22.155466666666342,3.605551275463989,85.14693182963201,9.0,16.0312195418814,22.02271554554524,24.08318915758459,25.0,52.952809179494906,37.107950630558946,34.5,35.0,40.0,13.5,14.5,3.5,4.5,8.06225774829855,8.06225774829855,7.0,42.0,31.0,24.08318915758459,239.0,242.90944814889355,242.32416305436814,231.1579546543878
280,7,665,0,22.18883333333301,2.23606797749979,82.15229759416349,9.0,13.0,22.090722034374522,22.02271554554524,25.96150997149434,48.83646178829912,36.138621999185304,34.5,34.0,39.0,11.5,11.5,3.5,2.5,10.0,11.045361017187261,9.5,42.0,33.0,22.0,242.00826432169626,244.6630335788388,244.51789300580847,234.95531490051465
281,7,666,0,22.22219999999968,4.123105625617661,69.26037828369117,11.045361017187261,15.033296378372908,16.278820596099706,17.11724276862369,23.769728648009426,53.46026561849464,38.47076812334269,36.0,35.0,41.0,15.0,15.0,3.0,3.0,11.045361017187261,13.038404810405298,12.0,40.0,37.0,22.090722034374522,219.18485349129398,226.07963198837706,226.79726629745784,214.2545215392198
282,7,667,0,22.255566666666343,2.0,68.26419266350405,10.0,14.035668847618199,16.1245154965971,17.11724276862369,25.0,50.635955604688654,36.6742416417845,35.0,35.0,41.0,14.0,12.0,4.0,3.0,12.041594578792296,14.035668847618199,13.0,40.0,36.0,22.20360331117452,215.18828964420902,222.05629916757596,222.72853431924702,210.15232570685484
283,7,668,0,22.28893333333301,2.23606797749979,70.178344238091,10.0,13.0,17.11724276862369,19.1049731745428,26.92582403567252,51.62363799656123,38.8329756778952,37.0,36.0,41.0,12.5,12.5,2.5,2.5,11.0,13.038404810405298,12.0,39.0,36.0,23.021728866442675,219.14607000811125,224.1093483101497,225.97787502319778,212.4241040936739
284,7,669,0,22.322299999999675,1.0,67.26812023536856,10.04987562112089,14.035668847618199,16.1245154965971,18.110770276274835,26.92582403567252,51.78802950489621,37.8549864614954,36.5,35.0,41.0,12.0,13.0,3.0,1.0,12.0,13.038404810405298,12.0,40.0,35.0,23.021728866442675,221.22612865572637,225.03555274667156,225.64130827488125,211.9929244102265
285,7,670,0,22.35566666666634,1.4142135623730951,71.25307010929424,9.0,13.038404810405298,18.110770276274835,20.09975124224178,26.92582403567252,49.8196748283246,36.87817782917155,35.5,34.0,40.0,11.0,12.0,3.0,2.0,10.0,13.038404810405298,12.0,40.0,35.0,21.02379604162864,219.0091322296858,224.37691503361035,225.50388023269133,214.04905979704745
286,7,671,0,22.389033333333007,2.0,68.26419266350405,11.045361017187261,16.0,16.0312195418814,18.027756377319946,25.96150997149434,54.589376255824725,38.8329756778952,37.0,35.0,41.0,13.0,16.0,2.0,2.0,12.041594578792296,13.038404810405298,11.5,38.0,35.0,23.021728866442675,222.14409737825582,225.17992805754247,225.07776433935007,211.74749113035554
287,7,672,0,22.42239999999968,2.23606797749979,76.23647421018367,11.045361017187261,14.035668847618199,19.1049731745428,20.09975124224178,26.68332812825267,53.75872022286245,39.81205847478876,38.0,37.0,43.0,14.0,13.0,4.0,3.0,10.0,9.055385138137417,8.0,39.0,30.0,23.0,232.1055794245369,236.32604596192948,237.56472802164888,228.47319317591726
288,7,673,0,22.45576666666634,4.123105625617661,70.178344238091,12.041594578792296,16.0,19.026297590440446,20.09975124224178,25.709920264364882,57.55866572463264,41.773197148410844,39.0,37.0,42.0,14.5,17.5,1.5,2.5,12.041594578792296,13.038404810405298,12.5,40.0,36.0,22.02271554554524,219.14607000811125,224.1428116179504,223.0874268084152,209.77368757782756
289,7,674,0,22.489133333333005,2.23606797749979,71.25307010929424,10.04987562112089,15.033296378372908,18.027756377319946,19.1049731745428,27.65863337187866,54.74486277268398,39.81205847478876,38.0,36.0,42.0,12.0,15.0,3.0,2.0,13.038404810405298,14.035668847618199,13.0,40.0,36.0,22.02271554554524,220.11133546457802,224.1807306616695,223.98660674245681,210.60151946270474
290,7,675,0,22.52249999999967,2.23606797749979,74.10802925459562,9.055385138137417,14.035668847618199,18.027756377319946,19.026297590440446,29.832867780352597,54.91812087098393,41.0,39.0,38.0,42.0,11.0,14.0,2.0,2.0,12.0,13.0,12.0,37.0,33.0,22.0,221.14474897677312,225.17992805754247,225.17770760001977,212.73457640919588
291,7,676,0,22.555866666666336,2.0,77.23341245859851,10.04987562112089,14.035668847618199,19.1049731745428,21.095023109728988,27.459060435491963,53.46026561849464,39.45883931389772,38.0,35.0,41.0,11.0,15.0,2.0,1.0,13.038404810405298,13.038404810405298,12.5,40.0,36.0,25.019992006393608,217.14741536569116,221.14474897677312,221.0,209.45882650296693
292,7,677,0,22.589233333333,3.1622776601683795,77.1621668954417,10.0,14.0,20.09975124224178,22.02271554554524,27.65863337187866,54.45181356024793,40.607881008493905,38.5,36.0,41.0,11.5,15.5,1.5,1.5,13.0,15.0,14.5,38.0,35.0,25.079872407968907,222.14409737825582,226.17913254763357,225.07776433935007,213.56497840235883
293,7,678,0,22.622599999999668,3.0,95.13148795220224,10.04987562112089,18.0,25.079872407968907,26.019223662515376,24.515301344262525,55.326304774492215,37.48332962798263,35.5,35.0,40.0,13.5,17.5,2.5,3.5,13.038404810405298,14.035668847618199,13.0,51.0,36.0,36.22154055254967,241.05186163977245,241.91320757660174,238.43657437566074,227.1079038695043
294,7,679,0,22.65596666666633,4.0,80.15609770940699,11.045361017187261,13.0,20.024984394500787,23.021728866442675,27.294688127912362,55.226805085936306,42.2965719651132,40.0,38.0,43.0,13.5,14.5,0.5,2.5,15.0,14.0,14.5,38.0,36.0,27.0,225.03555274667156,228.21919288263203,226.07299706068392,215.3903433304288
295,7,680,0,22.689333333333,2.0,78.10249675906654,9.0,14.0,17.029386365926403,19.026297590440446,30.265491900843113,55.14526271584895,41.19465984809196,40.0,38.0,42.0,10.0,15.0,1.0,1.0,14.035668847618199,16.0312195418814,15.0,39.0,37.0,30.066592756745816,224.0022321317357,225.26872841120226,223.98660674245681,212.13203435596427
296,7,681,0,22.722699999999666,2.23606797749979,78.05767098754612,10.04987562112089,15.033296378372908,19.026297590440446,20.024984394500787,29.274562336608895,56.22277118748239,41.19465984809196,40.0,40.0,43.0,12.5,14.5,1.5,2.5,14.035668847618199,14.035668847618199,14.0,36.0,37.0,28.0178514522438,227.07928130941406,230.10649708341572,228.70942263055102,216.566387050253
297,7,682,0,22.75606666666633,3.1622776601683795,87.02298546935747,11.045361017187261,12.041594578792296,21.0,22.0,27.16615541441225,53.33854141237835,41.30375285612676,39.5,42.0,44.0,16.0,10.0,3.0,6.0,14.035668847618199,16.0,14.5,35.0,35.0,25.019992006393608,243.00205760445732,243.6657546722559,242.1239352067449,232.6413548791358
298,7,683,0,22.789433333333,3.0,85.0235261559999,11.045361017187261,14.142135623730951,21.0,22.02271554554524,26.076809620810597,54.230987451824994,40.11234224026316,38.5,40.0,42.0,15.0,13.0,2.0,4.0,15.0,15.033296378372908,14.0,37.0,39.0,29.154759474226502,244.0,243.52617929085162,241.7457341919398,233.1179958733345
299,7,684,0,22.822799999999663,2.0,89.05054744357274,13.0,15.033296378372908,22.0,24.0,23.53720459187964,53.33854141237835,38.3275357934736,37.0,39.0,42.0,17.5,12.5,2.5,4.5,12.0,14.0,13.5,35.0,38.0,27.073972741361768,244.00819658363937,243.52617929085162,244.60784942433878,233.63646975590092
300,7,685,0,22.85616666666633,1.4142135623730951,93.00537618869137,11.045361017187261,14.035668847618199,25.019992006393608,26.019223662515376,26.076809620810597,52.23983154643591,38.2099463490856,37.5,40.0,41.0,14.5,11.5,2.5,3.5,13.0,15.033296378372908,14.5,33.0,36.0,28.284271247461902,240.00833318866242,240.3518254559345,240.10414407085938,231.22499864850255
301,7,686,0,22.889533333332995,7.0710678118654755,97.02061636580135,11.0,12.0,27.018512172212592,29.017236257093817,24.186773244895647,54.147945482723536,42.190046219457976,38.5,40.0,42.0,17.0,13.0,1.0,6.0,13.0,14.0,14.0,33.0,36.0,33.13608305156178,231.1384866265244,231.01947969814148,230.31283073246266,223.0874268084152
302,7,687,0,22.92289999999966,4.0,93.02150289046077,10.04987562112089,13.038404810405298,25.019992006393608,26.019223662515376,27.16615541441225,54.230987451824994,41.19465984809196,39.0,41.0,39.0,13.0,14.0,1.0,4.0,14.035668847618199,14.0,13.5,33.0,36.0,31.25699921617557,232.13789005675054,232.0086205294967,229.21823662178366,220.6558406206371
303,7,688,0,22.956266666666327,5.0,95.02105029939419,9.055385138137417,13.038404810405298,25.0,26.019223662515376,30.14962686336267,57.21887800367987,44.181444068749045,41.5,42.0,40.0,11.0,16.0,2.0,3.0,15.0,14.0,14.0,36.0,39.0,37.12142238654117,234.2584043316269,233.0085835328819,228.07893370497854,218.38727069131113
304,7,689,0,22.989633333333,5.0,97.0051545022222,9.0,11.045361017187261,26.0,27.018512172212592,30.14962686336267,55.14526271584895,44.10215414239989,41.5,41.0,40.0,10.5,14.5,2.5,2.5,13.0,13.038404810405298,13.0,36.0,39.0,37.21558813185679,239.25300416086733,236.00211863455803,231.10603626906848,219.3855054464629
305,7,690,0,23.02299999999966,4.123105625617661,97.02061636580135,10.0,13.0,27.0,27.018512172212592,28.071337695236398,55.08175741568164,42.1070065428546,40.0,41.0,39.0,12.0,15.0,1.0,3.0,13.0,13.038404810405298,13.5,36.0,39.0,38.2099463490856,232.36393868240398,231.07790893982056,228.00877176108818,217.1128738697915
306,7,691,0,23.056366666666325,2.0,99.00505037623081,9.0,12.0,27.018512172212592,28.0,29.017236257093817,52.009614495783374,40.01249804748511,39.0,38.0,37.0,8.5,14.5,1.5,0.5,14.0,13.0,13.5,37.0,39.0,40.11234224026316,231.21634890292685,230.0195643852931,227.01982292302142,216.18741869035765
307,7,692,0,23.08973333333299,1.4142135623730951,96.00520819205592,9.0,11.0,27.0,28.0178514522438,28.0178514522438,49.040799340956916,38.05259518088089,37.5,36.0,35.0,7.5,13.5,0.5,0.5,15.0,15.033296378372908,15.0,34.0,37.0,39.20459156782532,234.4184293096428,232.1055794245369,228.00877176108818,217.03686322834653
308,7,693,0,23.123099999999656,1.0,95.00526301210897,9.055385138137417,12.041594578792296,27.0,28.0,25.019992006393608,47.095647357266465,35.05709628591621,34.5,34.0,33.0,8.5,13.5,0.5,0.5,14.0,14.035668847618199,14.0,35.0,39.0,35.12833614050059,236.30488780387088,233.10512649875378,229.0087334579186,219.00228309312212
309,7,694,0,23.15646666666632,2.23606797749979,91.02197536858887,10.0,11.0,26.0,27.018512172212592,22.02271554554524,45.044422518220834,34.058772731852805,33.0,33.0,31.0,10.0,13.0,0.0,1.0,13.038404810405298,12.165525060596439,12.5,36.0,39.0,36.22154055254967,241.3503677229434,238.17010727629108,231.07790893982056,219.02054698132775
310,7,695,0,23.189833333332988,3.1622776601683795,92.0869154657707,10.04987562112089,13.038404810405298,26.0,27.018512172212592,24.08318915758459,50.08991914547278,37.05401462729781,35.5,35.0,31.0,9.0,17.0,2.0,0.0,14.0,13.038404810405298,13.0,35.0,38.0,37.21558813185679,236.30488780387088,234.10467744152402,227.00881040171106,215.00232556881798
311,7,696,0,23.22319999999965,2.0,88.02272433866155,9.0,11.045361017187261,25.079872407968907,26.019223662515376,25.079872407968907,47.095647357266465,36.05551275463989,35.0,35.0,33.0,9.0,13.0,1.0,2.0,12.0,12.041594578792296,11.5,37.0,40.0,37.12142238654117,239.30106560565082,238.17010727629108,235.10423220350586,224.03571143904713
312,7,697,0,23.25656666666632,6.0,103.07764064044152,10.0,12.0,31.0,32.01562118716424,25.0,53.0,41.0,38.0,36.0,40.0,13.0,15.0,1.0,4.0,13.0,14.035668847618199,13.5,32.0,36.0,35.510561809129406,246.01829200285087,244.00204917172314,239.0083680543424,232.07757323791543
313,7,698,0,23.289933333332986,9.055385138137417,102.0196059588548,8.0,11.0,31.0,31.016124838541646,27.0,55.00909015790027,44.01136216933077,39.5,37.0,35.0,9.0,19.0,7.0,2.0,13.0,12.041594578792296,12.0,33.0,35.0,38.05259518088089,229.2640399190418,230.10649708341572,226.03539545832197,217.0
314,7,699,0,23.32329999999965,17.11724276862369,107.46627377926528,7.0710678118654755,7.0710678118654755,31.064449134018133,32.14031735997639,15.033296378372908,46.09772228646444,39.05124837953327,30.5,26.0,16.0,6.0,25.0,17.0,2.0,12.041594578792296,10.04987562112089,9.5,34.0,35.0,35.12833614050059,236.10379073619296,235.17227727774377,232.26062946612367,224.43707358633955
315,7,700,0,23.35666666666632,6.082762530298219,103.04368005850722,9.0,14.035668847618199,29.017236257093817,32.0624390837628,21.02379604162864,50.08991914547278,36.05551275463989,33.0,26.0,23.0,3.5,25.5,9.5,3.5,10.0,8.06225774829855,8.0,30.0,35.0,37.12142238654117,236.21176939348302,237.1349826575573,234.05341270744162,225.03555274667156
316,7,701,0,23.390033333332983,14.0,118.4229707446997,9.055385138137417,18.027756377319946,35.12833614050059,37.21558813185679,19.0,60.03332407921454,42.01190307520001,35.0,26.0,16.0,2.0,39.0,20.0,2.0,13.0,13.152946437965905,12.5,36.0,37.0,38.118237105091836,249.0180716333656,247.01821795163207,243.03291958086666,231.03462943896528
317,7,702,0,23.42339999999965,11.180339887498949,108.55873986004075,7.0710678118654755,14.0,32.38826948140329,33.24154027718932,26.1725046566048,58.0,44.0,38.5,40.0,29.0,8.5,23.5,9.5,5.5,16.0,17.11724276862369,16.5,33.0,39.0,40.311288741492746,255.04901489713697,252.07141845120006,244.05122413132864,233.0772404161333
318,7,703,0,23.456766666666315,3.605551275463989,100.71742649611338,7.0,13.038404810405298,29.068883707497267,30.14962686336267,31.064449134018133,54.00925846556311,41.0,39.5,41.0,29.0,4.0,19.0,6.0,0.0,15.0,17.029386365926403,17.0,35.0,41.0,39.45883931389772,239.2091135387613,238.17010727629108,234.21357774475842,223.27113561766106
319,7,704,0,23.49013333333298,4.0,78.5175139698144,10.04987562112089,16.1245154965971,21.213203435596427,22.090722034374522,32.2490309931942,62.39390995922599,46.2709412050371,44.0,43.0,52.0,15.5,14.5,3.5,4.5,9.055385138137417,10.198039027185569,10.5,40.0,29.0,36.124783736376884,218.67327225795108,217.91970998512272,209.40391591371923,193.1657319505714
320,7,705,0,23.523499999999647,7.0710678118654755,93.40770846134703,12.165525060596439,15.297058540778355,22.47220505424423,24.698178070456937,28.0178514522438,62.39390995922599,47.16990566028302,43.5,32.0,57.0,16.5,17.5,3.5,1.5,12.165525060596439,11.40175425099138,11.0,48.0,17.0,43.965895873961216,261.9198350640898,258.43567865138124,252.41434190631878,240.63457773146402
321,7,706,0,23.55686666666632,9.219544457292887,77.87810988975015,11.045361017187261,15.297058540778355,20.223748416156685,22.561028345356956,23.53720459187964,59.033888572581766,43.73785545725808,38.5,36.0,53.0,21.5,13.5,4.5,9.5,13.152946437965905,13.152946437965905,13.0,40.0,19.0,36.22154055254967,227.85302280198084,222.19360926903366,212.8497122384712,196.57314160383152
322,7,707,0,23.59023333333298,5.385164807134504,106.88779163215975,11.180339887498949,13.152946437965905,29.427877939124322,29.614185789921695,28.284271247461902,48.05205510693585,34.92849839314596,36.5,26.0,46.0,8.0,11.0,7.0,4.0,13.152946437965905,13.038404810405298,13.0,46.0,30.0,38.05259518088089,234.94041797868667,236.4339231159522,234.92339176846565,228.25424421026653
323,7,708,0,23.623599999999644,8.94427190999916,83.81527307120105,8.06225774829855,10.198039027185569,21.840329667841555,23.08679276123039,29.427877939124322,56.293871780150276,46.09772228646444,41.0,39.0,64.0,22.5,3.5,11.5,11.5,9.219544457292887,10.04987562112089,9.5,47.0,34.0,44.10215414239989,234.33522995913356,235.0914715594762,230.85276693165278,217.29703173306348
324,7,709,0,23.65696666666631,13.038404810405298,90.19977827023745,10.0,12.0,24.020824298928627,25.0,29.017236257093817,64.03124237432849,52.03844732503075,45.5,48.0,54.0,22.0,13.0,1.0,11.0,14.0,14.035668847618199,14.0,42.0,36.0,38.0,240.91699815496622,238.3149177034455,233.5658365429328,223.02690420664499
325,7,710,0,23.690333333332976,16.0312195418814,95.02105029939419,11.0,15.033296378372908,28.0,30.0,27.294688127912362,69.1158447825099,54.230987451824994,46.0,50.0,52.0,24.0,18.0,2.0,13.0,10.0,10.0,10.0,35.0,32.0,36.013886210738214,229.0349318335524,227.1079038695043,224.22310318073826,215.2812114421507
326,7,711,0,23.72369999999964,2.23606797749979,94.13288479590966,10.0,13.038404810405298,27.018512172212592,26.019223662515376,25.079872407968907,50.15974481593781,37.12142238654117,36.0,35.0,40.0,12.5,12.5,1.5,3.5,10.0,9.055385138137417,8.5,32.0,29.0,37.05401462729781,263.1900454044567,258.43567865138124,248.65236777477105,236.93247983339052
327,7,712,0,23.757066666666308,1.4142135623730951,95.42536350467836,10.0,14.035668847618199,24.020824298928627,25.179356624028344,25.179356624028344,50.24937810560445,36.22154055254967,35.5,33.0,42.0,12.5,12.5,3.5,3.5,14.142135623730951,15.033296378372908,14.5,39.0,31.0,40.11234224026316,259.9326835932719,257.41989045137905,250.05599372940455,236.60304309116566
328,7,713,0,23.79043333333297,3.1622776601683795,88.05112151472007,12.0,15.033296378372908,27.018512172212592,28.0,25.079872407968907,55.036351623268054,40.01249804748511,38.5,35.0,38.0,11.5,18.5,1.5,0.5,13.038404810405298,10.04987562112089,10.5,41.0,36.0,36.0,222.22511109233358,225.17992805754247,224.1428116179504,212.05895406702354
329,7,714,0,23.82379999999964,4.0,88.2779700718135,12.041594578792296,15.033296378372908,27.073972741361768,27.018512172212592,25.0,56.0357029044876,41.012193308819754,39.0,35.0,42.0,13.5,17.5,0.5,2.5,13.038404810405298,12.0,12.0,40.0,34.0,38.01315561749642,226.14154859291116,227.26636354727023,223.32263655975405,212.46176126540982
330,7,715,0,23.857166666666306,4.123105625617661,90.44888059008801,10.0,12.0,27.073972741361768,27.018512172212592,27.073972741361768,53.08483775994799,41.10960958218893,39.0,34.0,43.0,11.5,14.5,0.5,1.5,13.038404810405298,14.0,13.5,41.0,32.0,41.012193308819754,235.54405108174564,236.76359517459605,232.04525420701884,220.31114361284588
331,7,716,0,23.89053333333297,5.0990195135927845,90.35485598461214,11.045361017187261,14.035668847618199,28.160255680657446,29.154759474226502,25.019992006393608,55.14526271584895,41.10960958218893,38.5,33.0,41.0,12.0,18.0,1.0,1.0,14.035668847618199,14.0,13.5,41.0,32.0,37.05401462729781,237.47420912595962,234.85314560380067,230.05434140654683,220.42232191862965
332,7,717,0,23.92389999999964,4.0,87.46427842267951,10.04987562112089,12.165525060596439,27.16615541441225,29.068883707497267,26.0,52.08646657242167,40.01249804748511,38.0,33.0,42.0,11.5,14.5,0.5,1.5,15.132745950421556,15.0,14.5,41.0,32.0,36.013886210738214,235.61409125941512,232.04525420701884,227.27076362788065,216.566387050253
333,7,718,0,23.957266666666303,1.0,90.55385138137417,12.041594578792296,11.180339887498949,27.16615541441225,27.16615541441225,25.079872407968907,49.25444142409901,38.118237105091836,37.5,33.0,43.0,13.0,11.0,3.0,1.0,13.152946437965905,14.0,14.0,42.0,30.0,40.0,243.6657546722559,237.11811402758752,231.46490014686893,219.92044015961773
334,7,719,0,23.99063333333297,1.4142135623730951,91.7877987534291,11.045361017187261,13.152946437965905,26.1725046566048,27.073972741361768,23.021728866442675,48.25971404805462,35.12833614050059,34.5,29.0,41.0,12.0,13.0,3.0,1.0,14.142135623730951,14.035668847618199,13.5,42.0,32.0,37.0,235.2275494069519,232.81322986462774,228.39658491317246,219.64744478368056
335,7,720,0,24.023999999999635,1.4142135623730951,89.80534505250787,10.04987562112089,10.198039027185569,26.1725046566048,26.30589287593181,25.079872407968907,46.389654018972806,36.22154055254967,35.5,30.0,42.0,11.0,10.0,3.0,1.0,13.038404810405298,14.035668847618199,14.0,43.0,32.0,34.0147027033899,244.989795705862,241.6278129686233,235.05318547086316,223.6000894454204
336,7,721,0,24.0573666666663,4.47213595499958,92.91393867445294,9.0,11.045361017187261,27.16615541441225,28.160255680657446,22.20360331117452,46.389654018972806,35.35533905932738,33.0,28.0,41.0,12.5,11.5,2.5,3.5,13.038404810405298,14.035668847618199,13.0,42.0,30.0,36.0,248.06853891616325,243.61444948935193,236.04448733236708,224.43930137121706
337,7,722,0,24.090733333332967,2.23606797749979,89.80534505250787,10.04987562112089,11.045361017187261,27.073972741361768,27.16615541441225,23.021728866442675,46.17358552246078,35.12833614050059,34.0,30.0,42.0,13.0,10.0,4.0,3.0,13.038404810405298,14.0,13.5,41.0,30.0,40.01249804748511,238.6063704095094,235.03191272676142,229.36651891677653,219.5449840010015
338,7,723,0,24.12409999999964,3.0,95.88534820294495,11.045361017187261,11.180339887498949,31.25699921617557,32.14031735997639,22.20360331117452,47.38143096192854,36.22154055254967,34.5,30.0,43.0,14.5,10.5,4.5,2.5,15.033296378372908,14.0,14.5,42.0,30.0,39.0,239.75404063331237,236.1228493814184,229.47766775876036,219.92044015961773
339,7,724,0,24.1574666666663,2.23606797749979,90.79647570252934,10.04987562112089,11.180339887498949,28.284271247461902,28.160255680657446,25.079872407968907,48.373546489791295,37.21558813185679,36.0,32.0,44.0,13.0,10.0,5.0,2.0,13.152946437965905,13.0,13.5,43.0,31.0,39.0,242.00206610688264,237.53947040439405,231.82105167564055,220.19309707617992
340,7,725,0,24.190833333332964,3.1622776601683795,94.76286192385707,11.0,13.152946437965905,29.154759474226502,30.14962686336267,23.194827009486403,50.35871324805669,37.21558813185679,35.5,31.0,43.0,14.0,13.0,3.0,3.0,14.142135623730951,14.0,13.5,43.0,31.0,36.0,236.1228493814184,235.44001359157284,230.82894099310857,218.92921230388603
341,7,726,0,24.22419999999963,2.23606797749979,95.88534820294495,10.04987562112089,12.165525060596439,28.160255680657446,28.160255680657446,24.08318915758459,48.373546489791295,36.22154055254967,35.0,30.0,43.0,12.5,11.5,3.5,1.5,13.038404810405298,14.035668847618199,13.5,42.0,30.0,37.013511046643494,232.6972281742952,231.24878378058554,226.6142096162551,216.8155898453799
342,7,727,0,24.257566666666296,0.0,94.76286192385707,10.04987562112089,12.165525060596439,28.160255680657446,28.284271247461902,26.019223662515376,48.16637831516918,36.05551275463989,36.0,31.0,43.0,11.0,11.0,4.0,1.0,14.142135623730951,15.033296378372908,14.5,42.0,30.0,38.05259518088089,235.8495283014151,233.23807579381202,227.4906591488978,217.68095920406083
343,7,728,0,24.29093333333296,1.0,95.75489543621255,11.045361017187261,13.152946437965905,28.160255680657446,29.154759474226502,26.019223662515376,51.15662224971465,38.05259518088089,37.5,33.0,45.0,13.0,12.0,4.0,2.0,15.132745950421556,15.033296378372908,14.5,43.0,31.0,38.0,234.13244115243833,232.57256931977167,228.84492565927695,218.07338214463496
344,7,729,0,24.324299999999628,1.4142135623730951,93.7709976485267,9.055385138137417,11.180339887498949,28.160255680657446,28.160255680657446,28.071337695236398,49.36598018878993,38.2099463490856,37.5,32.0,44.0,10.0,11.0,3.0,1.0,13.152946437965905,14.035668847618199,13.5,42.0,30.0,36.0,235.1276249188938,234.6763729053268,229.9652147608416,219.3467574412715
345,7,730,0,24.357666666666294,2.23606797749979,95.88534820294495,10.04987562112089,13.341664064126334,28.284271247461902,29.274562336608895,26.076809620810597,51.478150704935004,38.2099463490856,37.0,31.0,44.0,11.5,13.5,2.5,0.5,14.142135623730951,14.035668847618199,13.5,43.0,31.0,37.013511046643494,234.33736364481018,233.68354670365648,229.9652147608416,220.19309707617992
346,7,731,0,24.39103333333296,1.4142135623730951,97.01546268507923,10.04987562112089,12.165525060596439,27.16615541441225,28.160255680657446,26.1725046566048,49.49747468305833,37.33630940518894,36.5,30.0,44.0,11.0,12.0,3.0,1.0,13.152946437965905,14.035668847618199,14.0,43.0,32.0,36.013886210738214,239.4159560263267,237.77510382712484,234.06195760951843,223.45021816950637
347,7,732,0,24.424399999999626,1.4142135623730951,94.89467845985885,10.04987562112089,12.165525060596439,27.16615541441225,28.160255680657446,27.16615541441225,50.48762224545735,38.3275357934736,37.5,32.0,45.0,11.5,11.5,3.5,1.5,13.038404810405298,14.0,14.0,45.0,32.0,38.01315561749642,236.93247983339052,234.33736364481018,228.72035327010144,217.8072542409917
348,7,733,0,24.45776666666629,1.4142135623730951,98.00510190801293,9.055385138137417,12.165525060596439,28.284271247461902,29.274562336608895,28.160255680657446,50.48762224545735,38.3275357934736,37.5,31.0,45.0,10.0,12.0,3.0,1.0,13.152946437965905,14.0,13.5,42.0,30.0,36.0,232.14219780126146,230.82894099310857,226.41775548750587,216.8432613663611
349,7,734,0,24.49113333333296,3.1622776601683795,95.88534820294495,10.04987562112089,12.165525060596439,28.160255680657446,28.284271247461902,26.076809620810597,51.35172830587107,39.20459156782532,37.5,31.0,44.0,11.5,13.5,2.5,1.5,14.142135623730951,14.035668847618199,14.0,43.0,30.0,37.0,234.13244115243833,233.5658365429328,228.97379762758882,219.49487465542333
350,7,735,0,24.524499999999623,1.0,95.88534820294495,9.055385138137417,11.180339887498949,27.294688127912362,28.284271247461902,27.073972741361768,48.25971404805462,37.12142238654117,36.5,31.0,44.0,10.5,10.5,3.5,0.5,13.152946437965905,14.035668847618199,14.0,42.0,30.0,36.0,234.94041797868667,232.57256931977167,228.97379762758882,218.3575050232989
351,7,736,0,24.55786666666629,2.23606797749979,99.84988733093293,9.055385138137417,10.04987562112089,29.154759474226502,29.154759474226502,27.16615541441225,48.373546489791295,38.3275357934736,37.0,31.0,44.0,10.5,10.5,2.5,1.5,13.152946437965905,13.038404810405298,13.5,42.0,30.0,37.013511046643494,232.86047324524614,231.3547060251855,225.7432169523594,217.0829334609241
352,7,737,0,24.591233333332955,3.1622776601683795,98.99494936611666,8.06225774829855,11.180339887498949,29.274562336608895,30.265491900843113,27.018512172212592,49.25444142409901,38.118237105091836,36.5,30.0,44.0,10.0,12.0,3.0,1.0,13.152946437965905,13.152946437965905,13.0,42.0,31.0,36.013886210738214,231.8641843838759,231.57936004747918,226.27416997969522,216.8432613663611
353,7,738,0,24.62459999999962,4.123105625617661,99.84988733093293,9.055385138137417,11.180339887498949,29.154759474226502,29.274562336608895,27.073972741361768,51.35172830587107,40.19950248448356,38.0,31.0,44.0,10.5,13.5,0.5,1.5,13.152946437965905,13.038404810405298,13.5,42.0,30.0,36.013886210738214,231.04977818643323,229.59311836376978,225.28426487440262,214.55302374937528
354,7,739,0,24.657966666666287,2.23606797749979,100.9752444909147,9.055385138137417,11.180339887498949,28.284271247461902,28.160255680657446,27.073972741361768,49.36598018878993,38.2099463490856,37.0,31.0,45.0,11.0,11.0,3.0,1.0,16.0312195418814,15.132745950421556,15.0,43.0,32.0,37.0,228.1622229905731,226.73552875542023,223.45021816950637,214.8697279748825
355,7,740,0,24.69133333333296,3.1622776601683795,98.73196037757987,11.045361017187261,13.152946437965905,29.274562336608895,30.265491900843113,25.079872407968907,52.3450093132096,39.20459156782532,37.5,32.0,44.0,13.0,14.0,2.0,1.0,14.142135623730951,13.038404810405298,13.5,43.0,33.0,36.0,233.94443784796422,231.57936004747918,227.26416347501865,217.83020910791964
356,7,741,0,24.72469999999962,4.0,96.87620966986684,10.04987562112089,12.165525060596439,27.16615541441225,28.160255680657446,26.019223662515376,52.15361924162119,40.049968789001575,38.0,31.0,44.0,11.5,14.5,1.5,1.5,14.142135623730951,15.033296378372908,14.5,42.0,30.0,37.013511046643494,232.94849216082082,230.471256342304,226.99118925632334,217.2233873228203
