,frame_seq,video_id,gap,time_seconds,m1,m3,m4,m5,m6,m7,m8,m9,m10,m11,m12,m13,m14,m15,m16,m17,e1,e2,e3,b1,b2,b3,label_measures,label_inf
0,0,40,0,0.0,87.02298546935747,173.4877517290486,20.09975124224178,35.12833614050059,48.16637831516918,56.1426753904728,39.45883931389772,181.46625030566972,146.34206503941374,102.5,87.0,74.0,41.5,100.5,62.5,25.5,20.223748416156685,20.39607805437113,20.5,60.0,90.0,67.60177512462228,{},{}
1,1,40,0,0.0333666666666666,90.0222194794152,173.83325343558406,21.095023109728988,37.21558813185679,47.16990566028302,54.147945482723536,38.47076812334269,186.52613757862463,149.33519344079613,104.0,94.0,77.0,47.5,100.5,61.5,29.5,21.213203435596427,19.235384061671343,20.0,59.0,88.0,66.75327707311455,{},{}
2,2,40,0,0.0667333333333332,95.0210502993942,174.82848738120455,20.09975124224178,34.23448553724738,50.15974481593781,58.137767414994535,39.45883931389772,188.52055590836773,154.3243337908834,106.5,94.0,77.0,46.5,102.5,65.5,30.5,21.213203435596427,20.39607805437113,20.5,59.0,89.0,66.61080993352356,{},{}
3,3,40,0,0.1000999999999998,92.02173656261871,178.12635964393365,20.09975124224178,37.21558813185679,51.35172830587107,60.20797289396148,38.63935817272331,187.6006396577581,150.4027925272666,104.0,91.0,71.0,43.0,106.0,67.0,28.0,21.213203435596427,20.39607805437113,20.5,58.0,92.0,65.92419889539804,{},{}
4,4,40,0,0.1334666666666664,80.02499609497022,176.2554963681984,21.095023109728988,39.20459156782532,51.24451190127583,61.29437168288782,36.87817782917155,176.72577627499618,137.5245432641025,97.0,87.0,66.0,40.5,99.5,58.5,23.5,21.213203435596427,19.4164878389476,19.5,60.0,92.0,65.76473218982953,{},{}
5,5,40,0,0.166833333333333,56.00892785976178,178.90779748239035,21.095023109728988,40.19950248448356,50.24937810560445,58.30951894845301,38.63935817272331,155.63097378092831,115.43396380615197,87.0,76.0,58.0,29.0,88.0,47.0,13.0,23.194827009486403,21.37755832643195,21.5,58.0,92.0,71.02112361825881,{},{}
6,6,40,0,0.2001999999999996,39.0,178.01685313475238,18.110770276274835,38.2099463490856,46.2709412050371,52.3450093132096,42.579337712087536,137.6154061142865,99.40824915468536,79.5,70.0,51.0,18.5,76.5,37.5,5.5,25.079872407968907,23.345235059857504,23.5,59.0,92.0,68.8839603971781,{},{}
7,7,40,0,0.2335666666666662,26.019223662515376,168.4280261714184,16.1245154965971,35.12833614050059,42.1070065428546,48.0936586256442,49.16299421312742,126.25371281669304,91.13725912051558,78.0,69.0,57.0,14.0,63.0,26.0,2.0,24.08318915758459,22.36067977499789,23.5,59.0,93.0,68.06614430096654,{},{}
8,8,40,0,0.2669333333333328,15.033296378372908,163.24827717314508,16.1245154965971,35.12833614050059,40.01249804748511,45.0111097397076,52.08646657242167,118.20744477400736,83.09632964216891,75.5,66.0,57.0,9.5,56.5,19.5,3.5,24.08318915758459,23.53720459187964,24.5,58.0,92.0,71.84705978674423,{},{}
9,9,40,0,0.3002999999999994,13.0,170.57549648176317,19.1049731745428,36.12478373637688,41.10960958218893,47.09564735726647,52.23983154643591,120.41594578792296,84.29116205154607,77.5,67.0,53.0,8.0,60.0,22.0,7.0,25.079872407968907,24.186773244895647,24.5,59.0,92.0,71.84705978674423,{},{}
10,10,40,0,0.333666666666666,26.0,176.63804799646084,21.095023109728988,41.10960958218893,44.181444068749045,50.08991914547278,47.38143096192854,135.44740676735012,94.33981132056604,81.0,71.0,56.0,16.5,71.5,28.5,0.5,24.186773244895647,23.345235059857504,23.5,58.0,91.0,73.68174807915459,{},{}
11,11,40,0,0.3670333333333326,37.0,185.6906028855526,22.09072203437452,40.19950248448356,48.16637831516918,55.22680508593631,43.41658669218482,142.50614021858848,102.3132444994293,83.5,70.0,54.0,19.0,80.0,39.0,2.0,25.079872407968907,23.53720459187964,23.5,59.0,92.0,69.87131027825369,{},{}
12,12,40,0,0.4003999999999992,40.049968789001575,188.76705220986,22.02271554554524,37.12142238654117,50.24937810560445,57.21887800367987,41.593268686170845,140.60227594174995,103.4842983258813,83.0,70.0,53.0,20.5,78.5,40.5,3.5,25.079872407968907,22.20360331117452,23.0,59.0,93.0,70.03570517957252,{},{}
13,13,40,0,0.4337666666666658,42.01190307520001,190.7590102721232,23.194827009486403,37.21558813185679,51.15662224971465,58.30951894845301,39.45883931389772,141.69333082400175,104.47966309287182,83.0,69.0,52.0,21.5,80.5,42.5,3.5,25.179356624028344,24.33105012119288,24.5,60.0,93.0,70.8590149522275,{},{}
14,14,40,0,0.4671333333333324,44.04543109109048,191.7550520846844,22.09072203437452,35.22782990761707,52.23983154643591,59.30430001273095,38.47076812334269,139.70325694127536,104.47966309287182,82.0,68.0,51.0,21.5,79.5,43.5,4.5,25.079872407968907,23.194827009486403,23.5,60.0,93.0,69.87131027825369,{},{}
15,15,40,0,0.5004999999999991,47.01063709417264,191.049731745428,22.09072203437452,35.35533905932738,51.35172830587107,59.4138031100518,37.65634076752546,141.7956275771577,106.47065323364932,82.5,70.0,50.0,23.0,81.0,45.0,6.0,23.194827009486403,22.36067977499789,22.5,61.0,94.0,71.84705978674423,{},{}
16,16,40,0,0.5338666666666656,48.0936586256442,194.92819190666089,23.08679276123039,37.21558813185679,54.230987451824994,61.29437168288782,37.65634076752546,145.8800877433243,108.664621657649,84.0,71.0,52.0,24.5,83.5,45.5,7.5,23.194827009486403,22.36067977499789,22.5,61.0,94.0,71.84705978674423,{},{}
17,17,40,0,0.5672333333333321,55.03635162326805,194.03350226185168,22.09072203437452,36.22154055254967,54.230987451824994,62.28964600958975,38.47076812334269,151.64761785138597,115.43396380615197,87.5,75.0,55.0,27.0,86.0,48.0,10.0,13.341664064126334,12.649110640673518,12.5,61.0,94.0,71.7007670809734,{},{}
18,18,40,0,0.6005999999999987,58.077534382926416,196.23710148695125,22.02271554554524,36.22154055254967,53.33854141237835,61.40032573203501,36.345563690772494,152.55490814785344,116.3486140871476,87.0,74.0,52.0,27.0,89.0,52.0,10.0,9.848857801796104,9.219544457292889,8.5,62.0,95.0,68.06614430096654,{},{}
19,19,40,0,0.6339666666666652,55.03635162326805,197.2308292331602,21.095023109728988,37.33630940518894,53.23532661682466,62.28964600958975,37.48332962798263,150.74813431681335,113.44161493913953,85.5,74.0,52.0,26.0,87.0,49.0,10.0,8.602325267042627,7.280109889280518,6.5,59.0,92.0,72.00694410957877,{},{}
20,20,40,0,0.6673333333333318,57.0350769263968,196.3517252279694,22.09072203437452,36.345563690772494,54.3323108288245,62.39390995922599,36.49657518178932,151.74320413119,115.43396380615197,86.5,77.0,54.0,29.5,85.5,49.5,12.5,12.649110640673518,11.40175425099138,11.0,60.0,94.0,71.19691004531025,{},{}
21,21,40,0,0.7006999999999983,57.0087712549569,197.2308292331602,21.095023109728988,36.345563690772494,56.32051136131489,62.39390995922599,37.65634076752546,151.74320413119,115.43396380615197,86.5,76.0,54.0,28.0,86.0,50.0,12.0,14.317821063276352,13.341664064126334,13.5,59.0,93.0,72.18032973047436,{},{}
22,22,40,0,0.7340666666666649,57.0350769263968,196.3517252279694,21.095023109728988,35.35533905932738,55.326304774492215,62.39390995922599,36.6742416417845,149.85659811966906,114.5294721894762,85.5,74.0,51.0,26.5,86.5,51.5,11.5,17.26267650163207,16.278820596099706,16.5,60.0,94.0,73.348483283569,{},{}
23,23,40,0,0.7674333333333314,57.0350769263968,196.4713719603953,20.09975124224178,36.22154055254967,54.45181356024793,62.39390995922599,35.90264614203248,148.86235252742716,112.64102272262978,83.5,73.0,49.0,26.0,87.0,51.0,12.0,19.4164878389476,18.24828759089466,18.5,58.0,93.0,71.02112361825881,{},{}
24,24,40,0,0.800799999999998,57.07889277132134,198.22462006521792,21.095023109728988,36.22154055254967,55.44366510251645,61.29437168288782,34.713109915419565,148.86235252742716,112.64102272262978,83.5,71.0,49.0,26.0,88.0,51.0,11.0,20.39607805437113,19.235384061671343,19.5,59.0,92.0,71.02112361825881,{},{}
25,25,40,0,0.8341666666666645,57.07889277132134,198.22462006521792,21.095023109728988,36.22154055254967,55.44366510251645,61.29437168288782,34.713109915419565,148.86235252742716,112.64102272262978,83.5,71.0,49.0,26.0,88.0,51.0,11.0,20.39607805437113,19.235384061671343,19.5,59.0,92.0,71.02112361825881,{},{}
26,26,40,0,0.867533333333331,61.07372593840988,198.33809518093088,20.024984394500787,34.132096331752024,54.3323108288245,60.29925372672534,34.713109915419565,149.6562728387955,115.5248890932166,84.5,70.0,47.0,24.5,90.5,56.5,10.5,19.235384061671343,17.26267650163207,18.0,58.0,92.0,72.99315036357864,{},{}
27,27,40,0,0.9008999999999976,64.00781202322104,193.1450232338385,21.213203435596427,39.319206502675,56.32051136131489,64.28063471995279,35.510561809129406,159.70597985047397,120.41594578792296,88.0,73.0,52.0,27.5,96.5,55.5,12.5,21.213203435596427,19.235384061671343,19.5,59.0,94.0,68.24954212300622,{},{}
28,28,40,0,0.934266666666664,78.02563681252464,191.38704240360684,20.09975124224178,38.2099463490856,53.33854141237835,62.28964600958975,35.90264614203248,171.74690681348528,133.5402561027947,94.0,79.0,56.0,32.5,103.5,63.5,18.5,19.235384061671343,18.43908891458577,18.0,61.0,93.0,68.06614430096654,{},{}
29,29,40,0,0.9676333333333308,89.02246907382428,187.18172987767795,19.026297590440446,39.319206502675,54.3323108288245,63.28506932918696,37.10795063055895,183.7879212570837,144.49913494550754,99.5,81.0,60.0,34.5,112.5,70.5,20.5,19.235384061671343,17.26267650163207,17.5,60.0,92.0,69.2314957226839,{},{}
30,30,40,0,1.0009999999999972,92.04890004774636,187.0721785835617,19.1049731745428,38.2099463490856,54.230987451824994,63.198101237299845,37.8549864614954,186.77526602845464,148.56984889270095,102.0,84.0,64.0,37.0,112.0,71.0,22.0,20.223748416156685,19.235384061671343,19.0,60.0,93.0,68.06614430096654,{},{}
31,31,40,0,1.0343666666666638,82.05485969764375,188.28967045486056,21.095023109728988,40.19950248448356,54.230987451824994,63.28506932918696,36.87817782917155,179.8054504179448,139.60659010233005,98.0,84.0,62.0,37.0,106.0,64.0,21.0,19.235384061671343,18.43908891458577,18.5,60.0,93.0,66.09841147864296,{},{}
32,32,40,0,1.0677333333333303,70.02856560004639,193.25630649476875,23.08679276123039,38.3275357934736,54.3323108288245,63.38769596696192,36.6742416417845,167.7647161950331,129.46814279968643,94.0,85.0,63.0,38.0,93.0,55.0,20.0,20.39607805437113,18.43908891458577,18.5,59.0,91.0,70.03570517957252,{},{}
33,33,40,0,1.1010999999999969,67.02984409947557,194.2498391247725,22.09072203437452,37.12142238654117,54.230987451824994,62.28964600958975,37.65634076752546,163.6001222493431,126.4792473095883,92.5,84.0,62.0,36.0,90.0,53.0,19.0,20.223748416156685,19.235384061671343,18.5,59.0,91.0,66.91038783328041,{},{}
34,34,40,0,1.1344666666666634,62.03224967708329,192.04426573058612,23.08679276123039,37.21558813185679,52.3450093132096,61.29437168288782,40.60788100849391,162.69296235547498,125.4830665866913,94.0,83.0,63.0,33.0,89.0,51.0,16.0,20.39607805437113,18.24828759089466,18.5,58.0,88.0,67.89698078707183,{},{}
35,35,40,0,1.16783333333333,56.0357029044876,187.18172987767795,21.095023109728988,38.11823710509184,48.373546489791295,57.42821606144492,45.27692569068709,160.44936896105264,122.3315167894194,94.0,80.0,59.0,24.5,90.5,52.5,9.5,20.223748416156685,18.43908891458577,18.5,59.0,90.0,72.83543093852057,{},{}
36,36,40,0,1.2011999999999965,45.0111097397076,175.82377541163197,20.09975124224178,39.11521443121589,45.27692569068709,53.23532661682466,49.16299421312742,153.32644912082193,114.21471008587292,91.5,79.0,62.0,21.5,82.5,41.5,6.5,8.94427190999916,8.246211251235321,8.0,58.0,86.0,71.7007670809734,{},{}
37,37,40,0,1.234566666666663,36.013886210738214,162.60381299342276,19.1049731745428,37.12142238654117,40.19950248448356,47.16990566028302,53.150729063673246,145.34441853748632,108.2266141020775,90.0,81.0,67.0,21.0,71.0,32.0,6.0,8.94427190999916,8.246211251235321,8.0,61.0,88.0,70.03570517957252,{},{}
38,38,40,0,1.2679333333333296,28.0713376952364,150.8509197850646,20.09975124224178,38.11823710509184,35.35533905932738,41.43669871020132,59.30430001273095,145.58159224297555,107.46627377926528,93.0,88.0,72.0,21.0,65.0,26.0,5.0,8.54400374531753,9.055385138137416,9.0,60.0,86.0,69.58448102845921,{},{}
39,39,40,0,1.301299999999996,31.064449134018133,144.25671561490648,16.1245154965971,33.24154027718932,33.37663853655727,38.47076812334269,65.49045732013177,145.8800877433243,112.64102272262978,96.5,94.0,75.0,19.5,60.5,27.5,7.5,9.848857801796104,9.055385138137416,8.5,61.0,87.0,68.59300255857006,{},{}
40,40,40,0,1.334666666666663,33.24154027718932,143.26548781894402,16.1245154965971,30.4138126514911,32.55764119219941,38.3275357934736,69.35416353759881,149.09057649630307,118.71394189394942,101.5,96.0,77.0,17.5,61.5,30.5,6.5,15.524174696260024,14.142135623730953,14.0,62.0,88.0,69.58448102845921,{},{}
41,41,40,0,1.3680333333333292,25.079872407968907,143.13629868066312,17.26267650163207,32.38826948140329,31.25699921617557,36.22154055254967,71.34423592694787,145.9931505242626,113.63538181394031,100.5,96.0,78.0,16.0,58.0,25.0,3.0,18.24828759089466,17.11724276862369,17.0,62.0,88.0,69.58448102845921,{},{}
42,42,40,0,1.4013999999999958,19.1049731745428,145.38225476308995,17.11724276862369,30.4138126514911,32.38826948140329,37.33630940518894,71.56814934033156,138.1774221788784,107.78682665335316,97.5,93.0,73.0,12.0,54.0,23.0,0.0,22.20360331117452,20.09975124224178,20.5,65.0,90.0,68.59300255857006,{},{}
43,43,40,0,1.4347666666666623,18.027756377319943,149.4824404403407,20.09975124224178,32.38826948140329,35.35533905932738,39.319206502675,66.48308055437865,136.93794214898952,104.58011283222064,95.0,92.0,71.0,15.5,54.5,21.5,0.5,23.194827009486403,21.37755832643195,21.5,61.0,88.0,68.46897107449476,{},{}
44,44,40,0,1.4681333333333288,23.021728866442675,158.14550262337528,20.09975124224178,34.23448553724738,37.33630940518894,43.28972164382672,62.51399843235114,139.8070098385628,105.57461816175324,93.5,86.0,67.0,14.5,62.5,27.5,0.5,23.08679276123039,21.095023109728988,21.5,63.0,87.0,66.75327707311455,{},{}
45,45,40,0,1.5014999999999954,48.010415536631214,173.04623659588788,19.1049731745428,38.11823710509184,42.2965719651132,50.35871324805669,50.48762224545735,155.54420593516173,117.42657280190032,93.0,83.0,64.0,23.5,81.5,42.5,8.5,22.20360331117452,21.095023109728988,21.0,62.0,87.0,69.72087205421343,{},{}
46,46,40,0,1.534866666666662,54.0,182.7922317824256,16.1245154965971,35.12833614050059,45.27692569068709,53.33854141237835,47.38143096192854,152.3975065412817,117.27318534089538,90.0,77.0,60.0,21.5,83.5,46.5,10.5,20.223748416156685,19.1049731745428,19.0,62.0,87.0,66.75327707311455,{},{}
47,47,40,0,1.5682333333333285,49.01020301937138,194.8332620473209,15.132745950421556,36.12478373637688,47.265209192385896,55.326304774492215,45.27692569068709,145.41664278891878,109.2931836849856,84.5,69.0,51.0,15.0,85.0,48.0,5.0,8.54400374531753,8.06225774829855,8.0,59.0,85.0,68.59300255857006,{},{}
48,48,40,0,1.601599999999995,49.04079934095692,194.8332620473209,16.1245154965971,35.12833614050059,47.265209192385896,54.3323108288245,44.40720662234904,144.5856147754679,109.45775440780794,84.5,67.0,49.0,14.0,86.0,49.0,3.0,7.615773105863909,7.071067811865476,7.0,59.0,83.0,68.73136110975832,{},{}
49,49,40,0,1.6349666666666616,40.01249804748511,191.049731745428,15.132745950421556,34.132096331752024,46.2709412050371,52.3450093132096,48.16637831516918,137.3644786689776,103.23759005323592,83.0,68.0,48.0,10.0,79.0,44.0,0.0,11.40175425099138,11.04536101718726,10.5,58.0,82.0,64.6297145282261,{},{}
50,50,40,0,1.668333333333328,39.05124837953327,181.8928255869373,13.038404810405298,35.12833614050059,43.18564576337837,49.25444142409901,52.46903848937962,139.60659010233005,104.47966309287182,84.5,68.0,50.0,7.0,80.0,42.0,1.0,7.615773105863909,7.071067811865476,7.0,59.0,83.0,65.62011886609167,{},{}
51,51,40,0,1.7016999999999949,31.0,174.73408368146153,13.152946437965904,36.22154055254967,41.19465984809196,47.16990566028302,54.3323108288245,134.5362404707371,98.32598842625484,82.5,67.0,51.0,5.0,75.0,36.0,3.0,10.770329614269007,9.055385138137416,9.5,57.0,82.0,70.57619995437555,{},{}
52,52,40,0,1.7350666666666612,26.0768096208106,167.5857989210303,15.033296378372908,38.11823710509184,37.12142238654117,44.10215414239989,56.56854249492381,135.72398461583714,97.62171889492625,84.0,69.0,55.0,6.0,73.0,32.0,5.0,14.317821063276352,13.152946437965904,13.0,55.0,79.0,69.58448102845921,{},{}
53,53,40,0,1.7684333333333278,20.024984394500787,157.62296786953354,16.1245154965971,35.12833614050059,34.132096331752024,41.10960958218893,58.30951894845301,129.5569372901351,94.4298681562142,84.0,72.0,58.0,7.0,64.0,27.0,5.0,18.24828759089466,16.1245154965971,16.5,57.0,82.0,69.58448102845921,{},{}
54,54,40,0,1.8017999999999943,13.038404810405298,156.3873396410336,17.11724276862369,35.12833614050059,34.132096331752024,40.049968789001575,60.20797289396148,125.4830665866913,90.35485598461214,83.5,73.0,62.0,7.5,57.5,19.5,5.5,20.223748416156685,19.1049731745428,19.0,59.0,82.0,68.46897107449476,{},{}
55,55,40,0,1.8351666666666608,12.041594578792296,156.46085772486356,18.110770276274835,36.12478373637688,35.12833614050059,40.11234224026316,59.21148537234985,125.4830665866913,89.35882720806042,83.0,75.0,63.0,10.0,56.0,18.0,4.0,21.213203435596427,20.09975124224178,20.0,58.0,81.0,68.59300255857006,{},{}
56,56,40,0,1.868533333333328,19.0,158.3161394173064,20.024984394500787,36.12478373637688,38.11823710509184,44.04543109109048,56.32051136131489,131.38112497615478,95.25754563287887,85.5,78.0,68.0,17.0,58.0,19.0,1.0,22.20360331117452,20.09975124224178,20.5,59.0,83.0,67.60177512462228,{},{}
57,57,40,0,1.901899999999994,31.016124838541646,163.19620093617377,20.024984394500787,38.05259518088089,41.04875150354759,48.04164859785725,52.3450093132096,141.35416513141735,103.31021246711283,87.5,80.0,72.0,24.0,65.0,24.0,7.0,21.213203435596427,20.09975124224178,20.0,58.0,82.0,70.57619995437555,{},{}
58,58,40,0,1.9352666666666605,45.0,166.10839834276894,20.09975124224178,39.05124837953327,45.044422518220834,52.009614495783374,48.373546489791295,152.3285921946369,113.28283188550682,90.5,82.0,76.0,31.0,73.0,31.0,14.0,21.095023109728988,20.09975124224178,20.0,59.0,83.0,69.58448102845921,{},{}
59,59,40,0,1.968633333333327,48.010415536631214,172.14238292762187,19.026297590440446,38.05259518088089,47.042533945356304,54.00925846556311,48.373546489791295,153.32644912082193,115.27792503337317,91.0,82.0,75.0,30.5,74.5,33.5,14.5,21.213203435596427,19.1049731745428,19.0,58.0,80.0,69.46221994724903,{},{}
60,60,40,0,2.0019999999999936,37.01351104664349,170.23806859806652,18.027756377319943,35.05709628591621,45.044422518220834,52.009614495783374,51.24451190127583,141.28694207179942,106.23088063270492,87.5,82.0,73.0,26.5,63.5,25.5,11.5,18.24828759089466,17.11724276862369,17.0,60.0,82.0,68.46897107449476,{},{}
61,61,40,0,2.0353666666666603,14.0356688476182,172.23530416264836,22.02271554554524,38.05259518088089,40.049968789001575,46.04345773288535,54.147945482723536,128.2497563350512,90.19977827023745,83.0,78.0,69.0,19.5,54.5,14.5,0.5,11.40175425099138,10.0,10.0,57.0,78.0,67.60177512462228,{},{}
62,62,40,0,2.068733333333327,2.0,175.28548142958104,23.021728866442675,35.12833614050059,42.04759208325728,47.01063709417264,54.08326913195984,114.21471008587292,79.1012010022604,78.0,76.0,66.0,17.0,43.0,6.0,2.0,8.54400374531753,8.06225774829855,8.0,59.0,80.0,67.47592163134935,{},{}
63,63,40,0,2.102099999999994,1.4142135623730951,175.28548142958104,24.020824298928627,37.05401462729781,43.10452412450461,48.0936586256442,53.150729063673246,115.27792503337317,78.23042886243178,77.5,77.0,67.0,19.0,43.0,4.0,1.0,10.44030650891055,9.0,9.0,58.0,77.0,66.61080993352356,{},{}
64,64,40,0,2.1354666666666606,2.23606797749979,171.29214809792072,24.020824298928627,39.05124837953327,43.10452412450461,47.09564735726647,55.22680508593631,120.33702672078948,81.30190649671138,80.0,79.0,69.0,19.0,46.0,5.0,1.0,10.770329614269007,9.055385138137416,9.0,60.0,80.0,67.47592163134935,{},{}
65,65,40,0,2.1688333333333274,22.02271554554524,168.1903683330291,21.02379604162864,37.05401462729781,42.04759208325728,48.0936586256442,55.22680508593631,135.29966740535616,98.2496819333274,87.0,80.0,72.0,21.0,59.0,19.0,3.0,12.36931687685298,12.041594578792296,12.0,59.0,81.0,70.45565981523414,{},{}
66,66,40,0,2.202199999999994,42.01190307520001,168.24089871371942,17.029386365926403,38.05259518088089,43.04648650006177,50.039984012787215,52.23983154643591,149.27156460625713,111.22050170719426,90.0,82.0,73.0,25.5,71.5,31.5,11.5,16.278820596099706,14.142135623730953,14.0,60.0,82.0,69.46221994724903,{},{}
67,67,40,0,2.235566666666661,52.0,174.14074767268,14.0356688476182,35.05709628591621,43.04648650006177,50.08991914547278,51.15662224971465,152.16109883935513,117.1067888723792,91.0,79.0,72.0,24.5,76.5,40.5,13.5,18.24828759089466,17.11724276862369,17.0,60.0,82.0,68.46897107449476,{},{}
68,68,40,0,2.268933333333328,46.0,177.341478509682,14.142135623730953,35.05709628591621,44.10215414239989,50.15974481593781,49.16299421312742,144.22205101855957,109.16501271011695,86.0,78.0,67.0,23.5,71.5,35.5,12.5,20.223748416156685,19.1049731745428,19.5,59.0,82.0,66.48308055437865,{},{}
69,69,40,0,2.3022999999999945,39.01281840626232,178.22738285684386,13.038404810405298,31.064449134018133,44.04543109109048,50.08991914547278,48.0936586256442,131.0953851209111,100.04498987955368,80.5,72.0,63.0,19.5,63.5,31.5,9.5,21.095023109728988,19.1049731745428,19.5,58.0,80.0,67.60177512462228,{},{}
70,70,40,0,2.335666666666661,42.01190307520001,177.341478509682,14.0356688476182,34.058772731852805,46.09772228646444,52.23983154643591,47.09564735726647,137.09121051329294,103.04368005850722,82.0,72.0,61.0,19.5,70.5,34.5,9.5,20.223748416156685,19.1049731745428,19.5,58.0,79.0,64.6297145282261,{},{}
71,71,40,0,2.369033333333328,44.0,177.40631330367023,15.033296378372908,38.05259518088089,45.09988913511872,50.24937810560445,44.04543109109048,141.088624630053,103.04368005850722,81.0,73.0,61.0,23.0,74.0,35.0,11.0,19.4164878389476,17.26267650163207,17.5,57.0,79.0,64.6297145282261,{},{}
72,72,40,0,2.4023999999999948,41.0,177.47675904185314,14.142135623730953,34.058772731852805,46.17358552246078,52.3450093132096,46.09772228646444,135.18135966175217,101.1236866416568,80.5,77.0,64.0,24.5,64.5,30.5,13.5,11.704699910719626,11.04536101718726,11.5,56.0,78.0,67.36467917239716,{},{}
73,73,40,0,2.435766666666661,57.0,177.63445611704955,15.132745950421556,34.058772731852805,45.09988913511872,52.23983154643591,43.18564576337837,149.21461054467824,115.15641536623131,86.5,79.0,64.0,28.5,77.5,42.5,16.5,8.54400374531753,8.06225774829855,8.5,61.0,83.0,60.40695324215582,{},{}
74,74,40,0,2.4691333333333283,67.0,178.54971296532514,15.033296378372908,34.058772731852805,46.09772228646444,53.150729063673246,42.2965719651132,158.2024020045208,124.14507642270796,90.5,79.0,65.0,30.0,86.0,50.0,18.0,8.54400374531753,8.06225774829855,8.0,61.0,82.0,61.5223536610881,{},{}
75,75,40,0,2.502499999999995,72.0,179.5466513193716,18.027756377319943,36.12478373637688,46.17358552246078,54.230987451824994,40.19950248448356,166.19265928433782,130.09611831257686,94.0,80.0,66.0,33.0,93.0,55.0,19.0,8.06225774829855,8.246211251235321,7.5,61.0,83.0,61.40032573203501,{},{}
76,76,40,0,2.535866666666662,74.0,180.46883387443933,17.029386365926403,37.12142238654117,48.16637831516918,56.22277118748239,41.30375285612676,169.23947530053383,132.13629327327143,95.0,79.0,66.0,31.5,96.5,57.5,17.5,10.44030650891055,10.04987562112089,10.0,59.0,81.0,63.38769596696192,{},{}
77,77,40,0,2.5692333333333286,65.0,176.555940143627,19.026297590440446,36.05551275463989,46.17358552246078,54.230987451824994,42.42640687119285,162.24980739587951,126.19429464123962,93.5,79.0,65.0,30.0,90.0,52.0,15.0,14.317821063276352,13.152946437965904,13.0,58.0,79.0,65.49045732013177,{},{}
78,78,40,0,2.602599999999996,35.0,171.74690681348528,20.09975124224178,35.12833614050059,42.2965719651132,48.25971404805462,48.25971404805462,138.36184445142382,103.23759005323592,85.5,78.0,62.0,22.0,68.0,31.0,6.0,17.26267650163207,15.033296378372908,15.5,57.0,81.0,65.49045732013177,{},{}
79,79,40,0,2.635966666666662,2.0,164.43843832875572,22.09072203437452,30.14962686336267,41.10960958218893,44.10215414239989,52.15361924162119,106.38138934982942,76.23647421018367,75.0,76.0,64.0,18.0,36.0,5.0,0.0,19.235384061671343,16.0312195418814,17.0,55.0,76.0,64.4980619863884,{},{}
80,80,40,0,2.669333333333329,2.0,162.30834852218786,23.08679276123039,34.132096331752024,42.04759208325728,46.09772228646444,52.08646657242167,111.28791488746656,77.1621668954417,76.0,79.0,69.0,22.0,37.0,1.0,2.0,21.213203435596427,19.235384061671343,19.0,55.0,77.0,65.62011886609167,{},{}
81,81,40,0,2.702699999999996,10.04987562112089,166.14752480852673,22.09072203437452,38.11823710509184,43.04648650006177,48.0,51.03920062069938,121.1486689980538,83.05419917138447,78.0,80.0,73.0,25.5,44.5,4.5,5.5,20.223748416156685,19.1049731745428,19.5,55.0,78.0,65.62011886609167,{},{}
82,82,40,0,2.7360666666666624,23.0,166.10839834276894,18.027756377319943,36.12478373637688,44.01136216933077,49.04079934095692,47.16990566028302,124.25779653607252,88.14193099768123,76.5,78.0,72.0,28.0,49.0,11.0,12.0,20.223748416156685,19.1049731745428,20.0,55.0,77.0,65.49045732013177,{},{}
83,83,40,0,2.769433333333329,20.0,172.14238292762187,17.029386365926403,36.12478373637688,44.04543109109048,49.04079934095692,45.17742799230607,118.27087553578016,82.15229759416349,72.0,73.0,66.0,24.5,48.5,11.5,10.5,20.39607805437113,18.110770276274835,18.5,53.0,76.0,64.6297145282261,{},{}
84,84,40,0,2.802799999999996,16.0312195418814,176.13914953808538,16.1245154965971,34.058772731852805,44.04543109109048,49.04079934095692,45.17742799230607,111.22050170719426,77.1621668954417,69.0,70.0,63.0,21.5,44.5,8.5,8.5,19.235384061671343,17.26267650163207,17.5,54.0,79.0,66.75327707311455,{},{}
85,85,40,0,2.8361666666666627,15.0,178.13758727455584,16.0312195418814,34.132096331752024,46.04345773288535,49.04079934095692,44.181444068749045,109.2931836849856,75.16648189186454,67.5,68.0,61.0,20.5,44.5,9.5,7.5,17.46424919657298,17.11724276862369,17.5,53.0,78.0,66.91038783328041,{},{}
86,86,40,0,2.869533333333329,21.02379604162864,180.3995565404749,15.132745950421556,32.14031735997639,46.17358552246078,50.08991914547278,44.181444068749045,112.44554237496476,80.30566605165541,69.5,69.0,57.0,19.0,49.0,16.0,8.0,19.235384061671343,18.110770276274835,18.0,52.0,78.0,65.76473218982953,{},{}
87,87,40,0,2.9028999999999963,38.0,178.4040358287895,15.132745950421556,35.12833614050059,45.17742799230607,50.24937810560445,42.2965719651132,130.38404810405297,95.25754563287887,76.0,72.0,60.0,24.0,64.0,28.0,13.0,18.68154169226941,17.11724276862369,17.0,53.0,80.0,65.11528238439882,{},{}
88,88,40,0,2.936266666666663,54.00925846556311,181.8928255869373,15.132745950421556,35.22782990761707,45.17742799230607,52.3450093132096,43.18564576337837,147.41099009232656,112.21853679316978,85.0,78.0,60.0,26.0,78.0,42.0,15.0,18.24828759089466,16.278820596099706,16.5,51.0,80.0,63.63961030678928,{},{}
89,89,40,0,2.96963333333333,59.00847396772772,181.463494951464,18.24828759089466,34.36568055487916,47.38143096192854,54.589376255824725,44.10215414239989,155.46382215808282,121.2023102090055,91.5,86.0,63.0,30.5,80.5,46.5,17.5,18.68154169226941,16.278820596099706,16.5,47.0,78.0,64.13267497929586,{},{}
90,90,40,0,3.002999999999997,66.0,181.8680840609479,18.110770276274835,35.510561809129406,47.51841748206689,55.90169943749474,43.10452412450461,162.3730273167314,127.09838708654016,94.0,91.0,65.0,35.0,84.0,51.0,22.0,17.72004514666935,17.26267650163207,17.0,43.0,76.0,61.0,{},{}
91,91,40,0,3.036366666666664,76.0,172.13076424625552,19.1049731745428,31.575306807693888,47.51841748206689,53.75872022286245,43.18564576337837,169.42549985170473,138.13037319865606,100.0,101.0,74.0,44.5,81.5,51.5,29.5,18.97366596101028,17.26267650163207,17.5,47.0,81.0,62.369864518050704,{},{}
92,92,40,0,3.06973333333333,61.00819617067857,159.81239000778382,22.20360331117452,34.713109915419565,44.40720662234904,50.80354318352215,47.38143096192854,164.87874332369228,130.38404810405297,99.5,107.0,83.0,48.0,69.0,36.0,30.0,18.97366596101028,17.46424919657298,18.0,43.0,77.0,64.53681120105021,{},{}
93,93,40,0,3.103099999999997,25.079872407968907,158.31929762350515,24.08318915758459,32.55764119219941,40.44749683231337,45.70557952810576,52.61178575186362,134.21251804507656,101.71037311896951,88.5,104.0,77.0,38.5,42.5,12.5,18.5,18.027756377319943,15.297058540778355,16.0,41.0,76.0,59.22837157984339,{},{}
94,94,40,0,3.136466666666664,2.23606797749979,158.67577004697347,24.08318915758459,30.59411708155671,38.47076812334269,41.593268686170845,51.62363799656123,107.5174404457249,76.94153624668537,75.5,95.0,72.0,32.5,22.5,5.5,12.5,19.92485884517128,17.26267650163207,18.0,42.0,75.0,60.01666435249463,{},{}
95,95,40,0,3.1698333333333304,2.23606797749979,155.7080601638849,21.095023109728988,30.59411708155671,37.33630940518894,39.6232255123179,52.61178575186362,105.54619841567008,74.96665925596525,73.5,96.0,73.0,32.5,19.5,8.5,14.5,18.97366596101028,17.26267650163207,17.5,43.0,74.0,61.0,{},{}
96,96,40,0,3.203199999999997,1.4142135623730951,145.67086187704115,22.09072203437452,29.61418578992169,37.33630940518894,40.60788100849391,47.51841748206689,100.2845950283492,70.71067811865476,69.5,92.0,70.0,34.0,18.0,10.0,16.0,19.6468827043885,18.24828759089466,18.5,49.0,78.0,59.84145720150872,{},{}
97,97,40,0,3.236566666666664,1.4142135623730951,162.77899127344412,23.08679276123039,32.55764119219941,38.47076812334269,41.593268686170845,45.5411901469428,102.25947388873072,69.72087205421343,68.5,91.0,67.0,34.0,22.0,8.0,15.0,18.027756377319943,15.524174696260024,15.0,48.0,75.0,62.80127387243033,{},{}
98,98,40,0,3.2699333333333307,7.071067811865476,158.97798589741913,22.20360331117452,31.400636936215164,39.45883931389772,42.95346318982906,47.265209192385896,107.91200118615168,76.53103945458993,72.5,91.0,66.0,31.5,28.5,0.5,13.5,18.68154169226941,16.278820596099706,16.5,51.0,75.0,60.67124524847005,{},{}
99,99,40,0,3.303299999999997,17.0,165.22106403240477,23.08679276123039,34.52535300326414,41.43669871020132,45.89117562233506,48.25971404805462,122.6906679417795,88.2779700718135,79.5,92.0,65.0,30.5,43.5,11.5,11.5,18.68154169226941,17.46424919657298,16.5,52.0,78.0,60.67124524847005,{},{}
100,100,40,0,3.336666666666664,40.049968789001575,166.37307474468338,22.09072203437452,35.510561809129406,46.69047011971501,51.19570294468082,47.09564735726647,144.5856147754679,109.22453936730518,89.0,94.0,66.0,33.0,64.0,31.0,16.0,19.6468827043885,16.76305461424021,16.5,51.0,76.0,62.39390995922599,{},{}
101,101,40,0,3.370033333333331,53.03772242470448,170.6575518399347,18.110770276274835,33.54101966249684,46.87216658103186,53.60037313302959,47.01063709417264,151.40013210033868,118.10588469674153,91.5,93.0,63.0,31.0,73.0,42.0,18.0,20.615528128088304,17.46424919657298,17.0,50.0,76.0,60.53098380168623,{},{}
102,102,40,0,3.4033999999999978,53.08483775994799,169.85287751463028,17.11724276862369,35.35533905932738,46.87216658103186,53.36665625650534,49.04079934095692,154.46682491719702,119.2057045614848,92.5,95.0,64.0,30.5,74.5,42.5,18.5,19.4164878389476,17.26267650163207,17.5,50.0,77.0,62.64982043070834,{},{}
103,103,40,0,3.4367666666666645,53.03772242470448,173.3666634621547,15.132745950421556,34.52535300326414,47.07440918375928,53.36665625650534,49.04079934095692,151.47607071745688,117.15374513859982,90.5,92.0,58.0,26.0,76.0,45.0,17.0,17.72004514666935,16.492422502470642,16.5,51.0,79.0,61.66036003787198,{},{}
104,104,40,0,3.470133333333332,52.03844732503075,168.46661390317072,14.142135623730953,35.510561809129406,45.89117562233506,51.66236541235796,47.16990566028302,148.66068747318505,113.28283188550682,87.0,93.0,59.0,29.0,72.0,40.0,21.0,18.68154169226941,16.492422502470642,17.0,52.0,81.0,61.5223536610881,{},{}
105,105,40,0,3.503499999999998,56.0,167.09278859364338,13.152946437965904,34.36568055487916,42.579337712087536,49.72926703662542,44.28317965096906,147.48898263938224,113.21660655575224,85.0,92.0,60.0,32.0,71.0,40.0,23.0,22.56102834535696,21.587033144922906,21.0,54.0,81.0,63.63961030678928,{},{}
106,106,40,0,3.536866666666665,51.0,163.1686244349691,13.152946437965904,35.510561809129406,44.553338819890925,51.66236541235796,45.39823785126467,144.6789549312546,109.2931836849856,83.5,98.0,66.0,37.0,62.0,31.0,28.0,21.587033144922906,19.4164878389476,19.0,55.0,82.0,62.64982043070834,{},{}
107,107,40,0,3.570233333333332,55.0,159.24823389915505,15.132745950421556,36.49657518178932,44.553338819890925,50.44799302251776,44.553338819890925,150.74813431681335,114.35471131527552,86.5,101.0,69.0,41.0,65.0,32.0,30.0,21.587033144922906,19.6468827043885,19.0,56.0,85.0,61.66036003787198,{},{}
108,108,40,0,3.6035999999999984,52.0,152.7776161615307,16.1245154965971,37.48332962798263,44.40720662234904,50.99019513592785,44.553338819890925,149.75313018431368,112.36102527122117,86.0,102.0,73.0,43.5,61.5,27.5,31.5,21.587033144922906,20.615528128088304,20.5,58.0,86.0,65.62011886609167,{},{}
109,109,40,0,3.636966666666665,55.03635162326805,155.9134375222354,15.132745950421556,35.35533905932738,44.553338819890925,50.69516742254631,45.27692569068709,150.33296378372907,115.1086443322134,87.5,100.0,70.0,40.0,65.0,33.0,29.0,24.515301344262525,23.53720459187964,22.5,59.0,86.0,65.76473218982953,{},{}
110,110,40,0,3.670333333333332,62.00806399170998,158.68522300453813,16.1245154965971,39.45883931389772,44.7213595499958,52.392747589718944,44.28317965096906,161.4465855941215,122.14745187681976,91.0,102.0,68.0,41.0,76.0,40.0,30.0,24.515301344262525,22.56102834535696,22.5,61.0,88.0,66.48308055437865,{},{}
111,111,40,0,3.703699999999999,56.0,171.0204666114556,15.132745950421556,39.319206502675,44.91102314577124,51.419840528729765,46.09772228646444,156.32018423735306,117.1067888723792,89.0,93.0,61.0,31.0,79.0,42.0,21.0,22.80350850198276,19.4164878389476,20.0,54.0,84.0,67.7421582177598,{},{}
112,112,40,0,3.7370666666666654,54.0,177.55280904564702,16.1245154965971,39.45883931389772,48.83646178829912,55.10898293381942,46.01086828130936,155.2610704587599,116.03878661895772,89.0,89.0,59.0,28.0,81.0,44.0,18.0,23.53720459187964,20.39607805437113,21.5,55.0,87.0,70.8590149522275,{},{}
113,113,40,0,3.770433333333332,48.0,178.88543819998318,19.235384061671343,46.2709412050371,47.29693436154187,53.60037313302959,45.0111097397076,158.15498727514097,112.01785571952357,88.0,91.0,59.0,30.0,83.0,41.0,18.0,24.33105012119288,22.36067977499789,22.5,61.0,94.0,68.8839603971781,{},{}
114,114,40,0,3.803799999999999,60.0,180.8535318980528,17.11724276862369,39.319206502675,46.87216658103186,53.150729063673246,48.010415536631214,164.1097193952875,125.00399993600205,95.0,90.0,58.0,26.0,90.0,53.0,15.0,24.515301344262525,21.840329667841555,21.5,60.0,91.0,66.75327707311455,{},{}
115,115,40,0,3.8371666666666657,56.0,181.49655644116223,17.26267650163207,42.2965719651132,48.05205510693585,55.31726674375732,47.042533945356304,162.11107303327557,120.0041665943312,92.0,89.0,59.0,27.0,88.0,49.0,17.0,22.56102834535696,18.43908891458577,19.0,57.0,89.0,68.73136110975832,{},{}
116,116,40,0,3.870533333333333,47.01063709417264,179.3599732381782,16.1245154965971,40.311288741492746,47.07440918375928,53.150729063673246,49.01020301937138,152.26621424334422,112.0714058089752,88.5,88.0,59.0,24.5,78.5,39.5,15.5,27.29468812791236,24.515301344262525,25.0,58.0,90.0,67.47592163134935,{},{}
117,117,40,0,3.9038999999999993,41.04875150354759,171.30382365843442,17.11724276862369,39.20459156782532,44.91102314577124,50.00999900019995,48.010415536631214,145.27904184706065,106.1178590059185,85.5,88.0,60.0,26.0,71.0,33.0,15.0,25.317977802344327,22.36067977499789,23.0,63.0,90.0,70.57619995437555,{},{}
118,118,40,0,3.937266666666666,35.0,167.35889578985635,19.1049731745428,37.33630940518894,41.97618372363071,46.32493928760188,50.08991914547278,141.35416513141735,104.12012293500234,86.5,91.0,63.0,27.0,64.0,29.0,14.0,24.33105012119288,21.37755832643195,22.0,64.0,90.0,71.449282711585,{},{}
119,119,40,0,3.970633333333333,40.01249804748511,157.99050604387594,17.11724276862369,38.3275357934736,42.579337712087536,48.05205510693585,53.150729063673246,148.33745312630927,110.1135777277262,90.0,94.0,69.0,28.5,66.5,29.5,15.5,25.317977802344327,23.769728648009423,23.5,61.0,89.0,67.7421582177598,{},{}
120,120,40,0,4.004,44.04543109109048,140.57738082636197,17.11724276862369,38.11823710509184,35.510561809129406,41.593268686170845,55.326304774492215,154.26276284314372,116.15506876585285,94.0,100.0,79.0,34.5,64.5,26.5,20.5,30.26549190084312,26.68332812825267,26.5,62.0,93.0,72.56031973468694,{},{}
121,121,40,0,4.037366666666666,38.11823710509184,131.21356637177422,23.021728866442675,40.311288741492746,33.95585369269929,39.81205847478876,58.30951894845301,159.25451327984396,119.06720791217036,100.0,108.0,84.0,38.0,63.0,24.0,19.0,28.442925306655784,23.769728648009423,24.0,64.0,95.0,70.71067811865476,{},{}
122,122,40,0,4.070733333333333,40.049968789001575,126.90547663517128,22.0,38.11823710509184,31.32091952673165,36.1386219991853,58.54912467321779,158.25612152457168,120.14990636700472,100.0,108.0,81.0,36.5,63.5,27.5,19.5,30.26549190084312,25.70992026436488,25.5,65.0,94.0,73.55270219373317,{},{}
123,123,40,0,4.1041,38.05259518088089,120.41594578792296,21.02379604162864,36.22154055254967,27.202941017470888,32.28002478313795,62.39390995922599,157.31814898478814,121.1486689980538,102.0,112.0,88.0,38.0,57.0,22.0,21.0,30.4138126514911,26.68332812825267,26.5,62.0,93.0,71.56814934033156,{},{}
124,124,40,0,4.137466666666667,30.066592756745816,123.5556554755791,21.095023109728988,37.21558813185679,28.16025568065745,32.28002478313795,61.29437168288782,149.33519344079613,112.16059914247964,97.0,108.0,83.0,34.5,53.5,19.5,17.5,31.25699921617557,26.476404589747453,26.0,60.0,95.0,68.73136110975832,{},{}
125,125,40,0,4.170833333333333,22.09072203437452,123.7618681177688,20.024984394500787,38.3275357934736,28.16025568065745,33.24154027718932,64.28063471995279,144.34680460612904,106.1178590059185,95.0,106.0,80.0,29.0,51.0,17.0,13.0,30.4138126514911,26.68332812825267,26.0,60.0,93.0,71.7007670809734,{},{}
126,126,40,0,4.2042,12.16552506059644,133.55523202031435,21.02379604162864,36.345563690772494,27.202941017470888,31.32091952673165,63.12685640834652,132.24220203853233,96.04686356149271,90.0,102.0,76.0,26.0,43.0,11.0,9.0,29.42787793912432,26.68332812825267,25.5,61.0,95.0,69.72087205421343,{},{}
127,127,40,0,4.237566666666667,4.123105625617661,140.24621207005913,21.095023109728988,34.23448553724738,29.120439557122072,32.57299494980466,64.0,123.1990259701756,89.05054744357274,87.0,97.0,72.0,20.5,38.5,6.5,4.5,29.42787793912432,24.515301344262525,24.0,58.0,93.0,72.56031973468694,{},{}
128,128,40,0,4.270933333333334,9.219544457292889,148.94629904767692,19.026297590440446,33.13608305156178,33.95585369269929,38.3275357934736,63.198101237299845,124.1974234837422,91.08786966440702,86.5,95.0,71.0,20.0,41.0,10.0,7.0,30.4138126514911,26.68332812825267,26.5,61.0,93.0,73.97972695272672,{},{}
129,129,40,0,4.3043000000000005,7.071067811865476,149.9333185119305,18.027756377319943,33.24154027718932,34.713109915419565,38.3275357934736,64.1248781675256,122.2620137246234,89.08984229416954,85.5,93.0,69.0,17.0,41.0,11.0,5.0,28.442925306655784,24.73863375370596,24.5,57.0,89.0,68.8839603971781,{},{}
130,130,40,0,4.337666666666667,11.180339887498947,148.6371420607918,18.027756377319943,35.22782990761707,37.65634076752546,41.97618372363071,62.0,126.03570922560004,91.00549433962765,85.5,90.0,68.0,17.0,47.0,14.0,5.0,26.30589287593181,23.53720459187964,23.5,57.0,90.0,67.7421582177598,{},{}
131,131,40,0,4.371033333333334,14.317821063276352,150.9205088780183,18.110770276274835,32.2490309931942,38.8329756778952,43.17406628984581,60.03332407921454,124.10076550932313,92.00543462209176,85.0,88.0,64.0,16.0,48.0,18.0,5.0,27.29468812791236,24.73863375370596,24.5,59.0,93.0,70.03570517957252,{},{}
132,132,40,0,4.404400000000001,19.026297590440446,154.719100307622,16.0312195418814,33.24154027718932,38.63935817272331,44.14748010928823,61.00819617067857,129.0968628588627,96.00520819205592,86.5,87.0,64.0,14.5,53.5,22.5,4.5,27.29468812791236,24.73863375370596,24.5,60.0,93.0,68.8839603971781,{},{}
133,133,40,0,4.437766666666668,29.154759474226505,154.719100307622,18.110770276274835,34.23448553724738,37.65634076752546,44.14748010928823,58.0,139.0323703315167,105.00476179678712,90.5,88.0,65.0,18.5,62.5,29.5,6.5,29.27456233660889,25.96150997149434,25.0,59.0,92.0,68.8839603971781,{},{}
134,134,40,0,4.471133333333334,33.13608305156178,157.6863976378432,20.09975124224178,39.319206502675,37.65634076752546,42.95346318982906,57.07889277132134,149.00335566691106,110.07270324653612,93.5,88.0,65.0,19.5,72.5,35.5,5.5,27.29468812791236,23.769728648009423,23.5,59.0,93.0,67.7421582177598,{},{}
135,135,40,0,4.504500000000001,32.0624390837628,163.62457028209425,21.02379604162864,39.20459156782532,40.60788100849391,47.07440918375928,54.0,146.03081866510234,107.00467279516349,91.0,86.0,63.0,20.5,71.5,34.5,5.5,27.29468812791236,25.96150997149434,25.0,60.0,90.0,65.92419889539804,{},{}
136,136,40,0,4.537866666666668,30.066592756745816,167.5857989210303,21.095023109728988,41.30375285612676,39.81205847478876,46.09772228646444,52.03844732503075,144.03124660989366,103.0194156457898,88.0,81.0,58.0,17.5,74.5,36.5,2.5,27.29468812791236,25.96150997149434,25.0,62.0,93.0,71.56814934033156,{},{}
137,137,40,0,4.571233333333335,31.14482300479488,171.5488268686207,22.09072203437452,42.2965719651132,41.593268686170845,49.03060268852505,49.04079934095692,144.01388821915754,102.04410811016967,86.5,80.0,57.0,19.5,75.5,35.5,3.5,26.30589287593181,24.73863375370596,24.5,60.0,91.0,62.64982043070834,{},{}
138,138,40,0,4.604600000000001,30.01666203960727,171.82840277439584,21.02379604162864,41.19465984809196,42.579337712087536,49.03060268852505,49.04079934095692,141.01418368376991,100.0199980003999,85.0,79.0,54.0,17.5,74.5,35.5,2.5,27.29468812791236,25.96150997149434,25.0,62.0,94.0,66.61080993352356,{},{}
139,139,40,0,4.637966666666668,29.068883707497267,170.98830369355676,21.095023109728988,40.311288741492746,42.579337712087536,49.03060268852505,50.039984012787215,140.03213916812098,100.0199980003999,85.5,79.0,53.0,16.0,74.0,36.0,1.0,28.442925306655784,27.202941017470888,26.0,61.0,93.0,67.7421582177598,{},{}
140,140,40,0,4.671333333333335,30.066592756745816,171.14321488157222,21.095023109728988,41.19465984809196,41.77319714841085,48.27007354458868,49.01020301937138,141.0319112825179,100.00499987500623,85.0,78.0,51.0,15.5,76.5,38.5,0.5,29.27456233660889,27.892651361962702,27.0,61.0,93.0,66.75327707311455,{},{}
141,141,40,0,4.704700000000002,32.0624390837628,172.13076424625552,21.095023109728988,40.19950248448356,41.593268686170845,48.05205510693585,49.01020301937138,142.03168660548954,102.00490184299969,86.0,79.0,52.0,16.5,76.5,38.5,0.5,28.442925306655784,27.202941017470888,25.5,59.0,92.0,64.77653896280658,{},{}
142,142,40,0,4.738066666666668,29.068883707497267,169.01183390520322,21.095023109728988,39.319206502675,40.79215610874228,47.07440918375928,50.00999900019995,139.05754204644924,100.00499987500623,85.5,79.0,53.0,16.0,73.0,36.0,1.0,28.284271247461906,27.202941017470888,26.0,61.0,93.0,66.09841147864296,{},{}
143,143,40,0,4.771433333333335,30.0,167.70509831248424,18.110770276274835,37.48332962798263,39.81205847478876,46.57252408878007,50.00999900019995,135.29966740535616,98.04590761474952,83.0,77.0,47.0,12.0,73.0,38.0,0.0,30.4138126514911,28.16025568065745,27.5,58.0,92.0,68.8839603971781,{},{}
144,144,40,0,4.804800000000002,19.026297590440446,172.00290695217916,19.1049731745428,36.345563690772494,42.20189569201838,47.80167361086848,46.01086828130936,120.20399327809372,84.02380615040002,74.5,72.0,40.0,10.0,64.0,30.0,2.0,27.16615541441225,22.80350850198276,22.5,58.0,92.0,69.2314957226839,{},{}
145,145,40,0,4.838166666666669,22.0,176.11927776367924,21.095023109728988,40.19950248448356,43.93176527297759,50.44799302251776,48.010415536631214,131.0953851209111,91.00549433962765,80.0,79.0,46.0,14.5,68.5,31.5,0.5,28.16025568065745,25.96150997149434,25.0,62.0,94.0,71.02112361825881,{},{}
146,146,40,0,4.871533333333336,26.0,182.20043907740728,22.09072203437452,41.30375285612676,46.87216658103186,54.57105459856901,44.10215414239989,133.06013678032951,92.00543462209176,79.0,77.0,43.0,16.0,73.0,36.0,1.0,26.30589287593181,25.29822128134704,24.0,63.0,94.0,68.06614430096654,{},{}
147,147,40,0,4.904900000000002,37.0,192.78226059469267,20.09975124224178,38.3275357934736,50.99019513592785,57.723478758647246,43.04648650006177,138.0905500025255,100.0,81.5,77.0,39.0,15.0,80.0,46.0,3.0,26.1725046566048,25.29822128134704,24.0,63.0,93.0,67.7421582177598,{},{}
148,148,40,0,4.938266666666669,42.01190307520001,198.08079159777205,21.095023109728988,39.319206502675,52.952809179494906,59.90826320300064,42.04759208325728,144.12494579357175,105.00476179678712,84.0,79.0,39.0,17.0,85.0,50.0,4.0,25.317977802344327,24.35159132377184,22.5,63.0,93.0,68.8839603971781,{},{}
149,149,40,0,4.971633333333336,42.01190307520001,194.9410167204429,21.095023109728988,40.44749683231337,51.19570294468082,57.723478758647246,42.04759208325728,145.16886718577092,105.00476179678712,84.0,79.0,40.0,17.5,85.5,49.5,4.5,25.317977802344327,24.04163056034261,23.0,61.0,94.0,69.87131027825369,{},{}
150,150,40,0,5.005000000000003,42.01190307520001,191.80198122021577,20.223748416156685,40.311288741492746,52.392747589718944,59.90826320300064,41.19465984809196,143.0873858870865,103.0,82.0,77.0,39.0,17.0,85.0,49.0,6.0,24.515301344262525,21.54065922853801,20.5,60.0,95.0,71.02112361825881,{},{}
151,151,40,0,5.038366666666669,37.01351104664349,193.61043360315065,20.09975124224178,38.47076812334269,52.392747589718944,58.9406481131655,41.19465984809196,136.09188072769072,98.00510190801292,79.5,74.0,32.0,12.0,83.0,49.0,1.0,26.30589287593181,25.0,24.0,63.0,97.0,66.91038783328041,{},{}
152,152,40,0,5.071733333333336,46.0,190.46521992216847,17.11724276862369,35.35533905932738,49.24428900898052,56.04462507680822,43.10452412450461,141.05672617780408,106.00471687618432,83.0,77.0,36.0,13.5,84.5,53.5,4.5,29.27456233660889,27.202941017470888,25.0,65.0,98.0,67.26812023536856,{},{}
153,153,40,0,5.105100000000003,51.0098029794274,187.1095935541521,17.11724276862369,36.49657518178932,50.44799302251776,57.97413216254298,42.190046219457976,146.03081866510234,110.04090148667449,84.5,76.0,37.0,14.5,89.5,56.5,6.5,29.154759474226505,28.16025568065745,26.5,64.0,99.0,66.49060083951716,{},{}
154,154,40,0,5.13846666666667,51.0098029794274,186.1316738225926,17.26267650163207,37.33630940518894,50.44799302251776,57.0087712549569,42.190046219457976,147.03060905811415,110.01818031580054,84.5,79.0,40.0,17.5,87.5,54.5,8.5,28.284271247461906,27.202941017470888,25.5,63.0,98.0,70.40596565632774,{},{}
155,155,40,0,5.171833333333336,52.009614495783374,187.5366630821824,16.278820596099706,35.510561809129406,49.24428900898052,57.28001396647874,44.181444068749045,147.05441169852742,112.01785571952357,86.0,81.0,40.0,16.5,86.5,55.5,8.5,28.16025568065745,26.248809496813376,25.0,63.0,98.0,66.2872536767062,{},{}
156,156,40,0,5.205200000000003,59.00847396772772,188.95766721676048,15.297058540778355,35.510561809129406,51.419840528729765,58.240879114244144,45.17742799230607,154.0519392932137,119.01680553602505,89.5,84.0,41.0,17.5,91.5,60.5,10.5,28.284271247461906,26.248809496813376,24.5,64.0,98.0,68.4470598345904,{},{}
157,157,40,0,5.23856666666667,49.01020301937138,185.32404053441093,14.142135623730953,33.734255586866,46.84015371452148,54.08326913195984,46.04345773288535,142.12670403551894,109.00458705944445,84.5,87.0,39.0,17.0,79.0,51.0,12.0,26.30589287593181,22.13594362117865,21.5,63.0,95.0,68.06614430096654,{},{}
158,158,40,0,5.271933333333337,37.0,155.76905982896602,15.132745950421556,34.713109915419565,39.56008088970496,44.27188724235731,56.00892785976178,142.35167719419397,108.04165863221463,89.5,101.0,59.0,24.0,62.0,32.0,16.0,17.72004514666935,14.866068747318506,15.0,61.0,93.0,71.84705978674423,{},{}
159,159,40,0,5.305300000000004,10.04987562112089,138.49548729110273,18.24828759089466,33.54101966249684,32.28002478313795,37.0,65.03076195155643,126.39620247459968,93.08598175880188,88.0,104.0,69.0,21.5,39.5,10.5,9.5,18.68154169226941,18.97366596101028,17.5,65.0,98.0,70.03570517957252,{},{}
160,160,40,0,5.33866666666667,5.0990195135927845,132.00378782444085,18.110770276274835,35.510561809129406,33.24154027718932,37.94733192202055,64.03124237432849,122.494897852931,87.14355971613737,84.5,107.0,71.0,25.0,33.0,2.0,12.0,18.97366596101028,17.46424919657298,17.0,65.0,98.0,68.73136110975832,{},{}
161,161,40,0,5.372033333333337,8.0,134.8517704741024,20.09975124224178,37.48332962798263,32.28002478313795,37.64306044943742,64.19501538281614,129.65338406690356,92.26592003551474,88.0,108.0,76.0,28.0,37.0,4.0,13.0,19.92485884517128,17.72004514666935,17.0,64.0,97.0,67.89698078707183,{},{}
162,162,40,0,5.405400000000004,11.0,145.04137340772803,21.095023109728988,35.510561809129406,38.07886552931954,42.72001872658765,61.1310068623117,128.56126943990557,93.1933474020544,87.5,104.0,70.0,26.0,41.0,9.0,10.0,22.80350850198276,19.6468827043885,19.5,62.0,95.0,69.2314957226839,{},{}
163,163,40,0,5.438766666666671,23.0,153.52524222420234,16.278820596099706,34.52535300326414,39.05124837953327,45.22167621838005,54.037024344425184,127.47548783981962,93.1343116150004,81.5,101.0,64.0,28.5,44.5,15.5,18.5,22.56102834535696,19.92485884517128,19.0,64.0,99.0,75.13321502504735,{},{}
164,164,40,0,5.472133333333337,21.0,167.6007159889241,16.278820596099706,34.713109915419565,43.17406628984581,48.38388161361178,50.039984012787215,121.59358535712316,87.14355971613737,76.5,93.0,54.0,23.5,47.5,17.5,14.5,24.515301344262525,20.8806130178211,20.0,65.0,101.0,71.02112361825881,{},{}
165,165,40,0,5.505500000000004,23.021728866442675,174.8742405273001,15.132745950421556,35.6931365951495,45.60701700396552,51.24451190127583,47.042533945356304,120.59850745345068,85.14693182963201,73.5,89.0,48.0,21.5,51.5,22.5,14.5,25.317977802344327,21.840329667841555,21.5,68.0,104.0,71.19691004531025,{},{}
166,166,40,0,5.538866666666671,31.0,177.56407294269863,15.297058540778355,35.6931365951495,44.384682042344295,50.0,46.01086828130936,127.47548783981962,92.0869154657707,76.5,85.0,45.0,19.0,62.0,32.0,12.0,27.29468812791236,25.0,23.5,76.0,109.0,70.21395872616783,{},{}
167,167,40,0,5.572233333333338,61.032778078668514,173.0028901492689,14.317821063276352,34.713109915419565,46.09772228646444,52.88667128870941,46.04345773288535,155.32224567009067,121.03718436910204,90.5,92.0,55.0,27.5,81.5,50.5,20.5,28.284271247461906,27.202941017470888,26.0,82.0,117.0,76.94153624668537,{},{}
168,168,40,0,5.605600000000004,70.0,171.95929750961415,16.1245154965971,33.734255586866,44.64302857109943,50.96076922496363,47.042533945356304,166.3640586184408,133.06013678032951,98.0,101.0,60.0,33.5,85.5,57.5,25.5,28.442925306655784,26.248809496813376,25.5,75.0,115.0,76.94153624668537,{},{}
169,169,40,0,5.638966666666671,71.02816342831905,169.5464538113375,13.341664064126334,32.55764119219941,44.64302857109943,51.92301994298868,50.039984012787215,166.24379687675568,134.03357788255897,98.5,101.0,62.0,31.5,84.5,56.5,25.5,29.27456233660889,26.92582403567252,26.5,74.0,111.0,75.95393340703298,{},{}
170,170,40,0,5.672333333333338,72.00694410957877,164.2224101637776,12.16552506059644,31.575306807693888,42.44997055358225,49.04079934095692,53.150729063673246,168.35973390332975,137.09121051329294,101.0,104.0,67.0,32.5,82.5,55.5,27.5,29.27456233660889,28.16025568065745,27.5,74.0,111.0,72.00694410957877,{},{}
171,171,40,0,5.705700000000005,57.0087712549569,149.8966310495336,14.317821063276352,31.78049716414141,39.56008088970496,44.9221548904324,57.42821606144492,159.80300372646315,128.3160161476345,99.5,110.0,72.0,34.0,68.0,39.0,27.0,29.42787793912432,28.16025568065745,27.5,71.0,110.0,75.95393340703298,{},{}
172,180,40,1,6.006000000000006,19.1049731745428,106.04244433244644,22.09072203437452,30.59411708155671,24.166091947189145,26.83281572999748,38.0,71.7007670809734,41.19465984809196,50.5,82.0,44.0,25.0,8.0,17.0,8.0,36.05551275463989,35.6931365951495,34.5,80.0,111.0,78.77182237323191,{},{}
173,181,40,0,6.039366666666672,1.4142135623730951,121.49074038789952,21.213203435596427,29.61418578992169,28.635642126552707,33.12099032335839,46.01086828130936,95.42536350467836,66.06814663663572,66.5,96.0,54.0,29.0,20.0,3.0,14.0,37.12142238654117,34.92849839314596,34.5,78.0,111.0,77.10382610480494,{},{}
174,182,40,0,6.072733333333339,35.0,179.96944185055418,13.152946437965904,31.78049716414141,44.384682042344295,50.28916384272063,50.00999900019995,129.38701635017324,98.04590761474952,80.5,81.0,39.0,10.0,69.0,42.0,5.0,32.0624390837628,31.32091952673165,30.0,74.0,108.0,74.96665925596525,{},{}
175,183,40,0,6.106100000000006,48.010415536631214,182.98907071188705,15.132745950421556,37.48332962798263,42.72001872658765,50.59644256269407,45.0,145.16886718577092,108.00462953040486,84.0,77.0,39.0,13.0,87.0,55.0,6.0,31.25699921617557,29.410882339705484,27.5,72.0,106.0,74.14849964766651,{},{}
176,184,40,0,6.139466666666673,48.010415536631214,182.98907071188705,15.132745950421556,37.48332962798263,42.72001872658765,50.59644256269407,45.0,145.16886718577092,108.00462953040486,84.0,77.0,39.0,13.0,87.0,55.0,6.0,31.25699921617557,29.410882339705484,27.5,72.0,106.0,74.14849964766651,{},{}
177,185,40,0,6.172833333333339,48.010415536631214,183.1993449769949,15.297058540778355,36.345563690772494,43.68065933568311,50.28916384272063,45.0,144.1700384962146,108.0185169311262,84.0,77.0,38.0,12.5,86.5,55.5,5.5,32.14031735997639,30.675723300355934,28.5,72.0,107.0,76.11832893594026,{},{}
178,186,40,0,6.206200000000006,33.06055050963308,183.76343488300387,15.297058540778355,36.345563690772494,45.35416188179427,52.20153254455275,46.01086828130936,130.18832512940628,94.02127418834527,77.5,73.0,36.0,8.5,75.5,43.5,1.5,27.16615541441225,23.769728648009423,22.0,68.0,101.0,73.97972695272672,{},{}
179,187,40,0,6.239566666666673,29.068883707497267,177.55280904564702,19.1049731745428,39.45883931389772,44.7213595499958,50.44799302251776,44.04543109109048,131.24404748406687,92.02173656261871,77.5,72.0,42.0,13.0,74.0,38.0,0.0,30.14962686336267,26.92582403567252,25.5,66.0,100.0,73.16419889536138,{},{}
180,188,40,0,6.27293333333334,25.079872407968907,173.95401691251627,17.11724276862369,35.35533905932738,41.593268686170845,46.09772228646444,48.010415536631214,125.14391715141412,90.00555538409837,77.5,73.0,47.0,12.0,65.0,33.0,1.0,28.284271247461906,26.0,24.0,64.0,99.0,74.33034373659252,{},{}
181,189,40,0,6.306300000000007,25.079872407968907,170.55790805471318,16.1245154965971,33.37663853655727,39.45883931389772,43.93176527297759,53.03772242470448,127.1927670899568,94.02127418834527,81.5,76.0,53.0,11.5,62.5,31.5,0.5,31.064449134018133,29.410882339705484,28.5,68.0,102.0,74.14849964766651,{},{}
182,190,40,0,6.339666666666673,26.0768096208106,160.25292509030842,14.142135623730953,32.38826948140329,37.48332962798263,41.593268686170845,58.034472514187634,130.18832512940628,98.02040603874276,85.0,79.0,59.0,11.0,61.0,31.0,1.0,29.27456233660889,28.16025568065745,27.0,64.0,97.0,73.348483283569,{},{}
183,191,40,0,6.37303333333334,17.11724276862369,146.81280598094978,15.132745950421556,31.400636936215164,35.35533905932738,39.81205847478876,60.07495318350236,123.25988804148736,92.04890004774636,83.5,84.0,61.0,12.5,50.5,21.5,1.5,31.25699921617557,28.16025568065745,27.5,67.0,101.0,75.13321502504735,{},{}
184,192,40,0,6.406400000000007,8.54400374531753,148.492424049175,19.1049731745428,32.38826948140329,35.35533905932738,39.6232255123179,62.07253821135398,121.2023102090055,89.02246907382428,85.0,85.0,64.0,12.5,46.5,15.5,2.5,31.25699921617557,29.120439557122072,28.5,67.0,102.0,73.97972695272672,{},{}
185,193,40,0,6.4397666666666735,2.0,161.27616066858735,17.26267650163207,33.54101966249684,37.8549864614954,41.7612260356422,60.00833275470999,112.44554237496476,79.1012010022604,78.0,85.0,58.0,11.5,40.5,10.5,0.5,28.16025568065745,27.202941017470888,25.5,65.0,99.0,78.26237921249263,{},{}
186,194,40,0,6.47313333333334,5.830951894845301,149.11069713471264,18.24828759089466,31.575306807693888,38.47076812334269,41.97618372363071,60.07495318350236,114.35471131527552,83.05419917138447,80.5,82.0,57.0,9.5,44.5,15.5,3.5,22.36067977499789,20.8806130178211,20.0,68.0,100.0,75.13321502504735,{},{}
187,195,40,0,6.506500000000007,8.06225774829855,165.73774464496614,17.26267650163207,32.55764119219941,41.77319714841085,46.57252408878007,56.0357029044876,113.44161493913953,81.09870529176159,77.0,79.0,49.0,8.0,49.0,20.0,3.0,13.92838827718412,13.41640786499874,12.0,69.0,101.0,74.14849964766651,{},{}
188,196,40,0,6.539866666666674,31.0,180.2359564570844,19.235384061671343,37.65634076752546,43.93176527297759,50.69516742254631,46.04345773288535,133.5402561027947,96.13012014972206,80.5,77.0,43.0,14.0,73.0,39.0,1.0,13.92838827718412,12.529964086141668,10.5,69.0,101.0,76.11832893594026,{},{}
189,197,40,0,6.573233333333341,44.04543109109048,193.18643844742311,17.46424919657298,35.90264614203248,50.21951811795888,57.0087712549569,44.40720662234904,141.4213562373095,105.68348972285122,83.0,78.0,38.0,14.0,82.0,50.0,5.0,11.40175425099138,10.63014581273465,7.5,60.0,102.0,75.7099729229908,{},{}
190,198,40,0,6.606600000000007,40.11234224026316,193.5458601985586,17.72004514666935,35.17101079013795,48.27007354458868,54.81788029466298,41.7612260356422,134.17153200288055,99.04039579888602,77.0,74.0,28.0,11.0,80.0,48.0,3.0,12.206555615733702,10.295630140987,8.5,54.0,104.0,74.04052944165107,{},{}
191,199,40,0,6.639966666666674,52.3450093132096,198.4061490982576,16.492422502470642,33.95585369269929,51.19570294468082,58.463663928973865,42.05948168962618,144.3675863897433,110.42191811411357,82.0,76.0,30.0,13.0,88.0,57.0,5.0,10.63014581273465,9.433981132056603,8.0,52.0,103.0,68.6804193347711,{},{}
192,200,40,0,6.673333333333341,56.32051136131489,190.3943276465977,18.68154169226941,36.87817782917155,51.19570294468082,58.2494635168428,41.43669871020132,152.6106156202772,115.73245007343446,85.0,82.0,37.0,20.5,89.5,55.5,10.5,10.0,8.94427190999916,8.0,51.0,102.0,68.6804193347711,{},{}
193,201,40,0,6.706700000000008,67.26812023536856,182.43903091169932,18.43908891458577,34.713109915419565,53.150729063673246,60.01666435249463,40.49691346263317,160.0312469488381,125.31959144523252,89.5,91.0,51.0,33.0,86.0,53.0,23.0,13.038404810405298,9.848857801796104,8.5,48.0,94.0,64.8459713474939,{},{}
194,202,40,0,6.740066666666674,75.16648189186454,179.25400971805345,17.26267650163207,34.713109915419565,52.773099207835045,60.67124524847005,41.43669871020132,167.5291019494822,132.83448347473634,93.5,97.0,63.0,41.0,85.0,51.0,30.0,12.529964086141668,11.704699910719626,10.5,46.0,88.0,61.40032573203501,{},{}
195,203,40,0,6.773433333333341,80.02499609497022,178.89941307897016,18.24828759089466,35.35533905932738,51.35172830587107,59.4138031100518,38.3275357934736,171.1724276862369,135.83077707206124,95.0,97.0,71.0,47.0,86.0,51.0,33.0,12.083045973594572,12.36931687685298,11.0,42.0,77.0,57.723478758647246,{},{}
196,204,40,0,6.806800000000008,79.00632886041473,176.72577627499618,15.132745950421556,28.16025568065745,51.15662224971465,58.137767414994535,39.45883931389772,161.4465855941215,133.30416347586447,93.5,94.0,78.0,47.0,75.0,46.0,35.0,10.770329614269007,11.180339887498947,11.0,44.0,70.0,56.71860364994893,{},{}
197,205,40,0,6.840166666666675,80.00624975587844,173.07223925286226,16.0,29.0,50.00999900019995,58.00862004909271,39.20459156782532,164.02743672934722,135.03332921912278,95.0,90.0,85.0,48.5,76.5,44.5,34.5,10.44030650891055,10.04987562112089,10.0,45.0,61.0,55.44366510251645,{},{}
198,206,40,0,6.8735333333333415,87.02298546935747,170.01176429882727,15.0,31.0,49.0,57.0,38.0,171.011695506477,140.0142849854971,96.5,85.0,87.0,48.0,85.0,51.0,33.0,9.486832980505138,9.0,9.0,45.0,53.0,51.35172830587107,{},{}
199,207,40,0,6.906900000000008,89.08984229416954,172.02616080119907,16.0,30.01666203960727,50.00999900019995,57.0087712549569,37.0,172.07265907168403,142.0563268566381,97.5,84.0,87.0,48.5,86.5,53.5,33.5,9.219544457292889,9.055385138137416,8.5,46.0,52.0,51.0881590977792,{},{}
200,208,40,0,6.940266666666675,90.0499861188218,170.02646852769718,15.033296378372908,30.066592756745816,49.01020301937138,56.00892785976178,36.013886210738214,171.14321488157222,141.088624630053,96.0,83.0,86.0,48.5,86.5,53.5,33.5,9.219544457292889,9.055385138137416,9.0,46.0,50.0,50.039984012787215,{},{}
201,209,40,0,6.973633333333342,89.05054744357274,167.01197561851666,14.0356688476182,31.016124838541646,50.0,57.0,33.015148038438355,167.10774967068403,136.09188072769072,91.5,82.0,84.0,50.0,84.0,50.0,36.0,9.219544457292889,9.055385138137416,8.5,45.0,47.0,48.0936586256442,{},{}
202,210,40,0,7.0070000000000086,85.09406559801923,169.0266251216062,14.0356688476182,28.0713376952364,48.010415536631214,55.0,35.0,162.15116404145854,134.09325113517085,91.5,76.0,79.0,42.5,84.5,53.5,29.5,7.071067811865476,7.071067811865476,7.5,44.0,50.0,48.04164859785725,{},{}
203,211,40,0,7.040366666666675,81.09870529176159,165.00303027520434,14.0,26.0,48.010415536631214,54.00925846556311,36.013886210738214,157.07959765672945,131.0953851209111,90.5,80.0,79.0,43.5,77.5,48.5,29.5,8.246211251235321,8.06225774829855,8.0,44.0,50.0,44.10215414239989,{},{}
204,212,40,0,7.073733333333342,81.05553651663777,164.01219466856725,14.0356688476182,28.0,47.01063709417264,53.009433122794285,35.0142828000232,158.07909412695912,130.09611831257686,89.5,81.0,79.0,45.0,78.0,47.0,31.0,9.219544457292889,9.0,8.5,42.0,49.0,44.181444068749045,{},{}
205,213,40,0,7.107100000000009,86.09297300012354,168.0029761641144,15.033296378372908,28.0,48.010415536631214,55.00909015790027,33.015148038438355,162.11107303327557,134.13426109685773,91.0,80.0,79.0,46.5,82.5,52.5,31.5,8.06225774829855,9.055385138137416,8.5,42.0,49.0,45.09988913511872,{},{}
206,214,40,0,7.140466666666676,49.04079934095692,163.01226947687098,15.0,21.0,45.0,49.01020301937138,35.0,120.01666550941998,99.02019995940222,74.5,74.0,72.0,38.0,47.0,24.0,24.0,6.324555320336759,7.071067811865476,7.0,39.0,46.0,41.10960958218893,{},{}
207,215,40,0,7.173833333333342,75.05997601918082,169.04733065032408,16.0,29.0,47.0,53.009433122794285,34.058772731852805,154.0811474515945,125.09996003196804,87.5,75.0,79.0,43.0,77.0,47.0,27.0,7.280109889280518,8.0,7.5,38.0,45.0,46.17358552246078,{},{}
208,216,40,0,7.207200000000009,65.03076195155643,173.04623659588788,15.033296378372908,28.0178514522438,48.010415536631214,54.0,34.0147027033899,142.08800090085018,114.0701538527936,81.5,72.0,76.0,40.0,68.0,38.0,25.0,7.280109889280518,7.0,7.0,34.0,42.0,48.16637831516918,{},{}
209,217,40,0,7.240566666666676,55.03635162326805,174.1034175425629,15.033296378372908,27.018512172212592,45.0111097397076,51.0,35.0142828000232,132.09466302617983,105.07616285342742,77.5,69.0,75.0,37.0,60.0,32.0,22.0,7.280109889280518,8.06225774829855,8.0,35.0,41.0,45.17742799230607,{},{}
210,218,40,0,7.273933333333343,51.03920062069938,177.0706073858674,15.0,26.0,46.01086828130936,51.0098029794274,34.058772731852805,126.0634760745554,100.07996802557444,74.5,66.0,71.0,34.5,57.5,29.5,19.5,7.280109889280518,8.0,7.5,33.0,39.0,47.16990566028302,{},{}
211,219,40,0,7.3073000000000095,50.039984012787215,173.02600960549256,17.0,26.0,46.01086828130936,52.0,33.06055050963308,126.0634760745554,100.07996802557444,75.0,70.0,73.0,38.5,54.5,26.5,22.5,7.280109889280518,8.0,8.0,33.0,40.0,46.17358552246078,{},{}
212,220,40,0,7.340666666666676,50.039984012787215,170.07351351694948,15.0,25.019992006393608,45.0111097397076,51.0098029794274,35.05709628591621,125.09996003196804,100.07996802557444,75.0,70.0,75.0,37.5,52.5,25.5,22.5,6.082762530298219,8.0,7.5,32.0,37.0,47.16990566028302,{},{}
213,221,40,0,7.374033333333343,48.04164859785725,168.02678357928536,17.029386365926403,25.0,46.01086828130936,52.009614495783374,34.0,124.03628501370072,99.04544411531506,75.0,70.0,73.0,37.5,52.5,25.5,20.5,7.280109889280518,7.071067811865476,7.5,34.0,39.0,46.09772228646444,{},{}
214,222,40,0,7.40740000000001,48.04164859785725,168.04761230080004,16.0312195418814,25.0,45.0111097397076,49.01020301937138,35.0142828000232,124.0644993541666,99.08077512817508,75.0,69.0,73.0,36.0,53.0,27.0,20.0,7.071067811865476,8.06225774829855,7.5,34.0,40.0,44.10215414239989,{},{}
215,223,40,0,7.440766666666676,51.03920062069938,164.02743672934722,15.0,24.0,44.01136216933077,49.01020301937138,34.0,124.01612798341996,100.0199980003999,74.5,69.0,72.0,36.5,53.5,27.5,21.5,7.071067811865476,7.071067811865476,6.5,33.0,38.0,44.04543109109048,{},{}
216,224,40,0,7.474133333333343,56.0357029044876,156.01281998605114,14.0356688476182,25.0,42.01190307520001,47.01063709417264,36.0,131.03434664239754,106.04244433244644,78.0,74.0,76.0,39.0,56.0,30.0,25.0,7.280109889280518,7.071067811865476,7.0,35.0,38.0,45.09988913511872,{},{}
217,225,40,0,7.50750000000001,46.01086828130936,147.00340132119393,14.0356688476182,25.019992006393608,39.0,44.0,38.0,123.03657992645928,98.02040603874276,75.0,76.0,75.0,37.5,47.5,20.5,24.5,7.071067811865476,6.082762530298219,6.5,35.0,39.0,43.04648650006177,{},{}
218,226,40,0,7.540866666666677,31.064449134018133,141.0319112825179,15.0,26.019223662515376,37.01351104664349,41.01219330881976,39.01281840626232,111.07204868912793,85.05292469985967,69.5,74.0,77.0,36.5,35.5,7.5,20.5,7.280109889280518,7.280109889280518,7.5,34.0,39.0,43.04648650006177,{},{}
219,227,40,0,7.574233333333344,17.029386365926403,140.0142849854971,17.0,25.019992006393608,35.0142828000232,38.01315561749642,42.04759208325728,101.07917688624102,76.05918747922567,67.5,74.0,76.0,33.0,26.0,1.0,16.0,7.280109889280518,7.280109889280518,7.0,35.0,40.0,42.1070065428546,{},{}
220,228,40,0,7.60760000000001,6.324555320336759,139.0323703315167,19.0,26.0,35.0142828000232,38.01315561749642,42.04759208325728,93.08598175880188,67.11929677819934,64.0,71.0,74.0,30.5,20.5,6.5,12.5,9.219544457292889,9.055385138137416,9.0,37.0,40.0,42.1070065428546,{},{}
221,229,40,0,7.640966666666677,3.605551275463989,142.03168660548954,22.02271554554524,28.0,35.0142828000232,39.01281840626232,40.01249804748511,93.08598175880188,65.12296062065974,63.5,70.0,73.0,31.5,21.5,8.5,9.5,9.055385138137416,8.246211251235321,9.0,38.0,41.0,41.04875150354759,{},{}
222,230,40,0,7.674333333333344,8.246211251235321,145.0551619212498,23.0,31.016124838541646,36.05551275463989,40.01249804748511,40.049968789001575,102.12247548899312,71.11258679024411,67.0,69.0,73.0,31.0,31.0,2.0,8.0,8.246211251235321,8.246211251235321,8.0,41.0,44.0,46.04345773288535,{},{}
223,231,40,0,7.707700000000011,27.073972741361768,151.08275877809487,22.0,32.01562118716424,40.01249804748511,45.044422518220834,38.05259518088089,119.10499569707392,87.09190547921202,73.5,71.0,76.0,35.5,45.5,11.5,13.5,6.082762530298219,7.280109889280518,7.5,43.0,45.0,48.010415536631214,{},{}
224,232,40,0,7.741066666666677,41.10960958218893,157.07959765672945,20.0,32.01562118716424,44.01136216933077,49.0,35.12833614050059,128.191263352851,96.1873172512884,75.5,71.0,76.0,38.5,54.5,20.5,18.5,7.280109889280518,7.280109889280518,7.5,43.0,45.0,48.010415536631214,{},{}
225,233,40,0,7.774433333333344,51.0881590977792,161.07762104029226,18.027756377319943,29.017236257093817,45.044422518220834,51.0098029794274,35.05709628591621,133.1840831330831,104.17293314484334,78.5,71.0,76.0,38.5,59.5,27.5,20.5,9.055385138137416,9.219544457292889,9.0,44.0,47.0,47.042533945356304,{},{}
226,234,40,0,7.807800000000011,58.137767414994535,173.18487231857176,18.0,30.01666203960727,47.01063709417264,52.0,34.23448553724738,140.28898745090436,110.2905254316979,81.0,65.0,73.0,35.0,71.0,39.0,18.0,4.47213595499958,5.0,5.0,43.0,46.0,49.04079934095692,{},{}
227,235,40,0,7.841166666666678,63.12685640834652,168.1071087134628,19.026297590440446,31.016124838541646,48.010415536631214,54.0,34.132096331752024,147.27525250360293,116.27553482998908,84.5,70.0,76.0,39.0,74.0,41.0,21.0,6.082762530298219,7.071067811865476,7.0,46.0,48.0,49.01020301937138,{},{}
228,236,40,0,7.874533333333344,69.06518659932803,174.1034175425629,19.026297590440446,33.06055050963308,48.010415536631214,55.0,33.13608305156178,154.26276284314372,121.2023102090055,86.5,71.0,77.0,41.0,80.0,45.0,23.0,8.246211251235321,8.246211251235321,8.0,47.0,50.0,49.04079934095692,{},{}
229,237,40,0,7.907900000000011,76.10519036176179,168.1071087134628,17.029386365926403,31.016124838541646,48.010415536631214,54.0,35.12833614050059,159.25451327984396,128.2497563350512,90.0,74.0,80.0,42.0,82.0,47.0,26.0,9.219544457292889,9.055385138137416,9.0,47.0,49.0,47.042533945356304,{},{}
230,238,40,0,7.941266666666678,75.05997601918082,172.07265907168403,17.029386365926403,31.064449134018133,49.01020301937138,56.0,36.05551275463989,159.20113064925135,128.14054783713078,90.5,75.0,80.0,41.5,81.5,47.5,24.5,10.04987562112089,10.04987562112089,10.0,48.0,50.0,45.09988913511872,{},{}
231,239,40,0,7.974633333333345,76.05918747922567,169.07394831847986,18.027756377319943,31.016124838541646,47.01063709417264,56.00892785976178,36.0,161.07762104029226,130.06152390311286,92.0,77.0,82.0,43.5,81.5,46.5,26.5,11.04536101718726,10.198039027185567,10.0,48.0,50.0,47.01063709417264,{},{}
232,240,40,0,8.008000000000012,74.06078584514209,171.10523077919038,18.0,32.01562118716424,48.04164859785725,55.00909015790027,36.013886210738214,160.0781059358212,128.06248474865697,91.0,76.0,82.0,43.0,81.0,46.0,25.0,11.04536101718726,11.04536101718726,11.0,48.0,51.0,47.042533945356304,{},{}
233,241,40,0,8.041366666666677,70.06425622241343,173.07223925286226,19.0,32.0,48.010415536631214,55.00909015790027,36.013886210738214,157.05094714773293,125.06398362438324,90.0,75.0,80.0,41.5,79.5,43.5,23.5,11.04536101718726,11.04536101718726,11.0,49.0,52.0,49.09175083453431,{},{}
234,242,40,0,8.074733333333343,60.03332407921454,175.04570831642803,20.0,32.0,51.0098029794274,57.0087712549569,36.05551275463989,148.05404418657398,116.06894502837528,86.0,75.0,79.0,41.0,71.0,36.0,22.0,12.16552506059644,11.0,11.0,50.0,54.0,48.0936586256442,{},{}
235,243,40,0,8.10810000000001,51.03920062069938,179.02513789968157,21.0,34.0147027033899,50.00999900019995,56.00892785976178,36.013886210738214,142.01408380861386,108.04165863221463,82.5,73.0,76.0,38.5,67.5,30.5,18.5,12.16552506059644,11.0,11.5,48.0,54.0,51.0881590977792,{},{}
236,244,40,0,8.141466666666675,48.010415536631214,181.01104938649465,20.0,34.0147027033899,51.0098029794274,57.0087712549569,38.01315561749642,140.00357138301865,106.01886624558855,82.0,73.0,75.0,36.0,66.0,29.0,17.0,12.16552506059644,11.0,11.5,47.0,55.0,50.08991914547278,{},{}
237,245,40,0,8.174833333333341,48.0,183.0,21.0,34.0147027033899,51.0098029794274,56.00892785976178,37.0,140.00357138301865,106.0,82.0,75.0,75.0,38.0,65.0,28.0,19.0,12.16552506059644,12.041594578792296,12.0,45.0,55.0,51.24451190127583,{},{}
238,246,40,0,8.208200000000007,49.0,186.00268815261785,20.0,33.015148038438355,54.00925846556311,59.033888572581766,38.01315561749642,140.0142849854971,107.00467279516349,82.5,74.0,73.0,35.5,66.5,30.5,17.5,7.615773105863909,6.0,6.5,44.0,55.0,53.150729063673246,{},{}
239,247,40,0,8.241566666666673,51.0098029794274,186.0430057809216,20.024984394500787,33.06055050963308,52.009614495783374,58.034472514187634,37.0,141.01418368376991,108.0,82.5,75.0,71.0,36.0,68.0,33.0,18.0,8.94427190999916,7.0,7.5,46.0,59.0,53.23532661682466,{},{}
240,248,40,0,8.274933333333339,51.0,189.06612599828665,19.0,33.06055050963308,52.009614495783374,59.07622195096772,39.05124837953327,142.0563268566381,109.01834707974616,83.5,75.0,70.0,33.5,69.5,34.5,16.5,9.848857801796104,9.0,8.5,45.0,58.0,51.15662224971465,{},{}
241,249,40,0,8.308300000000004,52.0,189.16923639957952,21.02379604162864,33.06055050963308,52.08646657242167,59.13543776789008,37.0,143.0314650697531,110.00454536063498,84.0,76.0,68.0,35.0,71.0,36.0,17.0,7.615773105863909,6.0,6.0,49.0,63.0,53.33854141237835,{},{}
242,250,40,0,8.34166666666667,48.0,190.16834647227705,21.02379604162864,34.058772731852805,52.08646657242167,58.137767414994535,40.049968789001575,143.0873858870865,109.04127658827184,85.0,78.0,70.0,34.0,69.0,34.0,17.0,9.486832980505138,9.055385138137416,9.0,48.0,64.0,54.45181356024793,{},{}
243,251,40,0,8.375033333333336,48.0,189.2643653728826,20.024984394500787,32.14031735997639,52.08646657242167,58.077534382926416,40.11234224026316,140.1748907615055,108.07404868885035,84.0,77.0,67.0,32.0,68.0,35.0,15.0,12.36931687685298,11.04536101718726,10.5,47.0,65.0,53.46026561849464,{},{}
244,252,40,0,8.408400000000002,42.0,189.2643653728826,21.02379604162864,35.12833614050059,52.15361924162119,58.137767414994535,39.11521443121589,137.17871555019022,102.07840124139877,81.0,75.0,65.0,31.0,67.0,31.0,14.0,12.36931687685298,12.041594578792296,12.0,48.0,68.0,52.773099207835045,{},{}
245,253,40,0,8.441766666666668,41.0,187.3232500251904,20.024984394500787,34.058772731852805,53.08483775994799,58.137767414994535,40.19950248448356,135.18135966175217,101.1236866416568,80.5,76.0,65.0,30.5,64.5,29.5,14.5,14.317821063276352,14.0356688476182,13.5,47.0,69.0,51.62363799656123,{},{}
246,254,40,0,8.475133333333334,46.04345773288535,190.26297590440447,19.1049731745428,33.06055050963308,50.08991914547278,56.1426753904728,41.04875150354759,139.2300254973761,106.16967551989596,83.0,72.0,62.0,26.0,72.0,38.0,11.0,14.560219778561036,14.142135623730953,14.0,44.0,68.0,49.8196748283246,{},{}
247,255,40,0,8.5085,46.01086828130936,186.3866948041088,17.029386365926403,33.06055050963308,49.09175083453431,54.08326913195984,43.10452412450461,139.17614738165446,106.1178590059185,83.0,73.0,61.0,24.0,72.0,39.0,10.0,14.317821063276352,13.152946437965904,13.5,44.0,68.0,52.773099207835045,{},{}
248,256,40,0,8.541866666666666,46.0,179.27911200137063,14.0356688476182,33.13608305156178,46.09772228646444,53.03772242470448,46.09772228646444,139.17614738165446,106.07544484940895,83.0,71.0,61.0,20.0,73.0,39.0,9.0,17.26267650163207,15.132745950421556,15.5,45.0,69.0,50.00999900019995,{},{}
249,257,40,0,8.575233333333331,44.0,172.18594600024707,13.038404810405298,31.14482300479488,42.04759208325728,47.042533945356304,50.08991914547278,138.1774221788784,107.07474025184464,85.0,71.0,63.0,17.0,71.0,38.0,7.0,15.297058540778355,14.142135623730953,14.5,42.0,68.0,50.00999900019995,{},{}
250,258,40,0,8.608599999999997,39.01281840626232,167.29913329123974,14.142135623730953,32.14031735997639,39.11521443121589,45.044422518220834,52.03844732503075,137.23337786413333,105.11898020814318,85.5,72.0,62.0,15.0,70.0,36.0,4.0,15.297058540778355,15.297058540778355,15.5,39.0,68.0,52.172789842982326,{},{}
251,259,40,0,8.641966666666663,28.0,157.45793088949188,15.132745950421556,30.26549190084312,37.12142238654117,41.04875150354759,54.147945482723536,127.39309243440164,97.18538984847466,83.0,74.0,62.0,14.0,59.0,27.0,2.0,17.46424919657298,15.297058540778355,16.0,40.0,71.0,49.24428900898052,{},{}
252,260,40,0,8.67533333333333,9.055385138137416,154.46682491719702,15.132745950421556,29.27456233660889,34.132096331752024,38.11823710509184,58.137767414994535,111.5437134042076,82.29823813423954,77.5,72.0,60.0,8.0,45.0,15.0,4.0,17.46424919657298,16.278820596099706,16.5,38.0,68.0,47.12748667179272,{},{}
253,261,40,0,8.708699999999995,1.4142135623730951,151.5585695366646,15.132745950421556,22.20360331117452,32.14031735997639,35.05709628591621,55.14526271584895,93.53608929178084,71.34423592694787,70.5,70.0,57.0,8.5,29.5,6.5,3.5,17.46424919657298,16.278820596099706,17.0,38.0,70.0,47.80167361086848,{},{}
254,262,40,0,8.74206666666666,0.0,158.5339080449353,13.152946437965904,20.39607805437113,33.06055050963308,35.12833614050059,55.08175741568164,88.45903006477066,68.18357573492314,68.0,69.0,56.0,7.5,25.5,5.5,2.5,17.46424919657298,17.26267650163207,17.0,38.0,68.0,50.00999900019995,{},{}
255,263,40,0,8.775433333333327,0.0,160.44936896105264,13.038404810405298,19.235384061671343,35.05709628591621,37.12142238654117,53.23532661682466,85.47514258543241,66.27216610312357,66.0,69.0,57.0,10.0,22.0,3.0,0.0,17.46424919657298,14.317821063276352,15.0,39.0,67.0,47.8539444560216,{},{}
256,264,40,0,8.808799999999993,2.0,159.25451327984396,16.1245154965971,23.194827009486403,33.06055050963308,36.12478373637688,52.15361924162119,91.26883367283708,68.11754546370561,68.0,70.0,61.0,13.5,25.5,2.5,0.5,18.24828759089466,17.26267650163207,17.5,41.0,64.0,49.64876634922564,{},{}
257,265,40,0,8.842166666666659,4.47213595499958,165.0272704737008,19.026297590440446,22.09072203437452,38.01315561749642,41.04875150354759,51.15662224971465,96.13012014972206,74.06078584514209,72.0,69.0,66.0,16.5,28.5,5.5,0.5,18.24828759089466,16.0312195418814,16.5,43.0,61.0,47.51841748206689,{},{}
258,266,40,0,8.875533333333324,42.1070065428546,167.01197561851666,21.02379604162864,32.0624390837628,43.01162633521314,49.01020301937138,46.17358552246078,141.05672617780408,109.01834707974616,88.0,77.0,75.0,30.0,65.0,29.0,11.0,18.24828759089466,17.029386365926403,18.0,47.0,63.0,47.67598976424087,{},{}
259,267,40,0,8.90889999999999,69.02897942168927,173.0028901492689,19.026297590440446,35.0142828000232,48.010415536631214,56.00892785976178,44.04543109109048,167.01197561851666,132.00378782444085,97.5,82.0,81.0,37.5,85.5,47.5,20.5,17.11724276862369,16.1245154965971,17.0,47.0,62.0,51.47815070493501,{},{}
260,268,40,0,8.942266666666656,81.02468759581859,175.025712396779,18.027756377319943,36.013886210738214,49.04079934095692,57.0350769263968,41.04875150354759,176.0113632695344,140.00357138301865,99.5,83.0,80.0,40.5,94.5,55.5,24.5,16.1245154965971,16.0312195418814,16.5,50.0,63.0,51.35172830587107,{},{}
261,269,40,0,8.975633333333322,85.0235261559999,173.04623659588788,19.0,36.013886210738214,50.039984012787215,59.07622195096772,41.04875150354759,181.00276240985937,145.0,102.5,89.0,85.0,46.0,94.0,55.0,29.0,16.278820596099706,15.033296378372908,15.0,52.0,65.0,51.15662224971465,{},{}
262,270,40,0,9.008999999999988,85.0235261559999,175.04570831642803,20.0,36.013886210738214,51.0881590977792,59.07622195096772,39.01281840626232,180.0,144.00347218036097,101.5,86.0,82.0,45.0,96.0,57.0,28.0,16.278820596099706,14.0356688476182,14.5,53.0,63.0,51.15662224971465,{},{}
263,271,40,0,9.042366666666654,75.05997601918082,178.02527910383964,20.024984394500787,35.0142828000232,49.04079934095692,57.0087712549569,40.049968789001575,170.00294115102832,135.0,97.5,84.0,81.0,42.5,87.5,49.5,24.5,15.297058540778355,16.0312195418814,16.5,59.0,70.0,51.0881590977792,{},{}
264,272,40,0,9.07573333333332,70.00714249274856,179.0111728356641,20.0,35.0142828000232,50.08991914547278,58.034472514187634,40.049968789001575,165.01212076693034,130.00384609695206,95.0,83.0,81.0,42.0,83.0,46.0,25.0,17.26267650163207,16.0,16.0,59.0,69.0,55.14526271584895,{},{}
265,273,40,0,9.109099999999986,69.02897942168927,177.02542190318317,19.0,34.0,50.039984012787215,57.0350769263968,39.05124837953327,161.0,127.0,92.5,79.0,76.0,38.5,83.5,47.5,20.5,19.235384061671343,18.027756377319943,18.0,59.0,69.0,54.230987451824994,{},{}
266,274,40,0,9.142466666666651,72.02777242147643,180.02499826412998,17.0,33.0,52.03844732503075,59.00847396772772,40.049968789001575,162.0,129.0,93.0,76.0,73.0,34.5,87.5,51.5,19.5,17.11724276862369,17.0,17.0,60.0,70.0,55.22680508593631,{},{}
267,275,40,0,9.175833333333316,65.03076195155643,176.02556632489498,17.0,34.0147027033899,49.01020301937138,56.00892785976178,41.10960958218893,157.01273833673497,123.00406497347964,90.5,77.0,74.0,34.5,81.5,44.5,19.5,17.029386365926403,17.029386365926403,17.5,61.0,72.0,55.14526271584895,{},{}
268,276,40,0,9.209199999999983,69.00724599634447,175.10282693320517,17.0,32.01562118716424,49.04079934095692,56.0357029044876,40.11234224026316,158.02847844613325,126.01587201618692,91.5,78.0,72.0,35.0,83.0,48.0,20.0,19.1049731745428,18.110770276274835,18.0,62.0,73.0,54.147945482723536,{},{}
269,277,40,0,9.242566666666647,65.00769185258002,179.0446871593793,16.0312195418814,34.0147027033899,49.01020301937138,55.03635162326805,40.049968789001575,155.0290295396317,121.01652779682615,88.5,74.0,70.0,32.0,83.0,47.0,18.0,19.1049731745428,17.029386365926403,17.5,60.0,72.0,53.23532661682466,{},{}
270,278,40,0,9.275933333333317,71.00704190430693,174.0258601472781,19.0,35.05709628591621,49.01020301937138,57.0087712549569,36.22154055254967,161.07762104029226,126.03570922560004,90.5,76.0,73.0,38.5,86.5,49.5,21.5,19.1049731745428,18.027756377319943,18.5,59.0,72.0,56.08029957123981,{},{}
271,279,40,0,9.30929999999998,72.02777242147643,175.0114281982751,16.0312195418814,36.013886210738214,49.01020301937138,57.0,37.05401462729781,161.01242188104618,125.00399993600205,89.0,72.0,70.0,34.0,90.0,51.0,20.0,18.110770276274835,16.0312195418814,17.0,57.0,68.0,53.08483775994799,{},{}
272,280,40,0,9.342666666666648,68.00735254367721,178.02527910383964,16.0,33.06055050963308,49.04079934095692,56.00892785976178,39.11521443121589,156.05127362504928,123.01625908797584,89.0,71.0,68.0,30.5,86.5,50.5,17.5,19.1049731745428,17.029386365926403,18.0,58.0,71.0,55.14526271584895,{},{}
273,281,40,0,9.376033333333313,61.0,178.07021087200408,17.0,33.06055050963308,50.039984012787215,57.0350769263968,37.21558813185679,148.12157169028418,115.06954418958998,84.5,70.0,65.0,30.5,80.5,44.5,16.5,19.1049731745428,18.027756377319943,18.0,57.0,71.0,55.14526271584895,{},{}
274,282,40,0,9.409399999999978,57.0087712549569,185.06755523321743,16.0312195418814,33.015148038438355,51.03920062069938,59.07622195096772,38.11823710509184,144.05554484295286,111.04053313993047,82.5,67.0,62.0,26.5,79.5,43.5,13.5,10.198039027185567,9.0,9.0,57.0,72.0,57.21887800367987,{},{}
275,283,40,0,9.442766666666644,58.00862004909271,189.2141643746577,16.0312195418814,34.0147027033899,51.0881590977792,58.137767414994535,35.12833614050059,143.05593311708537,109.04127658827184,80.0,65.0,56.0,25.5,82.5,46.5,12.5,8.54400374531753,9.055385138137416,8.5,56.0,71.0,54.45181356024793,{},{}
276,284,40,0,9.47613333333331,61.00819617067857,188.0957203128237,17.0,34.0147027033899,51.03920062069938,58.077534382926416,35.0142828000232,147.00340132119393,113.0,82.5,65.0,59.0,27.0,85.0,49.0,13.0,6.708203932499369,7.0,7.0,55.0,71.0,55.44366510251645,{},{}
277,285,40,0,9.509499999999976,67.02984409947557,185.09727172489605,16.0312195418814,33.015148038438355,50.08991914547278,58.077534382926416,35.0,151.0,118.00423721205946,84.5,66.0,60.0,28.0,88.0,53.0,16.0,6.708203932499369,6.082762530298219,6.5,57.0,71.0,54.45181356024793,{},{}
278,286,40,0,9.542866666666642,67.02984409947557,185.06755523321743,17.0,33.015148038438355,51.03920062069938,59.07622195096772,36.013886210738214,153.0,120.0041665943312,86.5,69.0,64.0,30.5,86.5,50.5,16.5,8.54400374531753,8.06225774829855,8.0,58.0,72.0,54.3323108288245,{},{}
279,287,40,0,9.576233333333308,63.00793600809346,182.0439507371777,18.0,37.0,49.04079934095692,57.0350769263968,37.01351104664349,155.0,118.0,86.5,67.0,63.0,28.0,90.0,49.0,13.0,10.198039027185567,10.0,10.0,59.0,73.0,51.47815070493501,{},{}
280,288,40,0,9.609599999999974,64.00781202322104,182.0439507371777,16.0,34.0,49.04079934095692,56.0357029044876,37.12142238654117,151.0132444522665,117.01709276853532,85.0,65.0,61.0,26.0,88.0,51.0,13.0,13.152946437965904,14.0,14.0,59.0,73.0,53.150729063673246,{},{}
281,289,40,0,9.64296666666664,59.0,180.02499826412998,17.0,35.0,49.01020301937138,56.00892785976178,36.05551275463989,147.0136048126159,112.01785571952357,82.5,64.0,61.0,26.5,84.5,46.5,12.5,16.1245154965971,17.0,17.0,59.0,73.0,53.33854141237835,{},{}
282,290,40,0,9.676333333333304,61.00819617067857,177.01129907438113,17.0,33.0,49.04079934095692,56.0,37.05401462729781,148.00337833982033,115.00434774390054,84.5,65.0,63.0,27.0,84.0,47.0,13.0,17.11724276862369,18.0,18.0,63.0,75.0,56.22277118748239,{},{}
283,291,40,0,9.709699999999971,63.00793600809346,177.01129907438113,17.0,33.015148038438355,49.04079934095692,56.00892785976178,35.0142828000232,148.00337833982033,115.0,83.5,64.0,62.0,28.0,85.0,48.0,14.0,19.1049731745428,19.026297590440446,19.0,63.0,75.0,56.32051136131489,{},{}
284,292,40,0,9.743066666666635,67.00746227100382,177.01129907438113,17.0,34.0,49.04079934095692,57.0,35.0,153.00326793895613,119.00420160649792,85.5,64.0,62.0,28.0,90.0,52.0,14.0,20.09975124224178,19.026297590440446,19.5,64.0,75.0,58.30951894845301,{},{}
285,293,40,0,9.776433333333305,76.02631123499285,178.01123560045303,16.0,34.0,47.042533945356304,56.00892785976178,35.0142828000232,161.00310556011024,127.00393694685216,89.0,66.0,64.0,30.0,96.0,58.0,17.0,20.09975124224178,20.024984394500787,20.5,62.0,76.0,57.21887800367987,{},{}
286,294,40,0,9.809799999999967,82.05485969764375,176.00284088616297,15.0,36.0,50.00999900019995,58.00862004909271,34.0,167.0269439342048,131.03434664239754,90.0,65.0,64.0,30.5,102.5,62.5,17.5,18.027756377319943,18.0,18.5,60.0,75.0,58.42088667591412,{},{}
287,295,40,0,9.843166666666637,86.02325267042627,179.00279327429502,15.0,36.0,49.01020301937138,57.0,33.015148038438355,170.02646852769718,134.03357788255897,91.0,65.0,64.0,31.5,105.5,64.5,18.5,18.027756377319943,19.026297590440446,19.5,60.0,75.0,58.42088667591412,{},{}
288,296,40,0,9.8765333333333,81.02468759581859,178.0,15.0,35.0,46.01086828130936,54.0,35.0,166.01204775557707,131.01526628603247,90.5,63.0,63.0,28.0,103.0,64.0,15.0,21.095023109728988,21.0,21.0,61.0,75.0,57.706152185014034,{},{}
289,297,40,0,9.909899999999968,83.02409288875127,181.0,14.0356688476182,33.0,47.01063709417264,55.0,34.0147027033899,164.01219466856725,131.01526628603247,89.5,61.0,61.0,27.0,103.0,65.0,15.0,19.026297590440446,21.0,21.0,62.0,76.0,57.42821606144492,{},{}
290,298,40,0,9.943266666666633,66.007575322837,182.0027472320129,15.0,37.01351104664349,48.0,56.0,34.0147027033899,152.00328943809075,115.0,82.0,58.0,59.0,24.5,93.5,52.5,11.5,20.024984394500787,21.0,21.5,61.0,74.0,59.4138031100518,{},{}
291,299,40,0,9.976633333333298,57.0,182.0027472320129,16.0312195418814,36.0,50.00999900019995,57.0087712549569,35.0142828000232,144.0,108.0,79.5,59.0,58.0,23.5,85.5,45.5,10.5,19.026297590440446,19.0,19.0,61.0,73.0,57.42821606144492,{},{}
292,300,40,0,10.009999999999964,48.0,180.06943105369106,17.0,37.0,47.09564735726647,54.08326913195984,34.0,136.0,99.0,75.0,61.0,56.0,24.5,77.5,37.5,10.5,21.02379604162864,20.0,20.5,61.0,74.0,58.30951894845301,{},{}
293,301,40,0,10.04336666666663,43.01162633521314,182.0988742414406,17.0,36.0,49.04079934095692,55.08175741568164,33.0,129.00387591076478,93.00537618869136,71.5,61.0,55.0,25.0,71.0,34.0,11.0,19.026297590440446,19.0,19.5,60.0,72.0,58.42088667591412,{},{}
294,302,40,0,10.076733333333296,42.04759208325728,182.0439507371777,17.0,37.0,49.01020301937138,55.03635162326805,33.015148038438355,129.00387591076478,92.00543462209176,71.0,61.0,57.0,26.0,70.0,31.0,11.0,18.027756377319943,19.0,19.5,61.0,74.0,57.42821606144492,{},{}
295,303,40,0,10.110099999999962,45.0111097397076,178.04493814764857,19.0,37.01351104664349,49.04079934095692,56.0357029044876,31.016124838541646,132.00378782444085,95.0,72.5,65.0,61.0,32.0,69.0,30.0,15.0,19.1049731745428,20.0,20.5,61.0,74.0,59.30430001273095,{},{}
296,304,40,0,10.143466666666628,43.01162633521314,171.0263137648707,20.0,38.0,47.01063709417264,53.009433122794285,31.016124838541646,132.0,94.0,72.5,66.0,63.0,33.5,67.5,26.5,15.5,21.02379604162864,20.0,20.5,62.0,76.0,59.4138031100518,{},{}
297,305,40,0,10.176833333333294,46.0,170.0470523119998,19.0,40.0,47.042533945356304,53.009433122794285,31.016124838541646,136.0036764208968,96.00520819205592,73.0,68.0,64.0,35.0,70.0,27.0,18.0,20.024984394500787,20.024984394500787,20.5,62.0,75.0,59.30430001273095,{},{}
298,306,40,0,10.21019999999996,50.0,169.0266251216062,18.0,38.0,47.042533945356304,54.00925846556311,33.0,139.0,101.0,76.0,69.0,66.0,34.5,71.5,30.5,18.5,22.0,22.02271554554524,22.0,62.0,75.0,60.20797289396148,{},{}
299,307,40,0,10.243566666666624,57.0,165.00303027520434,17.0,38.0,45.044422518220834,52.03844732503075,35.0142828000232,147.00340132119393,109.00458705944445,80.5,71.0,70.0,35.5,76.5,35.5,20.5,21.02379604162864,21.02379604162864,21.5,63.0,76.0,64.38167441127949,{},{}
300,308,40,0,10.276933333333291,58.034472514187634,161.00310556011024,18.0,37.0,45.0111097397076,52.03844732503075,34.0147027033899,147.03060905811415,110.04090148667449,81.0,71.0,72.0,37.5,75.5,35.5,21.5,21.02379604162864,21.0,21.5,64.0,76.0,62.39390995922599,{},{}
301,309,40,0,10.310299999999955,61.032778078668514,162.01234520862909,18.0,38.0,46.0,52.009614495783374,35.0,152.0131573252789,114.0175425099138,83.5,72.0,74.0,38.0,79.0,38.0,21.0,18.027756377319943,18.027756377319943,18.5,65.0,76.0,61.20457499239743,{},{}
302,310,40,0,10.343666666666625,64.00781202322104,165.00303027520434,18.0,37.0,47.0,53.0,35.05709628591621,154.02921800749365,117.03845521878696,85.0,74.0,75.0,39.5,79.5,39.5,22.5,10.04987562112089,10.04987562112089,10.5,64.0,75.0,59.21148537234985,{},{}
303,311,40,0,10.377033333333287,65.03076195155643,164.0,18.0,38.0,45.0,53.009433122794285,34.0147027033899,155.0290295396317,117.03845521878696,84.5,72.0,72.0,38.0,83.0,42.0,21.0,7.280109889280518,7.071067811865476,7.5,61.0,72.0,57.21887800367987,{},{}
304,312,40,0,10.410399999999957,62.00806399170998,162.0,18.0,37.0,45.0111097397076,52.009614495783374,37.01351104664349,154.01298646542764,117.01709276853532,86.0,73.0,73.0,36.0,81.0,41.0,20.0,9.219544457292889,10.04987562112089,9.5,62.0,72.0,56.32051136131489,{},{}
305,313,40,0,10.44376666666662,50.039984012787215,155.00322577288512,17.0,36.0,43.0,49.01020301937138,40.01249804748511,143.0314650697531,107.0420478129973,82.0,72.0,73.0,32.5,70.5,32.5,16.5,14.142135623730953,12.0,12.5,60.0,70.0,57.3149195236284,{},{}
306,314,40,0,10.477133333333288,27.16615541441225,150.0133327407934,19.0,34.0,40.0,46.0,46.01086828130936,126.0634760745554,92.0869154657707,78.5,69.0,71.0,24.0,56.0,19.0,7.0,14.142135623730953,13.0,13.5,60.0,71.0,60.29925372672534,{},{}
307,315,40,0,10.510499999999952,10.198039027185567,152.0131573252789,19.0,32.0,40.0,44.0,49.01020301937138,110.00454536063498,78.00640999302557,73.0,65.0,67.0,17.0,44.0,10.0,0.0,18.110770276274835,16.0312195418814,16.5,58.0,70.0,57.42821606144492,{},{}
308,316,40,0,10.543866666666618,3.605551275463989,149.01342221424215,21.0,34.0147027033899,38.0,43.0,47.0,105.00476179678712,71.02816342831905,69.5,64.0,66.0,18.0,40.0,4.0,1.0,18.027756377319943,18.027756377319943,18.0,57.0,71.0,58.54912467321779,{},{}
309,317,40,0,10.577233333333284,6.324555320336759,152.00328943809075,21.0,35.0142828000232,39.01281840626232,43.0,46.0,108.00462953040486,73.02739212103907,70.0,64.0,63.0,17.5,44.5,7.5,1.5,18.110770276274835,17.029386365926403,18.0,55.0,71.0,59.84145720150872,{},{}
310,318,40,0,10.61059999999995,15.132745950421556,156.02884348735012,21.0,35.0142828000232,43.01162633521314,48.010415536631214,43.01162633521314,114.0,79.00632886041473,71.5,63.0,60.0,18.5,52.5,15.5,0.5,18.110770276274835,16.0312195418814,16.5,49.0,67.0,55.731499172371095,{},{}
311,319,40,0,10.643966666666616,18.110770276274835,155.00322577288512,20.0,37.01351104664349,43.0,48.010415536631214,42.04759208325728,117.00427342623004,80.0,71.0,62.0,61.0,19.5,55.5,16.5,1.5,18.110770276274835,16.0312195418814,16.5,47.0,66.0,56.08921464952064,{},{}
312,320,40,0,10.677333333333282,18.24828759089466,154.00324671902212,20.024984394500787,35.0142828000232,43.0,48.010415536631214,41.01219330881976,114.0,79.00632886041473,70.0,62.0,61.0,20.5,52.5,14.5,2.5,18.110770276274835,16.1245154965971,16.5,48.0,69.0,57.87054518492115,{},{}
313,321,40,0,10.710699999999948,14.142135623730953,148.00337833982033,21.0,37.01351104664349,41.0,46.0,41.0,113.00442469213318,76.02631123499285,69.0,61.0,60.0,19.5,52.5,12.5,0.5,17.11724276862369,16.0312195418814,17.0,47.0,68.0,54.91812087098393,{},{}
314,322,40,0,10.744066666666614,10.44030650891055,148.03040228277433,23.021728866442675,38.01315561749642,40.0,45.0111097397076,44.01136216933077,115.0,77.00649323271382,72.0,63.0,60.0,17.5,53.5,12.5,3.5,18.110770276274835,16.1245154965971,17.0,50.0,72.0,56.88585061331157,{},{}
315,323,40,0,10.77743333333328,11.04536101718726,147.05441169852742,22.0,37.01351104664349,40.0,44.01136216933077,44.10215414239989,114.03946685248928,77.02596964660685,71.5,63.0,59.0,17.0,53.0,14.0,3.0,17.26267650163207,17.11724276862369,17.5,51.0,72.0,57.87054518492115,{},{}
316,324,40,0,10.810799999999944,21.02379604162864,153.11760186209813,22.02271554554524,38.01315561749642,42.01190307520001,46.01086828130936,43.04648650006177,124.03628501370072,86.02325267042627,75.5,65.0,59.0,19.0,62.0,22.0,0.0,19.1049731745428,17.029386365926403,17.5,52.0,73.0,57.706152185014034,{},{}
317,325,40,0,10.844166666666611,34.058772731852805,160.15305179733542,22.02271554554524,38.05259518088089,45.044422518220834,51.0881590977792,39.01281840626232,133.01503674397117,95.0,78.0,67.0,60.0,24.5,69.5,29.5,5.5,18.24828759089466,16.1245154965971,17.0,53.0,74.0,60.53098380168623,{},{}
318,326,40,0,10.877533333333275,43.01162633521314,164.19500601419034,20.024984394500787,36.05551275463989,46.04345773288535,52.15361924162119,38.0,137.01459776242822,101.0,79.5,68.0,60.0,26.0,73.0,35.0,9.0,19.235384061671343,18.027756377319943,18.0,53.0,73.0,57.42821606144492,{},{}
319,327,40,0,10.910899999999945,41.0,168.2973558912914,21.0,37.01351104664349,46.04345773288535,52.15361924162119,37.05401462729781,136.03308421115798,99.02019995940222,78.5,66.0,56.0,24.0,75.0,37.0,6.0,19.1049731745428,18.027756377319943,18.5,54.0,75.0,58.42088667591412,{},{}
320,328,40,0,10.944266666666609,44.04543109109048,174.28711943227475,20.024984394500787,35.05709628591621,46.09772228646444,53.150729063673246,37.01351104664349,136.01470508735443,101.0,79.0,64.0,54.0,22.0,77.0,40.0,6.0,19.235384061671343,17.029386365926403,18.0,55.0,74.0,62.51399843235114,{},{}
321,329,40,0,10.977633333333277,37.0,175.34537347760278,21.02379604162864,36.013886210738214,47.09564735726647,52.23983154643591,37.01351104664349,131.03434664239754,95.0210502993942,76.5,63.0,52.0,20.5,73.5,35.5,3.5,18.24828759089466,17.029386365926403,17.5,53.0,74.0,62.39390995922599,{},{}
322,330,40,0,11.01099999999994,31.0,182.33211456021672,21.02379604162864,35.05709628591621,48.0936586256442,54.147945482723536,38.05259518088089,125.09996003196804,90.0499861188218,74.5,60.0,49.0,16.5,70.5,33.5,0.5,13.341664064126334,13.0,13.5,54.0,74.0,58.54912467321779,{},{}
323,331,40,0,11.044366666666606,29.017236257093817,185.4561942885705,21.02379604162864,37.05401462729781,48.0936586256442,53.23532661682466,37.05401462729781,124.14507642270796,87.09190547921202,72.5,60.0,47.0,16.5,70.5,31.5,0.5,5.830951894845301,6.0,6.5,54.0,73.0,62.28964600958975,{},{}
324,332,40,0,11.077733333333272,33.0,188.4489320744482,21.095023109728988,37.05401462729781,49.16299421312742,55.22680508593631,36.013886210738214,127.09838708654016,90.0499861188218,73.5,59.0,46.0,16.5,74.5,36.5,0.5,6.708203932499369,6.0,6.0,54.0,75.0,63.38769596696192,{},{}
325,333,40,0,11.111099999999938,36.0,188.52055590836773,20.09975124224178,38.11823710509184,49.16299421312742,56.22277118748239,38.01315561749642,132.13629327327143,94.04786015641186,76.0,63.0,49.0,18.0,76.0,37.0,2.0,7.615773105863909,6.0,6.5,55.0,74.0,64.38167441127949,{},{}
326,334,40,0,11.144466666666604,41.0,186.3249849054066,21.02379604162864,37.12142238654117,51.0881590977792,57.21887800367987,37.12142238654117,136.1800279042415,99.08077512817508,78.5,64.0,53.0,21.5,77.5,38.5,5.5,10.44030650891055,10.0,10.5,56.0,77.0,64.38167441127949,{},{}
327,335,40,0,11.17783333333327,53.0,187.6006396577581,20.09975124224178,39.11521443121589,51.15662224971465,59.30430001273095,37.01351104664349,149.12075643584967,110.04090148667449,83.5,70.0,55.0,25.5,86.5,46.5,10.5,13.341664064126334,12.0,12.5,55.0,77.0,60.67124524847005,{},{}
328,336,40,0,11.211199999999936,67.00746227100382,183.46116755324545,19.026297590440446,38.05259518088089,52.08646657242167,60.13318551349163,39.05124837953327,163.04907236779974,125.01599897613104,91.5,77.0,64.0,31.5,92.5,52.5,16.5,16.278820596099706,14.0356688476182,15.0,57.0,78.0,60.53098380168623,{},{}
329,337,40,0,11.244566666666602,67.00746227100382,184.39088914585776,19.026297590440446,37.12142238654117,51.15662224971465,59.21148537234985,37.05401462729781,160.0781059358212,123.01625908797584,89.5,74.0,62.0,31.0,92.0,53.0,16.0,18.24828759089466,17.11724276862369,16.5,57.0,78.0,65.76473218982953,{},{}
330,338,40,0,11.277933333333268,57.0,189.44656238633627,20.024984394500787,36.05551275463989,52.15361924162119,59.13543776789008,37.01351104664349,150.05332385522155,114.0175425099138,85.5,72.0,59.0,28.5,84.5,46.5,12.5,20.223748416156685,18.110770276274835,18.0,58.0,78.0,66.75327707311455,{},{}
331,339,40,0,11.311299999999934,46.0,192.3746345025768,21.02379604162864,37.12142238654117,53.150729063673246,60.20797289396148,37.0,141.05672617780408,104.00480758118827,81.0,68.0,56.0,25.0,79.0,40.0,9.0,19.235384061671343,18.110770276274835,18.0,56.0,77.0,67.08203932499369,{},{}
332,340,40,0,11.3446666666666,42.0,193.31321734428812,21.02379604162864,37.05401462729781,53.150729063673246,58.215118311311535,38.01315561749642,138.05795884337854,101.01980003939822,80.0,66.0,55.0,22.5,77.5,38.5,6.5,19.1049731745428,18.027756377319943,18.0,59.0,77.0,63.788713735268246,{},{}
333,341,40,0,11.378033333333263,47.0,193.31321734428812,21.02379604162864,37.05401462729781,52.15361924162119,58.137767414994535,38.0,143.0314650697531,106.00471687618432,82.5,67.0,56.0,23.5,81.5,42.5,7.5,20.223748416156685,19.1049731745428,19.0,60.0,79.0,67.89698078707183,{},{}
334,342,40,0,11.411399999999931,49.01020301937138,193.25889371514057,22.0,38.05259518088089,54.147945482723536,61.20457499239743,36.013886210738214,145.0551619212498,107.01868995647442,82.5,68.0,58.0,27.0,82.0,42.0,9.0,22.09072203437452,20.09975124224178,20.5,58.0,76.0,69.35416353759881,{},{}
335,343,40,0,11.444766666666595,47.01063709417264,194.164878389476,20.0,39.01281840626232,53.03772242470448,60.03332407921454,39.05124837953327,145.0137924474772,106.00471687618432,82.5,68.0,60.0,25.0,81.0,39.0,9.0,20.09975124224178,18.0,19.0,61.0,77.0,66.37017402418047,{},{}
336,344,40,0,11.478133333333265,46.01086828130936,194.164878389476,20.024984394500787,39.05124837953327,55.00909015790027,61.07372593840988,38.05259518088089,143.05593311708537,104.01922899156676,81.0,66.0,58.0,24.0,81.0,39.0,7.0,20.024984394500787,18.027756377319943,18.5,62.0,77.0,65.27633568147036,{},{}
337,345,40,0,11.511499999999929,48.04164859785725,193.0932417253385,22.02271554554524,38.05259518088089,53.03772242470448,59.13543776789008,38.11823710509184,146.05478424207814,108.0185169311262,84.0,65.0,59.0,24.0,84.0,43.0,6.0,21.02379604162864,20.024984394500787,20.5,64.0,79.0,65.27633568147036,{},{}
338,346,40,0,11.544866666666596,50.039984012787215,195.1640335717624,20.024984394500787,38.01315561749642,54.037024344425184,60.07495318350236,39.11521443121589,147.03060905811415,109.01834707974616,84.0,66.0,58.0,23.0,85.0,44.0,7.0,22.02271554554524,20.024984394500787,20.5,63.0,78.0,68.26419266350405,{},{}
339,347,40,0,11.57823333333326,50.039984012787215,195.1640335717624,20.024984394500787,38.01315561749642,54.037024344425184,60.07495318350236,39.11521443121589,147.03060905811415,109.01834707974616,84.0,66.0,58.0,23.0,85.0,44.0,7.0,22.02271554554524,20.024984394500787,20.5,63.0,78.0,68.26419266350405,{},{}
340,348,40,0,11.611599999999926,61.032778078668514,193.0932417253385,20.0,39.05124837953327,53.03772242470448,60.07495318350236,39.11521443121589,159.02829936838285,120.0041665943312,89.5,68.0,62.0,26.0,94.0,51.0,10.0,23.021728866442675,21.02379604162864,21.5,64.0,78.0,68.18357573492314,{},{}
341,349,40,0,11.644966666666592,64.03124237432849,192.12756179163884,20.0,41.01219330881976,53.03772242470448,61.07372593840988,40.049968789001575,165.00303027520434,124.0,92.0,73.0,66.0,29.5,95.5,50.5,13.5,22.02271554554524,21.02379604162864,21.5,64.0,79.0,65.12296062065974,{},{}
342,350,40,0,11.678333333333258,61.032778078668514,186.0430057809216,21.0,41.01219330881976,51.0098029794274,59.033888572581766,42.04759208325728,165.00303027520434,124.0,93.5,76.0,72.0,32.0,91.0,46.0,14.0,23.021728866442675,21.095023109728988,22.0,63.0,77.0,68.3593446428504,{},{}
343,351,40,0,11.711699999999924,41.01219330881976,183.0437106267244,22.0,39.01281840626232,49.01020301937138,55.00909015790027,48.04164859785725,150.0133327407934,111.00450441310927,90.5,76.0,72.0,26.0,76.0,34.0,7.0,22.02271554554524,22.02271554554524,22.5,62.0,78.0,70.11419257183242,{},{}
344,352,40,0,11.74506666666659,7.280109889280518,182.0,25.0,37.0,47.0,52.009614495783374,54.037024344425184,123.0,86.0,82.5,74.0,74.0,20.0,49.0,10.0,2.0,22.09072203437452,21.095023109728988,22.0,63.0,77.0,70.178344238091,{},{}
345,353,40,0,11.778433333333256,2.8284271247461903,181.0,25.0,37.01351104664349,46.01086828130936,50.0,54.037024344425184,118.00423721205946,81.0,80.0,72.0,72.0,18.0,46.0,6.0,5.0,22.02271554554524,21.02379604162864,22.0,60.0,74.0,71.17583859709698,{},{}
346,354,40,0,11.811799999999922,5.385164807134504,181.00276240985937,22.02271554554524,37.01351104664349,47.0,52.0,54.037024344425184,118.01694793545543,81.00617260431454,78.5,72.0,71.0,17.5,46.5,7.5,1.5,15.132745950421556,13.038404810405298,14.0,62.0,76.0,73.24616030891995,{},{}
347,355,40,0,11.845166666666588,28.0178514522438,185.02432272541893,23.0,40.049968789001575,48.010415536631214,53.009433122794285,50.039984012787215,141.0319112825179,101.00495037373167,87.0,75.0,72.0,23.5,67.5,24.5,2.5,7.615773105863909,6.0,6.5,64.0,79.0,72.3394774656273,{},{}
348,356,40,0,11.878533333333252,43.04648650006177,192.04166214652489,24.0,43.01162633521314,50.0,57.0087712549569,47.042533945356304,157.00318468107582,114.0,92.5,74.0,70.0,25.0,85.0,38.0,3.0,9.219544457292889,9.0,9.5,63.0,78.0,71.34423592694787,{},{}
349,357,40,0,11.91189999999992,54.037024344425184,196.04081207748555,22.02271554554524,41.04875150354759,52.0,59.00847396772772,44.04543109109048,161.02794788483146,120.0041665943312,93.0,73.0,69.0,27.0,90.0,45.0,7.0,8.246211251235321,8.0,9.0,65.0,80.0,72.17340230306452,{},{}
350,358,40,0,11.945266666666583,52.03844732503075,196.04081207748555,22.0,45.0111097397076,51.0098029794274,58.034472514187634,42.190046219457976,161.02794788483146,116.0172400981854,90.0,70.0,66.0,26.0,93.0,45.0,7.0,13.152946437965904,14.0356688476182,14.0,62.0,76.0,69.26037828369117,{},{}
351,359,40,0,11.978633333333253,47.042533945356304,199.01004999748127,19.0,44.01136216933077,52.03844732503075,59.033888572581766,43.18564576337837,153.0294089382822,109.01834707974616,85.5,66.0,64.0,22.0,88.0,41.0,6.0,14.317821063276352,14.0,14.5,59.0,73.0,68.11754546370561,{},{}
352,360,40,0,12.011999999999915,53.08483775994799,204.0392119177096,18.0,38.01315561749642,53.009433122794285,60.03332407921454,40.19950248448356,149.01342221424215,111.00450441310927,84.5,60.0,56.0,18.0,91.0,49.0,3.0,16.278820596099706,14.0,14.5,59.0,73.0,72.24956747275377,{},{}
353,361,40,0,12.045366666666585,51.03920062069938,203.03940504246955,19.026297590440446,39.01281840626232,54.00925846556311,61.00819617067857,39.20459156782532,148.05404418657398,109.04127658827184,83.5,61.0,57.0,20.0,89.0,46.0,5.0,16.0312195418814,15.0,15.5,63.0,75.0,69.18092222571191,{},{}
354,362,40,0,12.078733333333249,52.009614495783374,204.0392119177096,19.0,41.0,54.037024344425184,61.00819617067857,38.11823710509184,150.0133327407934,109.01834707974616,83.0,61.0,57.0,21.0,91.0,46.0,5.0,18.110770276274835,16.0312195418814,17.0,59.0,72.0,72.24956747275377,{},{}
355,363,40,0,12.112099999999916,46.04345773288535,206.0388312915796,20.0,38.01315561749642,56.00892785976178,63.0,39.05124837953327,143.0034964607509,105.0,82.0,62.0,58.0,21.0,83.0,41.0,5.0,17.11724276862369,17.0,17.0,61.0,75.0,71.17583859709698,{},{}
356,364,40,0,12.14546666666658,48.010415536631214,209.02152999152983,21.0,38.01315561749642,55.03635162326805,62.00806399170998,38.11823710509184,145.03103116229988,107.01868995647442,83.0,60.0,57.0,20.5,86.5,44.5,3.5,18.24828759089466,18.027756377319943,18.0,60.0,76.0,70.34912934784623,{},{}
357,365,40,0,12.178833333333246,46.01086828130936,205.0390206765532,21.0,38.01315561749642,55.03635162326805,61.032778078668514,38.11823710509184,143.0314650697531,105.01904589168576,82.0,61.0,57.0,21.0,84.0,43.0,4.0,17.26267650163207,17.0,17.0,60.0,74.0,68.26419266350405,{},{}
358,366,40,0,12.212199999999912,50.0,206.0606706773517,22.0,38.01315561749642,56.0357029044876,62.00806399170998,38.11823710509184,148.05404418657398,110.04090148667449,85.0,64.0,59.0,23.5,86.5,44.5,5.5,19.1049731745428,18.0,18.5,60.0,76.0,70.45565981523414,{},{}
359,367,40,0,12.245566666666578,55.00909015790027,206.08736011701444,21.0,39.05124837953327,54.037024344425184,62.03224967708329,38.11823710509184,153.11760186209813,114.0701538527936,86.5,64.0,58.0,23.0,92.0,50.0,6.0,19.1049731745428,18.027756377319943,18.0,61.0,76.0,70.34912934784623,{},{}
360,368,40,0,12.278933333333244,62.0,203.1994094479608,20.024984394500787,38.05259518088089,54.037024344425184,62.03224967708329,37.33630940518894,157.20368952413298,119.15116449284078,88.0,62.0,53.0,20.5,99.5,57.5,4.5,19.026297590440446,17.029386365926403,18.0,63.0,79.0,70.178344238091,{},{}
361,369,40,0,12.31229999999991,59.033888572581766,201.12185361118767,19.0,38.01315561749642,54.037024344425184,61.00819617067857,38.3275357934736,154.20765220960988,116.21101496846155,86.5,58.0,51.0,16.5,99.5,57.5,1.5,20.09975124224178,18.027756377319943,19.0,62.0,79.0,70.25667228100119,{},{}
362,370,40,0,12.345666666666576,56.0,201.02238681301145,18.0,36.013886210738214,53.009433122794285,60.0,38.47076812334269,148.16544806398016,112.16059914247964,84.0,53.0,50.0,13.5,96.5,56.5,1.5,19.026297590440446,17.029386365926403,17.5,69.0,82.0,70.178344238091,{},{}
363,371,40,0,12.379033333333242,49.01020301937138,195.0,19.0,35.0,51.0,58.034472514187634,39.20459156782532,142.08800090085018,107.1167587261676,82.5,51.0,51.0,12.0,91.0,51.0,3.0,20.024984394500787,19.0,19.5,70.0,81.0,75.05997601918082,{},{}
364,372,40,0,12.412399999999908,46.01086828130936,197.00253805471644,19.0,38.01315561749642,52.0,60.00833275470999,39.20459156782532,142.0563268566381,104.04326023342406,81.0,48.0,47.0,8.5,94.5,50.5,6.5,20.0,18.0,19.0,70.0,79.0,73.10950690573696,{},{}
365,373,40,0,12.445766666666572,48.04164859785725,195.0,18.027756377319943,35.0,51.0,57.0087712549569,40.049968789001575,141.00354605470034,106.00471687618432,82.0,50.0,50.0,10.0,91.0,51.0,5.0,19.026297590440446,18.0,19.0,72.0,82.0,71.11258679024411,{},{}
366,374,40,0,12.47913333333324,45.044422518220834,194.0,18.0,37.01351104664349,52.0,58.00862004909271,41.04875150354759,141.00354605470034,104.0,81.5,49.0,49.0,8.0,92.0,49.0,7.0,22.0,19.026297590440446,19.5,70.0,81.0,72.06247289678588,{},{}
367,375,40,0,12.512499999999903,40.049968789001575,192.00260414900623,19.0,37.0,49.0,55.00909015790027,42.01190307520001,138.00362314084367,101.00495037373167,81.0,50.0,51.0,8.5,87.5,44.5,7.5,20.0,18.027756377319943,18.5,71.0,79.0,75.05997601918082,{},{}
368,376,40,0,12.545866666666573,32.0624390837628,188.0026595556563,19.0,36.0,48.010415536631214,54.00925846556311,45.09988913511872,132.00378782444085,96.00520819205592,80.0,51.0,52.0,6.5,80.5,39.5,9.5,21.02379604162864,18.0,19.0,69.0,79.0,70.06425622241343,{},{}
369,377,40,0,12.579233333333235,18.027756377319943,188.0,19.0,33.0,48.0,53.009433122794285,46.04345773288535,116.00431026474836,83.00602387778854,74.0,52.0,52.0,6.0,64.0,26.0,10.0,19.026297590440446,17.029386365926403,18.0,67.0,78.0,71.06335201775947,{},{}
370,378,40,0,12.612599999999905,20.09975124224178,185.00270268296083,18.0,33.0,46.0,51.0,46.09772228646444,117.00427342623004,84.00595217006948,74.0,52.0,51.0,5.5,65.5,27.5,9.5,21.0,18.027756377319943,19.0,68.0,79.0,72.06247289678588,{},{}
371,379,40,0,12.645966666666569,23.08679276123039,186.0107523773828,20.0,35.0142828000232,48.0,55.0,45.044422518220834,123.00406497347964,88.0,76.5,51.0,53.0,7.0,71.0,31.0,9.0,19.026297590440446,18.027756377319943,18.5,69.0,78.0,71.06335201775947,{},{}
372,380,40,0,12.679333333333236,33.015148038438355,187.00267377767625,19.0,38.0,51.0,57.0087712549569,41.04875150354759,131.00381673829202,93.00537618869136,76.5,51.0,52.0,10.5,79.5,36.5,5.5,18.0,16.0312195418814,17.0,68.0,78.0,71.06335201775947,{},{}
373,381,40,0,12.7126999999999,48.04164859785725,192.01041638411183,18.0,38.0,52.0,59.0,38.11823710509184,142.00352108310554,104.00480758118827,80.0,52.0,50.0,13.0,91.0,48.0,2.0,20.0,18.027756377319943,18.5,69.0,79.0,74.06078584514209,{},{}
374,382,40,0,12.746066666666566,51.03920062069938,194.0025773024678,19.0,38.0,54.0,62.0,35.05709628591621,143.0,105.0,79.5,49.0,48.0,13.5,94.5,51.5,1.5,18.0,16.0312195418814,16.5,71.0,82.0,72.17340230306452,{},{}
375,383,40,0,12.779433333333232,55.03635162326805,200.0024999843752,17.0,37.0,55.00909015790027,62.0,34.0147027033899,143.0034964607509,106.00471687618432,78.5,44.0,45.0,10.5,98.5,55.5,3.5,18.0,16.0312195418814,16.5,70.0,81.0,74.10802925459562,{},{}
376,384,40,0,12.812799999999898,52.009614495783374,201.0,17.0,38.0,57.0,64.0,33.06055050963308,140.00357138301865,102.00490184299969,76.0,43.0,43.0,10.0,97.0,53.0,3.0,17.0,15.0,15.5,71.0,81.0,71.17583859709698,{},{}
377,385,40,0,12.846166666666564,51.03920062069938,204.0024509656685,17.029386365926403,37.01351104664349,57.0,64.0,32.01562118716424,137.00364958642524,100.0,74.5,41.0,42.0,9.5,95.5,52.5,3.5,15.0,14.0356688476182,14.0,71.0,79.0,71.11258679024411,{},{}
378,386,40,0,12.87953333333323,52.03844732503075,204.0024509656685,18.0,36.0,58.0,65.0,31.064449134018133,137.0,101.0,75.0,41.0,42.0,10.5,95.5,53.5,3.5,17.029386365926403,15.0,16.0,72.0,80.0,71.06335201775947,{},{}
379,387,40,0,12.912899999999896,47.01063709417264,206.0218435020908,18.0,38.01315561749642,59.00847396772772,65.00769185258002,30.14962686336267,133.00375934536586,95.0210502993942,71.5,39.0,42.0,10.5,92.5,48.5,4.5,17.029386365926403,16.0,16.0,71.0,81.0,70.11419257183242,{},{}
380,388,40,0,12.946266666666562,49.01020301937138,203.0098519776811,18.0,36.0,58.0,65.00769185258002,31.064449134018133,134.00373129133382,98.00510190801292,73.5,40.0,42.0,10.0,93.0,51.0,4.0,16.0312195418814,15.0,15.0,72.0,83.0,72.11102550927978,{},{}
381,389,40,0,12.979633333333227,48.04164859785725,204.00980368599937,17.0,37.0,59.00847396772772,66.007575322837,31.064449134018133,133.0,96.0,72.0,39.0,41.0,9.0,93.0,50.0,4.0,14.0356688476182,14.0,14.5,72.0,81.0,73.10950690573696,{},{}
382,390,40,0,13.012999999999892,45.044422518220834,203.0,18.0,37.0,57.0,63.0,30.01666203960727,130.00384609695206,93.00537618869136,70.5,41.0,41.0,11.0,89.0,47.0,3.0,18.0,16.0312195418814,16.0,72.0,81.0,68.06614430096654,{},{}
383,391,40,0,13.04636666666656,46.01086828130936,205.00243900988104,19.0,36.0,56.00892785976178,63.00793600809346,30.0,131.00381673829202,95.00526301210895,72.0,42.0,43.0,12.5,88.5,47.5,3.5,16.0,13.0,13.5,72.0,79.0,68.06614430096654,{},{}
384,392,40,0,13.079733333333223,47.042533945356304,204.0024509656685,18.0,34.0,56.00892785976178,63.00793600809346,30.01666203960727,129.0348790056394,95.0473566176356,71.5,43.0,44.0,13.5,85.5,47.5,0.5,13.0,13.038404810405298,13.5,71.0,76.0,70.00714249274856,{},{}
385,664,40,1,22.155466666666342,55.00909015790027,171.68575945604806,17.26267650163207,36.49657518178932,50.48762224545735,56.56854249492381,43.41658669218482,151.8453160291749,115.43396380615197,87.5,92.0,68.0,37.0,71.0,35.0,26.0,20.39607805437113,20.615528128088304,20.5,45.0,85.0,66.2872536767062,{},{}
386,665,40,0,22.18883333333301,64.00781202322104,170.69563556224864,15.132745950421556,34.52535300326414,49.49747468305833,55.57877292636101,44.28317965096906,157.62296786953354,123.25988804148736,91.0,93.0,69.0,37.0,76.0,41.0,27.0,20.39607805437113,19.6468827043885,19.5,46.0,88.0,66.70832032063167,{},{}
387,666,40,0,22.22219999999968,61.00819617067857,177.7667010438119,14.142135623730953,36.49657518178932,52.3450093132096,58.54912467321779,44.40720662234904,155.72411502397438,119.33985084622825,88.5,90.0,65.0,33.5,77.5,40.5,24.5,15.811388300841896,14.560219778561036,14.5,45.0,86.0,60.41522986797286,{},{}
388,667,40,0,22.255566666666343,47.01063709417264,179.12007146045917,14.142135623730953,31.400636936215164,50.35871324805669,55.326304774492215,45.17742799230607,137.5245432641025,106.23088063270492,82.5,82.0,62.0,27.0,65.0,33.0,18.0,10.770329614269007,9.486832980505138,9.5,48.0,88.0,61.39218191268331,{},{}
389,668,40,0,22.28893333333301,44.0,177.47675904185314,14.142135623730953,32.14031735997639,50.15974481593781,55.14526271584895,44.181444068749045,134.30189872075525,102.1763181955584,80.0,76.0,63.0,25.5,64.5,30.5,15.5,11.704699910719626,10.770329614269007,11.0,49.0,88.0,64.93843238021688,{},{}
390,669,40,0,22.322299999999675,47.0,173.4156855650607,14.0356688476182,32.14031735997639,51.0881590977792,56.0357029044876,46.17358552246078,139.2300254973761,107.1167587261676,83.5,77.0,65.0,25.0,68.0,33.0,14.0,11.704699910719626,11.40175425099138,12.0,50.0,88.0,67.89698078707183,{},{}
391,670,40,0,22.35566666666634,43.01162633521314,169.49926253526883,15.297058540778355,35.22782990761707,48.04164859785725,52.08646657242167,46.09772228646444,139.29106216839614,104.12012293500234,82.5,78.0,65.0,25.5,67.5,30.5,13.5,18.68154169226941,16.76305461424021,16.5,52.0,88.0,63.953107821277925,{},{}
392,671,40,0,22.389033333333007,42.01190307520001,162.4438364481706,14.142135623730953,35.22782990761707,45.044422518220834,49.01020301937138,49.09175083453431,140.22838514366484,105.07616285342742,84.0,78.0,66.0,23.0,68.0,31.0,12.0,20.39607805437113,18.68154169226941,18.5,52.0,89.0,65.92419889539804,{},{}
393,672,40,0,22.42239999999968,24.08318915758459,169.1892431568863,15.132745950421556,37.12142238654117,45.044422518220834,49.01020301937138,54.00925846556311,130.06152390311286,93.00537618869136,81.0,71.0,63.0,13.0,63.0,23.0,1.0,20.39607805437113,19.6468827043885,20.0,51.0,88.0,68.24954212300622,{},{}
394,673,40,0,22.45576666666634,36.0,165.24527224704494,15.033296378372908,36.12478373637688,43.01162633521314,47.01063709417264,56.08029957123981,143.17122615944868,107.07474025184464,89.0,71.0,62.0,10.5,76.5,36.5,1.5,21.37755832643195,19.6468827043885,20.0,51.0,88.0,68.24954212300622,{},{}
395,674,40,0,22.489133333333005,33.015148038438355,163.19620093617377,15.132745950421556,34.23448553724738,41.01219330881976,46.01086828130936,55.00909015790027,137.13132391981054,103.0194156457898,86.5,68.0,60.0,9.0,73.0,36.0,3.0,21.37755832643195,19.6468827043885,20.0,52.0,90.0,66.49060083951716,{},{}
396,675,40,0,22.52249999999967,26.019223662515376,165.24527224704494,15.132745950421556,33.24154027718932,41.01219330881976,45.0111097397076,57.0350769263968,131.18688958886096,98.04590761474952,85.0,67.0,58.0,5.5,68.5,31.5,6.5,22.36067977499789,20.8806130178211,21.0,50.0,88.0,65.30696746902278,{},{}
397,676,40,0,22.555866666666336,12.0,160.25292509030842,14.142135623730953,32.14031735997639,38.11823710509184,42.04759208325728,62.12889826803627,120.33702672078948,88.20430828479978,82.0,67.0,58.0,0.5,57.5,22.5,9.5,19.235384061671343,19.6468827043885,19.5,48.0,87.0,63.953107821277925,{},{}
398,677,40,0,22.589233333333,3.1622776601683795,156.20499351813308,15.132745950421556,29.154759474226505,37.05401462729781,41.10960958218893,59.07622195096772,106.23088063270492,77.10382610480494,75.5,66.0,58.0,3.0,44.0,13.0,8.0,21.37755832643195,18.68154169226941,19.0,50.0,88.0,65.11528238439882,{},{}
399,678,40,0,22.622599999999668,5.0990195135927845,158.25612152457168,16.0312195418814,31.14482300479488,39.11521443121589,43.10452412450461,56.32051136131489,108.37435120913068,77.23341245859851,74.5,64.0,55.0,3.5,48.5,15.5,7.5,20.223748416156685,19.6468827043885,19.5,48.0,87.0,64.32728814430156,{},{}
400,679,40,0,22.65596666666633,1.0,158.3161394173064,17.11724276862369,30.14962686336267,41.10960958218893,44.10215414239989,55.57877292636101,102.70345661174214,72.56031973468694,72.0,64.0,54.0,4.0,43.0,11.0,8.0,21.213203435596427,20.8806130178211,20.0,49.0,87.0,67.08203932499369,{},{}
401,680,40,0,22.689333333333,17.0,159.45218719101973,15.033296378372908,29.27456233660889,41.10960958218893,44.10215414239989,54.589376255824725,115.73245007343446,86.46964785403026,77.5,66.0,54.0,6.0,55.0,23.0,5.0,22.20360331117452,20.615528128088304,21.0,51.0,88.0,66.91038783328041,{},{}
402,681,40,0,22.722699999999666,7.0,160.70158679988197,23.021728866442675,40.19950248448356,42.190046219457976,47.16990566028302,52.773099207835045,122.80065146407,82.60750571225353,78.5,73.0,58.0,13.5,56.5,15.5,4.5,23.194827009486403,21.587033144922906,21.5,51.0,88.0,66.09841147864296,{},{}
403,682,40,0,22.75606666666633,21.0,164.10362579784763,20.09975124224178,37.21558813185679,45.27692569068709,49.25444142409901,50.80354318352215,128.87590930814028,91.6624241442479,80.5,74.0,55.0,14.5,63.5,25.5,0.5,22.20360331117452,20.615528128088304,21.0,51.0,87.0,64.93843238021688,{},{}
404,683,40,0,22.789433333333,18.027756377319943,162.9969324864735,17.11724276862369,38.2099463490856,46.17358552246078,50.15974481593781,50.80354318352215,124.03628501370072,85.84287972802403,76.0,74.0,56.0,15.0,58.0,19.0,2.0,22.20360331117452,20.615528128088304,21.0,49.0,86.0,63.953107821277925,{},{}
405,684,40,0,22.822799999999663,30.0,165.6804152578089,17.11724276862369,33.24154027718932,43.18564576337837,47.16990566028302,50.48762224545735,130.64838307457157,97.41663102366044,82.0,70.0,55.0,12.5,67.5,31.5,0.5,23.194827009486403,20.8806130178211,21.0,52.0,89.0,65.92419889539804,{},{}
406,685,40,0,22.85616666666633,21.0,166.76930173146374,15.132745950421556,33.24154027718932,43.18564576337837,47.09564735726647,53.33854141237835,122.58874336577564,89.35882720806042,78.5,69.0,53.0,8.0,61.0,26.0,3.0,21.37755832643195,19.6468827043885,19.5,49.0,85.0,66.91038783328041,{},{}
407,686,40,0,22.889533333332995,29.0,165.51132891738862,15.132745950421556,32.2490309931942,43.10452412450461,47.09564735726647,53.46026561849464,129.65338406690356,97.41663102366044,82.5,68.0,55.0,8.5,67.5,32.5,2.5,22.20360331117452,20.615528128088304,20.0,52.0,87.0,62.96824596572466,{},{}
408,687,40,0,22.92289999999966,26.019223662515376,166.3640586184408,15.132745950421556,35.12833614050059,41.04875150354759,45.09988913511872,56.22277118748239,132.30646242719968,97.18538984847466,84.0,68.0,57.0,6.5,69.5,31.5,4.5,21.37755832643195,20.615528128088304,20.5,49.0,86.0,66.75327707311455,{},{}
409,688,40,0,22.956266666666327,15.033296378372908,160.1998751560063,16.1245154965971,31.064449134018133,40.11234224026316,44.04543109109048,59.30430001273095,121.33424908079334,90.27181176868004,82.5,68.0,60.0,5.0,57.0,23.0,6.0,20.39607805437113,18.43908891458577,18.5,50.0,84.0,65.11528238439882,{},{}
410,689,40,0,22.989633333333,10.0,161.37533888422976,16.0312195418814,28.0713376952364,39.11521443121589,43.10452412450461,59.30430001273095,113.35784048754634,85.28774824088158,80.0,68.0,57.0,3.5,50.5,19.5,7.5,20.223748416156685,17.46424919657298,17.5,50.0,84.0,61.98386886924694,{},{}
411,690,40,0,23.02299999999966,14.0356688476182,161.60754932861275,16.1245154965971,30.14962686336267,40.19950248448356,44.10215414239989,57.3149195236284,117.61377470347595,87.46427842267951,80.0,70.0,56.0,6.0,54.0,21.0,4.0,21.213203435596427,18.43908891458577,18.5,51.0,86.0,63.788713735268246,{},{}
412,691,40,0,23.056366666666325,17.0,165.59287424282482,16.1245154965971,29.154759474226505,41.30375285612676,45.27692569068709,58.30951894845301,120.50311199301038,91.35097153287424,82.5,72.0,58.0,7.0,55.0,24.0,4.0,19.235384061671343,17.46424919657298,18.0,51.0,85.0,64.93843238021688,{},{}
413,692,40,0,23.08973333333299,15.132745950421556,162.00308639035245,18.027756377319943,35.12833614050059,42.2965719651132,46.2709412050371,55.90169943749474,124.03628501370072,88.95504482602435,80.5,75.0,57.0,11.0,57.0,20.0,2.0,20.223748416156685,17.46424919657298,18.0,51.0,85.0,61.98386886924694,{},{}
414,693,40,0,23.123099999999656,16.1245154965971,168.57639217873896,20.09975124224178,41.19465984809196,46.2709412050371,49.25444142409901,51.97114584074513,129.2594290564522,88.11923740024082,79.0,75.0,52.0,12.5,64.5,22.5,2.5,21.213203435596427,18.68154169226941,19.0,50.0,86.0,65.30696746902278,{},{}
415,694,40,0,23.15646666666632,24.08318915758459,170.8391055935379,17.11724276862369,38.2099463490856,47.265209192385896,52.23983154643591,49.03060268852505,128.2692480682724,90.09439494219384,77.0,72.0,47.0,11.5,67.5,27.5,0.5,20.223748416156685,17.72004514666935,18.0,50.0,87.0,65.30696746902278,{},{}
