,video_id,frame_seq,gap,time_seconds,m1,m3,m4,m5,m6,m7,m8,m9,m10,m11,m12,m13,m14,m15,m16,m17,e1,e2,e3,b1,b2,b3,m_0_16,m_1_15,m_2_14,m_3_13
0,40,0,0,0.0,87.02298546935747,173.4877517290486,20.09975124224178,35.12833614050059,48.16637831516918,56.142675390472796,39.45883931389772,181.46625030566977,146.34206503941374,102.5,87.0,74.0,41.5,100.5,62.5,25.5,20.223748416156685,20.396078054371138,20.5,60.0,90.0,67.60177512462228,351.1637794534055,359.70682506730395,355.9676951634797,337.87127726399
1,40,1,0,0.0333666666666666,90.0222194794152,173.83325343558406,21.095023109728988,37.21558813185679,47.16990566028302,54.147945482723536,38.47076812334269,186.52613757862463,149.33519344079613,104.0,94.0,77.0,47.5,100.5,61.5,29.5,21.213203435596427,19.235384061671343,20.0,59.0,88.0,66.75327707311455,354.81967250985394,363.5010316353999,359.86942076258714,341.7864830563081
2,40,2,0,0.0667333333333332,95.02105029939419,174.82848738120455,20.09975124224178,34.23448553724738,50.15974481593781,58.137767414994535,39.45883931389772,188.52055590836773,154.3243337908834,106.5,94.0,77.0,46.5,102.5,65.5,30.5,21.213203435596427,20.396078054371138,20.5,59.0,89.0,66.61080993352356,355.8033164544704,363.9793950212017,361.06093668520833,344.64619539463945
3,40,3,0,0.1000999999999998,92.02173656261873,178.12635964393365,20.09975124224178,37.21558813185679,51.35172830587107,60.207972893961475,38.63935817272331,187.6006396577581,150.4027925272666,104.0,91.0,71.0,43.0,106.0,67.0,28.0,21.213203435596427,20.396078054371138,20.5,58.0,92.0,65.92419889539804,354.6406632071399,364.6422904710862,363.0385654444993,347.75997469519115
4,40,4,0,0.1334666666666664,80.02499609497022,176.2554963681984,21.095023109728988,39.20459156782532,51.24451190127583,61.29437168288782,36.87817782917155,176.72577627499618,137.5245432641025,97.0,87.0,66.0,40.5,99.5,58.5,23.5,21.213203435596427,19.4164878389476,19.5,60.0,92.0,65.76473218982953,357.5262228144951,366.28540784475706,364.4845675745408,349.2005154635371
5,40,5,0,0.166833333333333,56.00892785976178,178.90779748239035,21.095023109728988,40.19950248448356,50.24937810560445,58.309518948453004,38.63935817272331,155.63097378092831,115.43396380615195,87.0,76.0,58.0,29.0,88.0,47.0,13.0,23.194827009486403,21.37755832643195,21.5,58.0,92.0,71.02112361825881,357.5933444570802,366.46009332531696,363.5945544146667,350.03571246374275
6,40,6,0,0.2001999999999996,39.0,178.01685313475238,18.110770276274835,38.2099463490856,46.2709412050371,52.3450093132096,42.579337712087536,137.6154061142865,99.40824915468535,79.5,70.0,51.0,18.5,76.5,37.5,5.5,25.079872407968907,23.345235059857504,23.5,59.0,92.0,68.8839603971781,360.20272070044115,367.29416004069543,361.4747570716384,345.9393010341554
7,40,7,0,0.2335666666666662,26.019223662515376,168.4280261714184,16.1245154965971,35.12833614050059,42.1070065428546,48.093658625644196,49.16299421312742,126.25371281669304,91.13725912051558,78.0,69.0,57.0,14.0,63.0,26.0,2.0,24.08318915758459,22.360679774997898,23.5,59.0,93.0,68.06614430096654,360.855926929294,370.10944327320266,364.17715469260287,347.4276903184316
8,40,8,0,0.2669333333333328,15.033296378372908,163.24827717314508,16.1245154965971,35.12833614050059,40.01249804748511,45.0111097397076,52.08646657242167,118.20744477400736,83.09632964216891,75.5,66.0,57.0,9.5,56.5,19.5,3.5,24.08318915758459,23.53720459187964,24.5,58.0,92.0,71.84705978674423,362.9931128823245,371.9408555133464,365.03835414925925,349.1847648452034
9,40,9,0,0.3002999999999994,13.0,170.57549648176317,19.1049731745428,36.124783736376884,41.10960958218893,47.095647357266465,52.23983154643591,120.41594578792295,84.29116205154607,77.5,67.0,53.0,8.0,60.0,22.0,7.0,25.079872407968907,24.186773244895647,24.5,59.0,92.0,71.84705978674423,363.9793950212017,373.5304539123952,366.56513745854227,351.15950791627444
10,40,10,0,0.333666666666666,26.0,176.63804799646084,21.095023109728988,41.10960958218893,44.181444068749045,50.08991914547278,47.38143096192854,135.44740676735012,94.33981132056604,81.0,71.0,56.0,16.5,71.5,28.5,0.5,24.186773244895647,23.345235059857504,23.5,58.0,91.0,73.68174807915459,364.83694988309503,372.6996109469394,367.6955262170047,354.8647629731642
11,40,11,0,0.3670333333333326,37.0,185.6906028855526,22.090722034374522,40.19950248448356,48.16637831516918,55.226805085936306,43.41658669218482,142.50614021858848,102.3132444994293,83.5,70.0,54.0,19.0,80.0,39.0,2.0,25.079872407968907,23.53720459187964,23.5,59.0,92.0,69.87131027825369,365.47092907644515,373.68703482994965,371.098369708087,360.347054934545
12,40,12,0,0.4003999999999992,40.049968789001575,188.76705220985997,22.02271554554524,37.12142238654117,50.24937810560445,57.21887800367987,41.593268686170845,140.60227594174995,103.4842983258813,83.0,70.0,53.0,20.5,78.5,40.5,3.5,25.079872407968907,22.20360331117452,23.0,59.0,93.0,70.03570517957252,365.2998768135571,375.50632484686594,372.6459445640057,365.16845427829605
13,40,13,0,0.4337666666666658,42.01190307520001,190.7590102721232,23.194827009486403,37.21558813185679,51.15662224971465,58.309518948453004,39.45883931389772,141.69333082400175,104.47966309287182,83.0,69.0,52.0,21.5,80.5,42.5,3.5,25.179356624028344,24.331050121192877,24.5,60.0,93.0,70.8590149522275,367.6139279189514,377.6373922163959,376.74659918836693,368.14263540100865
14,40,14,0,0.4671333333333324,44.04543109109048,191.75505208468434,22.090722034374522,35.22782990761707,52.23983154643591,59.30430001273095,38.47076812334269,139.70325694127536,104.47966309287182,82.0,68.0,51.0,21.5,79.5,43.5,4.5,25.079872407968907,23.194827009486403,23.5,60.0,93.0,69.87131027825369,366.80512537313325,376.807643234582,376.88857769903296,369.2654871498283
15,40,15,0,0.5004999999999991,47.01063709417264,191.049731745428,22.090722034374522,35.35533905932738,51.35172830587107,59.413803110051795,37.656340767525464,141.7956275771577,106.47065323364932,82.5,70.0,50.0,23.0,81.0,45.0,6.0,23.194827009486403,22.360679774997898,22.5,61.0,94.0,71.84705978674423,369.2424677633926,379.458825170795,377.73668077114246,370.25666773199373
16,40,16,0,0.5338666666666656,48.093658625644196,194.92819190666086,23.08679276123039,37.21558813185679,54.230987451824994,61.29437168288782,37.656340767525464,145.8800877433243,108.664621657649,84.0,71.0,52.0,24.5,83.5,45.5,7.5,23.194827009486403,22.360679774997898,22.5,61.0,94.0,71.84705978674423,367.6139279189514,377.48244992317194,378.5881667458718,369.8715993422582
17,40,17,0,0.5672333333333321,55.036351623268054,194.03350226185168,22.090722034374522,36.22154055254967,54.230987451824994,62.289646009589745,38.47076812334269,151.64761785138597,115.43396380615195,87.5,75.0,55.0,27.0,86.0,48.0,10.0,13.341664064126334,12.649110640673518,12.5,61.0,94.0,71.7007670809734,368.77364330982226,378.78225935225635,377.73668077114246,369.99729728742614
18,40,18,0,0.6005999999999987,58.077534382926416,196.23710148695125,22.02271554554524,36.22154055254967,53.33854141237835,61.40032573203501,36.345563690772494,152.55490814785344,116.3486140871476,87.0,74.0,52.0,27.0,89.0,52.0,10.0,9.848857801796104,9.219544457292887,8.5,62.0,95.0,68.06614430096654,369.68770604389863,379.7788830359055,379.7696670351649,369.9621602272319
19,40,19,0,0.6339666666666652,55.036351623268054,197.2308292331602,21.095023109728988,37.33630940518894,53.23532661682466,62.289646009589745,37.48332962798263,150.74813431681335,113.44161493913951,85.5,74.0,52.0,26.0,87.0,49.0,10.0,8.602325267042627,7.280109889280518,6.5,59.0,92.0,72.00694410957877,368.1480680378481,379.1042073098108,379.15827829548965,370.52665221276595
20,40,20,0,0.6673333333333318,57.0350769263968,196.3517252279694,22.090722034374522,36.345563690772494,54.3323108288245,62.39390995922599,36.49657518178932,151.74320413119,115.43396380615195,86.5,77.0,54.0,29.5,85.5,49.5,12.5,12.649110640673518,11.40175425099138,11.0,60.0,94.0,71.19691004531025,369.4996617048519,380.42213395122,378.3186487605389,370.52665221276595
21,40,21,0,0.7006999999999983,57.0087712549569,197.2308292331602,21.095023109728988,36.345563690772494,56.32051136131489,62.39390995922599,37.656340767525464,151.74320413119,115.43396380615195,86.5,76.0,54.0,28.0,86.0,50.0,12.0,14.317821063276353,13.341664064126334,13.5,59.0,93.0,72.18032973047436,368.517299458248,378.4507894033252,378.1692742674899,371.3812057711052
22,40,22,0,0.7340666666666649,57.0350769263968,196.3517252279694,21.095023109728988,35.35533905932738,55.326304774492215,62.39390995922599,36.6742416417845,149.85659811966906,114.5294721894762,85.5,74.0,51.0,26.5,86.5,51.5,11.5,17.26267650163207,16.278820596099706,16.5,60.0,94.0,73.348483283569,368.1480680378481,377.95502377928517,379.15827829548965,370.52665221276595
23,40,23,0,0.7674333333333314,57.0350769263968,196.4713719603953,20.09975124224178,36.22154055254967,54.45181356024793,62.39390995922599,35.90264614203248,148.86235252742716,112.64102272262978,83.5,73.0,49.0,26.0,87.0,51.0,12.0,19.4164878389476,18.24828759089466,18.5,58.0,93.0,71.02112361825881,369.13141291415445,378.9419480606495,380.00131578719567,371.65575469781174
24,40,24,0,0.800799999999998,57.07889277132134,198.22462006521792,21.095023109728988,36.22154055254967,55.44366510251645,61.29437168288782,34.713109915419565,148.86235252742716,112.64102272262978,83.5,71.0,49.0,26.0,88.0,51.0,11.0,20.396078054371138,19.235384061671343,19.5,59.0,92.0,71.02112361825881,366.98365086199686,377.95502377928517,378.8680509095482,368.4087403957729
25,40,25,0,0.8341666666666645,57.07889277132134,198.22462006521792,21.095023109728988,36.22154055254967,55.44366510251645,61.29437168288782,34.713109915419565,148.86235252742716,112.64102272262978,83.5,71.0,49.0,26.0,88.0,51.0,11.0,20.396078054371138,19.235384061671343,19.5,59.0,92.0,71.02112361825881,366.98365086199686,377.95502377928517,378.8680509095482,368.4087403957729
26,40,26,0,0.867533333333331,61.07372593840988,198.33809518093088,20.024984394500787,34.132096331752024,54.3323108288245,60.29925372672534,34.713109915419565,149.6562728387955,115.52488909321661,84.5,70.0,47.0,24.5,90.5,56.5,10.5,19.235384061671343,17.26267650163207,18.0,58.0,92.0,72.99315036357864,366.62924051417394,377.6373922163959,376.4704503676218,369.8715993422582
27,40,27,0,0.9008999999999976,64.00781202322104,193.14502323383846,21.213203435596427,39.319206502675,56.32051136131489,64.28063471995279,35.510561809129406,159.70597985047397,120.41594578792295,88.0,73.0,52.0,27.5,96.5,55.5,12.5,21.213203435596427,19.235384061671343,19.5,59.0,94.0,68.24954212300622,366.62924051417394,377.33009421460144,377.59766948433355,368.8793840810299
28,40,28,0,0.934266666666664,78.02563681252464,191.38704240360684,20.09975124224178,38.2099463490856,53.33854141237835,62.289646009589745,35.90264614203248,171.74690681348528,133.5402561027947,94.0,79.0,56.0,32.5,103.5,63.5,18.5,19.235384061671343,18.439088914585774,18.0,61.0,93.0,68.06614430096654,369.2424677633926,378.0224861036708,377.06763319065186,361.4484748895754
29,40,29,0,0.9676333333333308,89.02246907382428,187.18172987767795,19.026297590440446,39.319206502675,54.3323108288245,63.28506932918696,37.107950630558946,183.7879212570837,144.49913494550754,99.5,81.0,60.0,34.5,112.5,70.5,20.5,19.235384061671343,17.26267650163207,17.5,60.0,92.0,69.2314957226839,368.9512162874653,378.78225935225635,376.88857769903296,360.2124373199793
30,40,30,0,1.0009999999999972,92.04890004774636,187.0721785835617,19.1049731745428,38.2099463490856,54.230987451824994,63.198101237299845,37.8549864614954,186.77526602845464,148.56984889270097,102.0,84.0,64.0,37.0,112.0,71.0,22.0,20.223748416156685,19.235384061671343,19.0,60.0,93.0,68.06614430096654,368.517299458248,377.13127687848964,375.05466268265485,358.50383540486706
31,40,31,0,1.0343666666666638,82.05485969764375,188.28967045486058,21.095023109728988,40.19950248448356,54.230987451824994,63.28506932918696,36.87817782917155,179.8054504179448,139.60659010233005,98.0,84.0,62.0,37.0,106.0,64.0,21.0,19.235384061671343,18.439088914585774,18.5,60.0,93.0,66.09841147864296,366.1816489121212,376.807643234582,374.4889851517665,361.809342057388
32,40,32,0,1.0677333333333303,70.02856560004639,193.25630649476875,23.08679276123039,38.3275357934736,54.3323108288245,63.387695966961914,36.6742416417845,167.7647161950331,129.46814279968643,94.0,85.0,63.0,38.0,93.0,55.0,20.0,20.396078054371138,18.439088914585774,18.5,59.0,91.0,70.03570517957252,365.0164379860173,375.981382517805,376.19144062564743,365.57488972849325
33,40,33,0,1.1010999999999969,67.02984409947557,194.2498391247725,22.090722034374522,37.12142238654117,54.230987451824994,62.289646009589745,37.656340767525464,163.6001222493431,126.4792473095883,92.5,84.0,62.0,36.0,90.0,53.0,19.0,20.223748416156685,19.235384061671343,18.5,59.0,91.0,66.91038783328041,364.83694988309503,375.6620821962206,375.75657013550676,366.29223305988893
34,40,34,0,1.1344666666666634,62.03224967708329,192.04426573058618,23.08679276123039,37.21558813185679,52.3450093132096,61.29437168288782,40.607881008493905,162.69296235547498,125.4830665866913,94.0,83.0,63.0,33.0,89.0,51.0,16.0,20.396078054371138,18.24828759089466,18.5,58.0,88.0,67.89698078707183,366.4560000873229,377.0331550407736,374.22185932946246,364.78623877553275
35,40,35,0,1.16783333333333,56.0357029044876,187.18172987767795,21.095023109728988,38.118237105091836,48.373546489791295,57.42821606144492,45.27692569068709,160.44936896105264,122.3315167894194,94.0,80.0,59.0,24.5,90.5,52.5,9.5,20.223748416156685,18.439088914585774,18.5,59.0,90.0,72.83543093852057,365.47229717175554,374.35411043556076,371.4969717238621,360.01111093964863
36,40,36,0,1.2011999999999965,45.0111097397076,175.82377541163197,20.09975124224178,39.11521443121589,45.27692569068709,53.23532661682466,49.16299421312742,153.32644912082193,114.21471008587291,91.5,79.0,62.0,21.5,82.5,41.5,6.5,8.94427190999916,8.246211251235321,8.0,58.0,86.0,71.7007670809734,365.4367250291082,374.83329627982624,371.16168983342016,356.62445233045923
37,40,37,0,1.234566666666663,36.013886210738214,162.60381299342276,19.1049731745428,37.12142238654117,40.19950248448356,47.16990566028302,53.150729063673246,145.34441853748632,108.2266141020775,90.0,81.0,67.0,21.0,71.0,32.0,6.0,8.94427190999916,8.246211251235321,8.0,61.0,88.0,70.03570517957252,366.0300534109187,375.3571632458877,370.8503741402993,353.45155254999236
38,40,38,0,1.2679333333333296,28.071337695236398,150.8509197850646,20.09975124224178,38.118237105091836,35.35533905932738,41.43669871020132,59.30430001273095,145.58159224297555,107.46627377926528,93.0,88.0,72.0,21.0,65.0,26.0,5.0,8.54400374531753,9.055385138137417,9.0,60.0,86.0,69.58448102845921,367.28326942565735,377.4572823512616,371.0552519504339,348.7606629194296
39,40,39,0,1.301299999999996,31.064449134018133,144.25671561490648,16.1245154965971,33.24154027718932,33.37663853655727,38.47076812334269,65.49045732013177,145.8800877433243,112.64102272262978,96.5,94.0,75.0,19.5,60.5,27.5,7.5,9.848857801796104,9.055385138137417,8.5,61.0,87.0,68.59300255857006,374.0655022853618,380.4339627320358,370.62110031675206,345.3244850861288
40,40,40,0,1.334666666666663,33.24154027718932,143.26548781894402,16.1245154965971,30.4138126514911,32.55764119219941,38.3275357934736,69.35416353759881,149.09057649630307,118.71394189394942,101.5,96.0,77.0,17.5,61.5,30.5,6.5,15.524174696260024,14.142135623730951,14.0,62.0,88.0,69.58448102845921,377.2969652674137,382.890323722081,371.4000538502923,344.9420241141981
41,40,41,0,1.3680333333333292,25.079872407968907,143.13629868066312,17.26267650163207,32.38826948140329,31.25699921617557,36.22154055254967,71.34423592694787,145.9931505242626,113.63538181394033,100.5,96.0,78.0,16.0,58.0,25.0,3.0,18.24828759089466,17.11724276862369,17.0,62.0,88.0,69.58448102845921,373.5304539123952,380.8477386042879,370.3903346471125,343.0976537372414
42,40,42,0,1.4013999999999958,19.1049731745428,145.38225476308997,17.11724276862369,30.4138126514911,32.38826948140329,37.33630940518894,71.56814934033156,138.1774221788784,107.78682665335315,97.5,93.0,73.0,12.0,54.0,23.0,0.0,22.20360331117452,20.09975124224178,20.5,65.0,90.0,68.59300255857006,373.5304539123952,381.8376618407357,372.1088550411022,346.930828840563
43,40,43,0,1.4347666666666623,18.027756377319946,149.4824404403407,20.09975124224178,32.38826948140329,35.35533905932738,39.319206502675,66.48308055437865,136.93794214898952,104.58011283222064,95.0,92.0,71.0,15.5,54.5,21.5,0.5,23.194827009486403,21.37755832643195,21.5,61.0,88.0,68.46897107449476,379.15827829548965,383.67825062153315,371.24789561693143,348.0531568596958
44,40,44,0,1.4681333333333288,23.021728866442675,158.14550262337528,20.09975124224178,34.23448553724738,37.33630940518894,43.289721643826724,62.51399843235114,139.8070098385628,105.57461816175325,93.5,86.0,67.0,14.5,62.5,27.5,0.5,23.08679276123039,21.095023109728988,21.5,63.0,87.0,66.75327707311455,375.75657013550676,381.9031290785662,371.2707906636341,346.97838549396704
45,40,45,0,1.5014999999999954,48.010415536631214,173.04623659588788,19.1049731745428,38.118237105091836,42.2965719651132,50.35871324805669,50.48762224545735,155.54420593516173,117.42657280190033,93.0,83.0,64.0,23.5,81.5,42.5,8.5,22.20360331117452,21.095023109728988,21.0,62.0,87.0,69.72087205421343,372.37615390892046,378.71493236998197,372.21096168705185,351.81955602268613
46,40,46,0,1.534866666666662,54.0,182.7922317824256,16.1245154965971,35.12833614050059,45.27692569068709,53.33854141237835,47.38143096192854,152.3975065412817,117.27318534089538,90.0,77.0,60.0,21.5,83.5,46.5,10.5,20.223748416156685,19.1049731745428,19.0,62.0,87.0,66.75327707311455,371.61404709725383,378.910279617748,375.3664875824692,359.94027282314494
47,40,47,0,1.5682333333333285,49.01020301937138,194.83326204732086,15.132745950421556,36.124783736376884,47.265209192385896,55.326304774492215,45.27692569068709,145.41664278891878,109.29318368498559,84.5,69.0,51.0,15.0,85.0,48.0,5.0,8.54400374531753,8.06225774829855,8.0,59.0,85.0,68.59300255857006,372.97318938497443,381.00131233369785,377.35924528226417,365.9972677493645
48,40,48,0,1.601599999999995,49.040799340956916,194.83326204732086,16.1245154965971,35.12833614050059,47.265209192385896,54.3323108288245,44.40720662234904,144.5856147754679,109.45775440780794,84.5,67.0,49.0,14.0,86.0,49.0,3.0,7.615773105863909,7.0710678118654755,7.0,59.0,83.0,68.73136110975832,373.25862347707385,379.71041597512175,377.1166928153672,365.8551625985343
49,40,49,0,1.6349666666666616,40.01249804748511,191.049731745428,15.132745950421556,34.132096331752024,46.2709412050371,52.3450093132096,48.16637831516918,137.3644786689776,103.23759005323593,83.0,68.0,48.0,10.0,79.0,44.0,0.0,11.40175425099138,11.045361017187261,10.5,58.0,82.0,64.6297145282261,371.7337757051409,379.1160772111887,376.5381786751511,364.23755984247424
50,40,50,0,1.668333333333328,39.05124837953327,181.89282558693733,13.038404810405298,35.12833614050059,43.18564576337837,49.25444142409901,52.46903848937962,139.60659010233005,104.47966309287182,84.5,68.0,50.0,7.0,80.0,42.0,1.0,7.615773105863909,7.0710678118654755,7.0,59.0,83.0,65.62011886609167,371.3812057711052,378.565714242587,374.83062841768947,361.4194239384486
51,40,51,0,1.7016999999999949,31.0,174.73408368146153,13.152946437965905,36.22154055254967,41.19465984809196,47.16990566028302,54.3323108288245,134.5362404707371,98.32598842625484,82.5,67.0,51.0,5.0,75.0,36.0,3.0,10.770329614269007,9.055385138137417,9.5,57.0,82.0,70.57619995437555,371.11723215178245,379.44433056773954,372.84044844946743,358.34341071101056
52,40,52,0,1.7350666666666612,26.076809620810597,167.5857989210303,15.033296378372908,38.118237105091836,37.12142238654117,44.10215414239989,56.568542494923804,135.72398461583714,97.62171889492625,84.0,69.0,55.0,6.0,73.0,32.0,5.0,14.317821063276353,13.152946437965905,13.0,55.0,79.0,69.58448102845921,371.9811823197512,379.22288960451743,372.6472863177726,356.3509506090871
53,40,53,0,1.7684333333333278,20.024984394500787,157.62296786953354,16.1245154965971,35.12833614050059,34.132096331752024,41.10960958218893,58.309518948453004,129.5569372901351,94.42986815621421,84.0,72.0,58.0,7.0,64.0,27.0,5.0,18.24828759089466,16.1245154965971,16.5,57.0,82.0,69.58448102845921,370.7411495909242,378.22876675366723,371.74722594795514,354.44745731913497
54,40,54,0,1.8017999999999943,13.038404810405298,156.3873396410336,17.11724276862369,35.12833614050059,34.132096331752024,40.049968789001575,60.207972893961475,125.4830665866913,90.35485598461214,83.5,73.0,62.0,7.5,57.5,19.5,5.5,20.223748416156685,19.1049731745428,19.0,59.0,82.0,68.46897107449476,369.6281915655244,378.12167353908717,372.55469397123426,355.10561809129405
55,40,55,0,1.8351666666666608,12.041594578792296,156.46085772486356,18.110770276274835,36.124783736376884,35.12833614050059,40.11234224026316,59.21148537234985,125.4830665866913,89.35882720806042,83.0,75.0,63.0,10.0,56.0,18.0,4.0,21.213203435596427,20.09975124224178,20.0,58.0,81.0,68.59300255857006,370.95147930693037,376.5381786751511,369.14089451048363,351.81955602268613
56,40,56,0,1.868533333333328,19.0,158.3161394173064,20.024984394500787,36.124783736376884,38.118237105091836,44.04543109109048,56.32051136131489,131.38112497615478,95.25754563287887,85.5,78.0,68.0,17.0,58.0,19.0,1.0,22.20360331117452,20.09975124224178,20.5,59.0,83.0,67.60177512462228,371.16168983342016,379.61691216277495,371.2142238654117,351.8891871029856
57,40,57,0,1.901899999999994,31.016124838541646,163.19620093617377,20.024984394500787,38.05259518088089,41.048751503547585,48.041648597857254,52.3450093132096,141.35416513141735,103.31021246711285,87.5,80.0,72.0,24.0,65.0,24.0,7.0,21.213203435596427,20.09975124224178,20.0,58.0,82.0,70.57619995437555,370.75193863282766,376.36285682835387,368.9173349139343,349.7570585420686
58,40,58,0,1.9352666666666605,45.0,166.10839834276894,20.09975124224178,39.05124837953327,45.044422518220834,52.009614495783374,48.373546489791295,152.3285921946369,113.28283188550682,90.5,82.0,76.0,31.0,73.0,31.0,14.0,21.095023109728988,20.09975124224178,20.0,59.0,83.0,69.58448102845921,371.5588782413899,377.04111181673545,367.5445551222328,348.4149824562658
59,40,59,0,1.968633333333327,48.010415536631214,172.14238292762187,19.026297590440446,38.05259518088089,47.042533945356304,54.00925846556311,48.373546489791295,153.32644912082193,115.27792503337315,91.0,82.0,75.0,30.5,74.5,33.5,14.5,21.213203435596427,19.1049731745428,19.0,58.0,80.0,69.46221994724903,370.4726710568541,374.97333238511777,366.6606060105176,347.41617694056794
60,40,60,0,2.0019999999999936,37.013511046643494,170.23806859806652,18.027756377319946,35.05709628591621,45.044422518220834,52.009614495783374,51.24451190127583,141.28694207179942,106.23088063270491,87.5,82.0,73.0,26.5,63.5,25.5,11.5,18.24828759089466,17.11724276862369,17.0,60.0,82.0,68.46897107449476,368.1439935677343,373.8368628158545,367.6588092239869,351.5693388223723
61,40,61,0,2.0353666666666603,14.035668847618199,172.23530416264836,22.02271554554524,38.05259518088089,40.049968789001575,46.04345773288535,54.147945482723536,128.2497563350512,90.19977827023745,83.0,78.0,69.0,19.5,54.5,14.5,0.5,11.40175425099138,10.0,10.0,57.0,78.0,67.60177512462228,370.3849348988158,376.0438804182299,369.7161073039691,354.5645216318181
62,40,62,0,2.068733333333327,2.0,175.28548142958104,23.021728866442675,35.12833614050059,42.04759208325728,47.01063709417264,54.08326913195984,114.21471008587291,79.1012010022604,78.0,76.0,66.0,17.0,43.0,6.0,2.0,8.54400374531753,8.06225774829855,8.0,59.0,80.0,67.47592163134935,370.4726710568541,376.11966180990856,370.7775613491194,354.5645216318181
63,40,63,0,2.102099999999994,1.4142135623730951,175.28548142958104,24.020824298928627,37.05401462729781,43.104524124504614,48.093658625644196,53.150729063673246,115.27792503337315,78.23042886243178,77.5,77.0,67.0,19.0,43.0,4.0,1.0,10.44030650891055,9.0,9.0,58.0,77.0,66.61080993352356,371.05794695707567,376.8302004882305,369.655244788979,352.51241112902676
64,40,64,0,2.1354666666666606,2.23606797749979,171.29214809792072,24.020824298928627,39.05124837953327,43.104524124504614,47.095647357266465,55.226805085936306,120.33702672078948,81.30190649671138,80.0,79.0,69.0,19.0,46.0,5.0,1.0,10.770329614269007,9.055385138137417,9.0,60.0,80.0,67.47592163134935,372.1316971181036,378.9630588856914,370.6534769835567,352.5677239907249
65,40,65,0,2.1688333333333274,22.02271554554524,168.1903683330291,21.02379604162864,37.05401462729781,42.04759208325728,48.093658625644196,55.226805085936306,135.29966740535616,98.2496819333274,87.0,80.0,72.0,21.0,59.0,19.0,3.0,12.36931687685298,12.041594578792296,12.0,59.0,81.0,70.45565981523414,370.65617491146696,377.1166928153672,369.845913861435,349.6312343026578
66,40,66,0,2.202199999999994,42.01190307520001,168.24089871371942,17.029386365926403,38.05259518088089,43.04648650006177,50.039984012787215,52.23983154643591,149.27156460625713,111.22050170719426,90.0,82.0,73.0,25.5,71.5,31.5,11.5,16.278820596099706,14.142135623730951,14.0,60.0,82.0,69.46221994724903,367.8654645383282,372.37749663479934,364.9273900380732,345.63853951780317
67,40,67,0,2.235566666666661,52.0,174.14074767268,14.035668847618199,35.05709628591621,43.04648650006177,50.08991914547278,51.15662224971465,152.16109883935513,117.10678887237921,91.0,79.0,72.0,24.5,76.5,40.5,13.5,18.24828759089466,17.11724276862369,17.0,60.0,82.0,68.46897107449476,367.8654645383282,372.46476343407306,361.9350770511198,344.70277051396033
68,40,68,0,2.268933333333328,46.0,177.341478509682,14.142135623730951,35.05709628591621,44.10215414239989,50.15974481593781,49.16299421312742,144.22205101855957,109.16501271011697,86.0,78.0,67.0,23.5,71.5,35.5,12.5,20.223748416156685,19.1049731745428,19.5,59.0,82.0,66.48308055437865,366.9727510320078,370.4726710568541,362.2443926412112,344.9811589058162
69,40,69,0,2.3022999999999945,39.01281840626232,178.22738285684386,13.038404810405298,31.064449134018133,44.04543109109048,50.08991914547278,48.093658625644196,131.0953851209111,100.04498987955368,80.5,72.0,63.0,19.5,63.5,31.5,9.5,21.095023109728988,19.1049731745428,19.5,58.0,80.0,67.60177512462228,363.10053704174,368.57156699886656,359.17266042949313,344.90723390500233
70,40,70,0,2.335666666666661,42.01190307520001,177.341478509682,14.035668847618199,34.058772731852805,46.09772228646444,52.23983154643591,47.095647357266465,137.09121051329294,103.04368005850722,82.0,72.0,61.0,19.5,70.5,34.5,9.5,20.223748416156685,19.1049731745428,19.5,58.0,79.0,64.6297145282261,361.5093359790311,366.23080154459973,358.9428923937623,344.90723390500233
71,40,71,0,2.369033333333328,44.0,177.40631330367023,15.033296378372908,38.05259518088089,45.09988913511872,50.24937810560445,44.04543109109048,141.088624630053,103.04368005850722,81.0,73.0,61.0,23.0,74.0,35.0,11.0,19.4164878389476,17.26267650163207,17.5,57.0,79.0,64.6297145282261,360.60643366418185,365.4928179868929,357.3471701301131,343.2273299141547
72,40,72,0,2.4023999999999948,41.0,177.47675904185314,14.142135623730951,34.058772731852805,46.17358552246078,52.3450093132096,46.09772228646444,135.18135966175217,101.1236866416568,80.5,77.0,64.0,24.5,64.5,30.5,13.5,11.704699910719626,11.045361017187261,11.5,56.0,78.0,67.36467917239716,360.7020931461308,364.4077386664559,357.0994259306503,340.91787867461574
73,40,73,0,2.435766666666661,57.0,177.63445611704955,15.132745950421556,34.058772731852805,45.09988913511872,52.23983154643591,43.18564576337837,149.21461054467824,115.15641536623133,86.5,79.0,64.0,28.5,77.5,42.5,16.5,8.54400374531753,8.06225774829855,8.5,61.0,83.0,60.40695324215582,360.69377593742865,365.3080891521566,359.8055030151707,342.5930530527436
74,40,74,0,2.4691333333333283,67.0,178.54971296532514,15.033296378372908,34.058772731852805,46.09772228646444,53.150729063673246,42.2965719651132,158.2024020045208,124.14507642270796,90.5,79.0,65.0,30.0,86.0,50.0,18.0,8.54400374531753,8.06225774829855,8.0,61.0,82.0,61.5223536610881,357.8407467016578,364.3144246389374,358.81053496239485,340.50697496527147
75,40,75,0,2.502499999999995,72.0,179.5466513193716,18.027756377319946,36.124783736376884,46.17358552246078,54.230987451824994,40.19950248448356,166.19265928433782,130.09611831257686,94.0,80.0,66.0,33.0,93.0,55.0,19.0,8.06225774829855,8.246211251235321,7.5,61.0,83.0,61.40032573203501,357.37515302550065,365.90299260869676,359.58031091815917,342.3448553724738
76,40,76,0,2.535866666666662,74.0,180.46883387443938,17.029386365926403,37.12142238654117,48.16637831516918,56.22277118748239,41.30375285612676,169.23947530053383,132.13629327327143,95.0,79.0,66.0,31.5,96.5,57.5,17.5,10.44030650891055,10.04987562112089,10.0,59.0,81.0,63.387695966961914,357.4758733117523,362.8911682584739,358.34341071101056,342.14762895568924
77,40,77,0,2.5692333333333286,65.0,176.555940143627,19.026297590440446,36.05551275463989,46.17358552246078,54.230987451824994,42.42640687119285,162.24980739587951,126.19429464123962,93.5,79.0,65.0,30.0,90.0,52.0,15.0,14.317821063276353,13.152946437965905,13.0,58.0,79.0,65.49045732013177,355.85671273702286,363.3207948906861,358.81053496239485,342.49817517762045
78,40,78,0,2.602599999999996,35.0,171.74690681348528,20.09975124224178,35.12833614050059,42.2965719651132,48.25971404805462,48.25971404805462,138.36184445142382,103.23759005323593,85.5,78.0,62.0,22.0,68.0,31.0,6.0,17.26267650163207,15.033296378372908,15.5,57.0,81.0,65.49045732013177,357.24641355792505,363.9890108231291,358.7115833089308,341.5977166200032
79,40,79,0,2.635966666666662,2.0,164.43843832875572,22.090722034374522,30.14962686336267,41.10960958218893,44.10215414239989,52.15361924162119,106.38138934982942,76.23647421018367,75.0,76.0,64.0,18.0,36.0,5.0,0.0,19.235384061671343,16.0312195418814,17.0,55.0,76.0,64.4980619863884,355.25906040522034,361.8963940135353,356.5305036038291,341.32096331752024
80,40,80,0,2.669333333333329,2.0,162.30834852218786,23.08679276123039,34.132096331752024,42.04759208325728,46.09772228646444,52.08646657242167,111.28791488746656,77.1621668954417,76.0,79.0,69.0,22.0,37.0,1.0,2.0,21.213203435596427,19.235384061671343,19.0,55.0,77.0,65.62011886609167,356.2527192878673,364.20323996362254,357.9175882797603,340.7007484582328
81,40,81,0,2.702699999999996,10.04987562112089,166.14752480852673,22.090722034374522,38.118237105091836,43.04648650006177,48.0,51.03920062069938,121.1486689980538,83.05419917138447,78.0,80.0,73.0,25.5,44.5,4.5,5.5,20.223748416156685,19.1049731745428,19.5,55.0,78.0,65.62011886609167,355.37304343464206,364.20323996362254,356.72117963473937,340.3248448174185
82,40,82,0,2.7360666666666624,23.0,166.10839834276894,18.027756377319946,36.124783736376884,44.01136216933077,49.040799340956916,47.16990566028302,124.25779653607253,88.14193099768123,76.5,78.0,72.0,28.0,49.0,11.0,12.0,20.223748416156685,19.1049731745428,20.0,55.0,77.0,65.49045732013177,356.4828186603107,363.2093060481793,356.9229608753127,339.5114136520303
83,40,83,0,2.769433333333329,20.0,172.14238292762187,17.029386365926403,36.124783736376884,44.04543109109048,49.040799340956916,45.17742799230607,118.27087553578015,82.15229759416349,72.0,73.0,66.0,24.5,48.5,11.5,10.5,20.396078054371138,18.110770276274835,18.5,53.0,76.0,64.6297145282261,356.7239829335841,362.44171945293493,355.92836357896516,340.8019952993233
84,40,84,0,2.802799999999996,16.0312195418814,176.13914953808538,16.1245154965971,34.058772731852805,44.04543109109048,49.040799340956916,45.17742799230607,111.22050170719426,77.1621668954417,69.0,70.0,63.0,21.5,44.5,8.5,8.5,19.235384061671343,17.26267650163207,17.5,54.0,79.0,66.75327707311455,355.39414739131536,361.9350770511198,357.359762704197,343.22295960497746
85,40,85,0,2.8361666666666627,15.0,178.13758727455584,16.0312195418814,34.132096331752024,46.04345773288535,49.040799340956916,44.181444068749045,109.29318368498559,75.16648189186454,67.5,68.0,61.0,20.5,44.5,9.5,7.5,17.46424919657298,17.11724276862369,17.5,53.0,78.0,66.91038783328041,355.9845502265513,363.5519220138989,358.12986471390514,343.8895171417704
86,40,86,0,2.869533333333329,21.02379604162864,180.3995565404749,15.132745950421556,32.14031735997639,46.17358552246078,50.08991914547278,44.181444068749045,112.44554237496477,80.30566605165541,69.5,69.0,57.0,19.0,49.0,16.0,8.0,19.235384061671343,18.110770276274835,18.0,52.0,78.0,65.76473218982953,355.8201793040974,363.5945544146667,358.09775201751825,345.8106418258409
87,40,87,0,2.9028999999999963,38.0,178.4040358287895,15.132745950421556,35.12833614050059,45.17742799230607,50.24937810560445,42.2965719651132,130.38404810405297,95.25754563287887,76.0,72.0,60.0,24.0,64.0,28.0,13.0,18.681541692269406,17.11724276862369,17.0,53.0,80.0,65.11528238439882,355.1295538250794,363.8804748815193,360.62445840513925,346.4823227814083
88,40,88,0,2.936266666666663,54.00925846556311,181.89282558693733,15.132745950421556,35.22782990761707,45.17742799230607,52.3450093132096,43.18564576337837,147.41099009232656,112.21853679316978,85.0,78.0,60.0,26.0,78.0,42.0,15.0,18.24828759089466,16.278820596099706,16.5,51.0,80.0,63.63961030678928,355.95083930228344,366.93459907727424,362.62515081003414,349.2921413373052
89,40,89,0,2.96963333333333,59.00847396772772,181.46349495146399,18.24828759089466,34.36568055487916,47.38143096192854,54.589376255824725,44.10215414239989,155.46382215808282,121.2023102090055,91.5,86.0,63.0,30.5,80.5,46.5,17.5,18.681541692269406,16.278820596099706,16.5,47.0,78.0,64.13267497929586,360.67991349671803,371.80909079795236,365.9863385428478,351.9232870953555
90,40,90,0,3.002999999999997,66.0,181.86808406094787,18.110770276274835,35.510561809129406,47.51841748206689,55.90169943749474,43.104524124504614,162.3730273167314,127.09838708654017,94.0,91.0,65.0,35.0,84.0,51.0,22.0,17.72004514666935,17.26267650163207,17.0,43.0,76.0,61.0,363.3689584981084,373.7606185782552,367.90351996141595,348.20827101032506
91,40,91,0,3.036366666666664,76.0,172.13076424625552,19.1049731745428,31.575306807693888,47.51841748206689,53.75872022286245,43.18564576337837,169.42549985170473,138.13037319865606,100.0,101.0,74.0,44.5,81.5,51.5,29.5,18.973665961010276,17.26267650163207,17.5,47.0,81.0,62.369864518050704,371.8185041118852,378.187784043853,370.0499966220781,347.6909547284772
92,40,92,0,3.06973333333333,61.00819617067857,159.81239000778382,22.20360331117452,34.713109915419565,44.40720662234904,50.80354318352215,47.38143096192854,164.87874332369228,130.38404810405297,99.5,107.0,83.0,48.0,69.0,36.0,30.0,18.973665961010276,17.46424919657298,18.0,43.0,77.0,64.53681120105021,372.07526120396665,380.82541931966676,372.24722967404335,350.7720057245162
93,40,93,0,3.103099999999997,25.079872407968907,158.31929762350515,24.08318915758459,32.55764119219941,40.44749683231337,45.70557952810576,52.61178575186362,134.21251804507656,101.71037311896953,88.5,104.0,77.0,38.5,42.5,12.5,18.5,18.027756377319946,15.297058540778355,16.0,41.0,76.0,59.22837157984339,360.30265055922087,372.6902198877776,365.57899283191864,344.70277051396033
94,40,94,0,3.136466666666664,2.23606797749979,158.67577004697347,24.08318915758459,30.59411708155671,38.47076812334269,41.593268686170845,51.62363799656123,107.5174404457249,76.94153624668537,75.5,95.0,72.0,32.5,22.5,5.5,12.5,19.924858845171276,17.26267650163207,18.0,42.0,75.0,60.01666435249463,364.42420336744925,372.6902198877776,363.3689584981084,341.8669331772232
95,40,95,0,3.1698333333333304,2.23606797749979,155.7080601638849,21.095023109728988,30.59411708155671,37.33630940518894,39.6232255123179,52.61178575186362,105.54619841567009,74.96665925596525,73.5,96.0,73.0,32.5,19.5,8.5,14.5,18.973665961010276,17.26267650163207,17.5,43.0,74.0,61.0,363.6000550054964,372.550667695013,364.6217217884859,345.16228067388823
96,40,96,0,3.203199999999997,1.4142135623730951,145.67086187704115,22.090722034374522,29.614185789921695,37.33630940518894,40.607881008493905,47.51841748206689,100.2845950283492,70.71067811865476,69.5,92.0,70.0,34.0,18.0,10.0,16.0,19.6468827043885,18.24828759089466,18.5,49.0,78.0,59.841457201508724,369.50913385192524,376.80897016923575,368.4358831601504,342.4864960841522
97,40,97,0,3.236566666666664,1.4142135623730951,162.77899127344412,23.08679276123039,32.55764119219941,38.47076812334269,41.593268686170845,45.5411901469428,102.25947388873072,69.72087205421343,68.5,91.0,67.0,34.0,22.0,8.0,15.0,18.027756377319946,15.524174696260024,15.0,48.0,75.0,62.80127387243033,370.10944327320266,379.2545319439176,371.6517186829626,350.7035785389137
98,40,98,0,3.2699333333333307,7.0710678118654755,158.97798589741913,22.20360331117452,31.400636936215164,39.45883931389772,42.95346318982906,47.265209192385896,107.91200118615167,76.53103945458993,72.5,91.0,66.0,31.5,28.5,0.5,13.5,18.681541692269406,16.278820596099706,16.5,51.0,75.0,60.67124524847005,363.82413333917253,372.52248254300036,366.22670574386024,347.86491631091513
99,40,99,0,3.303299999999997,17.0,165.22106403240477,23.08679276123039,34.52535300326414,41.43669871020132,45.89117562233506,48.25971404805462,122.6906679417795,88.2779700718135,79.5,92.0,65.0,30.5,43.5,11.5,11.5,18.681541692269406,17.46424919657298,16.5,52.0,78.0,60.67124524847005,377.1432088742949,385.7304758506903,377.09680454758563,358.61121008691293
100,40,100,0,3.336666666666664,40.049968789001575,166.37307474468338,22.090722034374522,35.510561809129406,46.69047011971501,51.19570294468082,47.095647357266465,144.5856147754679,109.22453936730518,89.0,94.0,66.0,33.0,64.0,31.0,16.0,19.6468827043885,16.76305461424021,16.5,51.0,76.0,62.39390995922599,372.5385886052611,383.5205340004626,376.01728683665596,358.62236405444656
101,40,101,0,3.370033333333331,53.03772242470448,170.6575518399347,18.110770276274835,33.54101966249684,46.87216658103186,53.600373133029585,47.01063709417264,151.40013210033868,118.10588469674151,91.5,93.0,63.0,31.0,73.0,42.0,18.0,20.615528128088304,17.46424919657298,17.0,50.0,76.0,60.530983801686226,371.5709891797259,380.76370625362915,374.4569401146145,358.92199709686224
102,40,102,0,3.4033999999999978,53.08483775994799,169.85287751463028,17.11724276862369,35.35533905932738,46.87216658103186,53.36665625650534,49.040799340956916,154.46682491719702,119.20570456148481,92.5,95.0,64.0,30.5,74.5,42.5,18.5,19.4164878389476,17.26267650163207,17.5,50.0,77.0,62.64982043070834,373.2907713833815,381.21516234273787,376.3243282064023,358.949857222426
103,40,103,0,3.4367666666666645,53.03772242470448,173.3666634621547,15.132745950421556,34.52535300326414,47.07440918375928,53.36665625650534,49.040799340956916,151.47607071745688,117.15374513859982,90.5,92.0,58.0,26.0,76.0,45.0,17.0,17.72004514666935,16.492422502470642,16.5,51.0,79.0,61.66036003787198,376.66165188402175,383.24013359772226,375.7685457831722,357.97206594928605
104,40,104,0,3.470133333333332,52.03844732503075,168.46661390317072,14.142135623730951,35.510561809129406,45.89117562233506,51.66236541235796,47.16990566028302,148.66068747318505,113.28283188550682,87.0,93.0,59.0,29.0,72.0,40.0,21.0,18.681541692269406,16.492422502470642,17.0,52.0,81.0,61.5223536610881,375.44640096823406,385.1610052951882,380.8411742445924,360.1846748544419
105,40,105,0,3.503499999999998,56.0,167.09278859364338,13.152946437965905,34.36568055487916,42.579337712087536,49.72926703662542,44.28317965096906,147.48898263938224,113.21660655575224,85.0,92.0,60.0,32.0,71.0,40.0,23.0,22.561028345356956,21.587033144922902,21.0,54.0,81.0,63.63961030678928,380.32091712131745,388.19067479783695,381.13645850272576,356.38883259720694
106,40,106,0,3.536866666666665,51.0,163.1686244349691,13.152946437965905,35.510561809129406,44.553338819890925,51.66236541235796,45.39823785126467,144.6789549312546,109.29318368498559,83.5,98.0,66.0,37.0,62.0,31.0,28.0,21.587033144922902,19.4164878389476,19.0,55.0,82.0,62.64982043070834,382.7231375289453,389.5600082143956,384.2460149435515,361.1675511448945
107,40,107,0,3.570233333333332,55.0,159.24823389915505,15.132745950421556,36.49657518178932,44.553338819890925,50.44799302251776,44.553338819890925,150.74813431681335,114.35471131527551,86.5,101.0,69.0,41.0,65.0,32.0,30.0,21.587033144922902,19.6468827043885,19.0,56.0,85.0,61.66036003787198,384.9116781808523,389.4226495724151,382.09161205135086,358.60284438358826
108,40,108,0,3.6035999999999984,52.0,152.7776161615307,16.1245154965971,37.48332962798263,44.40720662234904,50.99019513592785,44.553338819890925,149.75313018431368,112.36102527122117,86.0,102.0,73.0,43.5,61.5,27.5,31.5,21.587033144922902,20.615528128088304,20.5,58.0,86.0,65.62011886609167,387.82728114458376,393.54415254199876,384.0026041578364,358.60284438358826
109,40,109,0,3.636966666666665,55.036351623268054,155.9134375222354,15.132745950421556,35.35533905932738,44.553338819890925,50.695167422546305,45.27692569068709,150.33296378372907,115.10864433221339,87.5,100.0,70.0,40.0,65.0,33.0,29.0,24.515301344262525,23.53720459187964,22.5,59.0,86.0,65.76473218982953,388.7467041660932,395.0923942573433,384.76616275343133,357.4632848279666
110,40,110,0,3.670333333333332,62.00806399170998,158.68522300453813,16.1245154965971,39.45883931389772,44.721359549995796,52.392747589718944,44.28317965096906,161.4465855941215,122.14745187681976,91.0,102.0,68.0,41.0,76.0,40.0,30.0,24.515301344262525,22.561028345356956,22.5,61.0,88.0,66.48308055437865,390.05640617736304,399.76493092816435,393.68007315585584,366.22670574386024
111,40,111,0,3.703699999999999,56.0,171.0204666114556,15.132745950421556,39.319206502675,44.91102314577124,51.419840528729765,46.09772228646444,156.32018423735306,117.10678887237921,89.0,93.0,61.0,31.0,79.0,42.0,21.0,22.80350850198276,19.4164878389476,20.0,54.0,84.0,67.7421582177598,396.1615831955441,404.0853870161602,395.3833582739668,369.088065371938
112,40,112,0,3.7370666666666654,54.0,177.55280904564702,16.1245154965971,39.45883931389772,48.83646178829912,55.10898293381942,46.010868281309364,155.2610704587599,116.03878661895772,89.0,89.0,59.0,28.0,81.0,44.0,18.0,23.53720459187964,20.396078054371138,21.5,55.0,87.0,70.8590149522275,402.62761951957543,411.1265012134343,403.37203671052856,379.80258029665885
113,40,113,0,3.770433333333332,48.0,178.88543819998318,19.235384061671343,46.2709412050371,47.29693436154187,53.600373133029585,45.0111097397076,158.15498727514097,112.01785571952357,88.0,91.0,59.0,30.0,83.0,41.0,18.0,24.331050121192877,22.360679774997898,22.5,61.0,94.0,68.8839603971781,414.8120056121809,426.3824574252557,422.0639761931833,396.35337768208814
114,40,114,0,3.803799999999999,60.0,180.8535318980528,17.11724276862369,39.319206502675,46.87216658103186,53.150729063673246,48.010415536631214,164.1097193952875,125.00399993600205,95.0,90.0,58.0,26.0,90.0,53.0,15.0,24.515301344262525,21.840329667841555,21.5,60.0,91.0,66.75327707311455,398.200954293181,411.3064550915777,405.03456642612616,381.17974762571004
115,40,115,0,3.8371666666666657,56.0,181.49655644116226,17.26267650163207,42.2965719651132,48.05205510693585,55.31726674375732,47.042533945356304,162.11107303327555,120.00416659433121,92.0,89.0,59.0,27.0,88.0,49.0,17.0,22.561028345356956,18.439088914585774,19.0,57.0,89.0,68.73136110975832,424.3265252137792,430.3045433178692,421.5495225949141,394.4172917101886
116,40,116,0,3.870533333333333,47.01063709417264,179.3599732381782,16.1245154965971,40.311288741492746,47.07440918375928,53.150729063673246,49.01020301937138,152.26621424334422,112.0714058089752,88.5,88.0,59.0,24.5,78.5,39.5,15.5,27.294688127912362,24.515301344262525,25.0,58.0,90.0,67.47592163134935,409.1210089936717,418.46505230425157,410.396150079408,386.9638225984439
117,40,117,0,3.9038999999999993,41.048751503547585,171.30382365843442,17.11724276862369,39.20459156782532,44.91102314577124,50.00999900019995,48.010415536631214,145.27904184706065,106.1178590059185,85.5,88.0,60.0,26.0,71.0,33.0,15.0,25.317977802344327,22.360679774997898,23.0,63.0,90.0,70.57619995437555,413.14646313383827,420.676835587604,409.69500851242987,383.4709897762802
118,40,118,0,3.937266666666666,35.0,167.35889578985635,19.1049731745428,37.33630940518894,41.97618372363071,46.32493928760188,50.08991914547278,141.35416513141735,104.12012293500234,86.5,91.0,63.0,27.0,64.0,29.0,14.0,24.331050121192877,21.37755832643195,22.0,64.0,90.0,71.449282711585,418.07296013973445,425.17996189848833,414.2390614126099,388.7994341559668
119,40,119,0,3.970633333333333,40.01249804748511,157.99050604387594,17.11724276862369,38.3275357934736,42.579337712087536,48.05205510693585,53.150729063673246,148.33745312630927,110.11357772772621,90.0,94.0,69.0,28.5,66.5,29.5,15.5,25.317977802344327,23.769728648009426,23.5,61.0,89.0,67.7421582177598,408.32585027156927,419.0011933157231,409.8877895229376,385.3011808961919
120,40,120,0,4.004,44.04543109109048,140.57738082636197,17.11724276862369,38.118237105091836,35.510561809129406,41.593268686170845,55.326304774492215,154.26276284314372,116.15506876585283,94.0,100.0,79.0,34.5,64.5,26.5,20.5,30.265491900843113,26.68332812825267,26.5,62.0,93.0,72.56031973468694,409.03422839659765,418.7182823808867,407.74747086891904,380.5693103759156
121,40,121,0,4.037366666666666,38.118237105091836,131.21356637177422,23.021728866442675,40.311288741492746,33.95585369269929,39.81205847478876,58.309518948453004,159.25451327984396,119.06720791217035,100.0,108.0,84.0,38.0,63.0,24.0,19.0,28.442925306655784,23.769728648009426,24.0,64.0,95.0,70.71067811865476,404.9222147524139,417.53682472328114,404.3723531598074,374.5130171302461
122,40,122,0,4.070733333333333,40.049968789001575,126.90547663517127,22.0,38.118237105091836,31.32091952673165,36.138621999185304,58.54912467321779,158.25612152457168,120.14990636700472,100.0,108.0,81.0,36.5,63.5,27.5,19.5,30.265491900843113,25.709920264364882,25.5,65.0,94.0,73.55270219373317,406.4283454681772,415.7811924558397,402.88087569404433,370.64808106882197
123,40,123,0,4.1041,38.05259518088089,120.41594578792295,21.02379604162864,36.22154055254967,27.202941017470888,32.28002478313795,62.39390995922599,157.31814898478814,121.1486689980538,102.0,112.0,88.0,38.0,57.0,22.0,21.0,30.4138126514911,26.68332812825267,26.5,62.0,93.0,71.56814934033156,409.558298658445,421.2932470382121,406.73578647569235,375.13330963805384
124,40,124,0,4.137466666666667,30.066592756745816,123.5556554755791,21.095023109728988,37.21558813185679,28.160255680657446,32.28002478313795,61.29437168288782,149.33519344079613,112.16059914247963,97.0,108.0,83.0,34.5,53.5,19.5,17.5,31.25699921617557,26.476404589747453,26.0,60.0,95.0,68.73136110975832,423.8207168131355,434.3972836010833,417.49011964356714,385.6591759572174
125,40,125,0,4.170833333333333,22.090722034374522,123.76186811776881,20.024984394500787,38.3275357934736,28.160255680657446,33.24154027718932,64.28063471995279,144.34680460612904,106.1178590059185,95.0,106.0,80.0,29.0,51.0,17.0,13.0,30.4138126514911,26.68332812825267,26.0,60.0,93.0,71.7007670809734,408.2217534625023,415.7811924558397,401.90794966011805,368.01358670570846
126,40,126,0,4.2042,12.165525060596439,133.55523202031435,21.02379604162864,36.345563690772494,27.202941017470888,31.32091952673165,63.12685640834652,132.24220203853233,96.04686356149273,90.0,102.0,76.0,26.0,43.0,11.0,9.0,29.427877939124322,26.68332812825267,25.5,61.0,95.0,69.72087205421343,415.2890559598218,429.49505235799865,419.2195129046357,388.5614494516923
127,40,127,0,4.237566666666667,4.123105625617661,140.24621207005913,21.095023109728988,34.23448553724738,29.120439557122072,32.57299494980466,64.0,123.1990259701756,89.05054744357274,87.0,97.0,72.0,20.5,38.5,6.5,4.5,29.427877939124322,24.515301344262525,24.0,58.0,93.0,72.56031973468694,425.0,436.21325060112514,422.2380844973603,392.23079940259663
128,40,128,0,4.270933333333334,9.219544457292887,148.94629904767692,19.026297590440446,33.13608305156178,33.95585369269929,38.3275357934736,63.198101237299845,124.19742348374221,91.08786966440702,86.5,95.0,71.0,20.0,41.0,10.0,7.0,30.4138126514911,26.68332812825267,26.5,61.0,93.0,73.97972695272672,404.6393455906136,412.71055232450743,401.15458367068425,374.8626415101937
129,40,129,0,4.3043000000000005,7.0710678118654755,149.9333185119305,18.027756377319946,33.24154027718932,34.713109915419565,38.3275357934736,64.1248781675256,122.2620137246234,89.08984229416954,85.5,93.0,69.0,17.0,41.0,11.0,5.0,28.442925306655784,24.73863375370596,24.5,57.0,89.0,68.8839603971781,406.60668956621953,415.21681083501426,407.003685486999,380.5693103759156
130,40,130,0,4.337666666666667,11.180339887498949,148.6371420607918,18.027756377319946,35.22782990761707,37.656340767525464,41.97618372363071,62.0,126.03570922560003,91.00549433962765,85.5,90.0,68.0,17.0,47.0,14.0,5.0,26.30589287593181,23.53720459187964,23.5,57.0,90.0,67.7421582177598,401.84200875468457,409.69500851242987,401.8979970091914,377.058350921976
131,40,131,0,4.371033333333334,14.317821063276353,150.9205088780183,18.110770276274835,32.2490309931942,38.8329756778952,43.174066289845804,60.03332407921454,124.10076550932311,92.00543462209176,85.0,88.0,64.0,16.0,48.0,18.0,5.0,27.294688127912362,24.73863375370596,24.5,59.0,93.0,70.03570517957252,402.85481255658345,410.85885654321726,403.71400768365714,378.7254942567242
132,40,132,0,4.404400000000001,19.026297590440446,154.719100307622,16.0312195418814,33.24154027718932,38.63935817272331,44.14748010928823,61.00819617067857,129.0968628588627,96.00520819205592,86.5,87.0,64.0,14.5,53.5,22.5,4.5,27.294688127912362,24.73863375370596,24.5,60.0,93.0,68.8839603971781,397.54873915030845,407.23580392691406,400.73058281094546,376.9204160031664
133,40,133,0,4.437766666666668,29.154759474226502,154.719100307622,18.110770276274835,34.23448553724738,37.656340767525464,44.14748010928823,58.0,139.0323703315167,105.00476179678711,90.5,88.0,65.0,18.5,62.5,29.5,6.5,29.274562336608895,25.96150997149434,25.0,59.0,92.0,68.8839603971781,403.8031698736403,411.19581709934744,403.33856745915085,378.89312477267254
134,40,134,0,4.471133333333334,33.13608305156178,157.68639763784319,20.09975124224178,39.319206502675,37.656340767525464,42.95346318982906,57.07889277132134,149.00335566691106,110.07270324653611,93.5,88.0,65.0,19.5,72.5,35.5,5.5,27.294688127912362,23.769728648009426,23.5,59.0,93.0,67.7421582177598,404.5899158407189,414.87950057817994,407.47024431239146,383.2192583887193
135,40,135,0,4.504500000000001,32.0624390837628,163.62457028209425,21.02379604162864,39.20459156782532,40.607881008493905,47.07440918375928,54.0,146.03081866510234,107.00467279516349,91.0,86.0,63.0,20.5,71.5,34.5,5.5,27.294688127912362,25.96150997149434,25.0,60.0,90.0,65.92419889539804,398.200954293181,408.5205013215371,401.00124688085447,378.8456149937597
136,40,136,0,4.537866666666668,30.066592756745816,167.5857989210303,21.095023109728988,41.30375285612676,39.81205847478876,46.09772228646444,52.03844732503075,144.03124660989366,103.01941564578979,88.0,81.0,58.0,17.5,74.5,36.5,2.5,27.294688127912362,25.96150997149434,25.0,62.0,93.0,71.56814934033156,398.9235515734813,410.3291361821629,403.11288741492746,380.06446821559103
137,40,137,0,4.571233333333335,31.144823004794873,171.5488268686207,22.090722034374522,42.2965719651132,41.593268686170845,49.03060268852505,49.040799340956916,144.01388821915754,102.04410811016969,86.5,80.0,57.0,19.5,75.5,35.5,3.5,26.30589287593181,24.73863375370596,24.5,60.0,91.0,62.64982043070834,398.7041509691114,410.97566837952826,404.7937746556881,382.50359475435
138,40,138,0,4.604600000000001,30.01666203960727,171.82840277439584,21.02379604162864,41.19465984809196,42.579337712087536,49.03060268852505,49.040799340956916,141.01418368376991,100.0199980003999,85.0,79.0,54.0,17.5,74.5,35.5,2.5,27.294688127912362,25.96150997149434,25.0,62.0,94.0,66.61080993352356,396.94080163167905,408.27074350239695,404.06435131053075,380.5693103759156
139,40,139,0,4.637966666666668,29.068883707497267,170.98830369355676,21.095023109728988,40.311288741492746,42.579337712087536,49.03060268852505,50.039984012787215,140.03213916812098,100.0199980003999,85.5,79.0,53.0,16.0,74.0,36.0,1.0,28.442925306655784,27.202941017470888,26.0,61.0,93.0,67.7421582177598,400.0799920015996,413.59158598791635,407.4616546375867,384.94804844290354
140,40,140,0,4.671333333333335,30.066592756745816,171.14321488157222,21.095023109728988,41.19465984809196,41.773197148410844,48.27007354458868,49.01020301937138,141.0319112825179,100.00499987500625,85.0,78.0,51.0,15.5,76.5,38.5,0.5,29.274562336608895,27.892651361962706,27.0,61.0,93.0,66.75327707311455,399.30189080443887,410.8965806623365,405.77087130546965,382.5728688759829
141,40,141,0,4.704700000000002,32.0624390837628,172.13076424625552,21.095023109728988,40.19950248448356,41.593268686170845,48.05205510693585,49.01020301937138,142.03168660548954,102.00490184299969,86.0,79.0,52.0,16.5,76.5,38.5,0.5,28.442925306655784,27.202941017470888,25.5,59.0,92.0,64.77653896280658,401.2605138809449,411.8701251608327,405.30605719628716,382.96213912082743
142,40,142,0,4.738066666666668,29.068883707497267,169.01183390520322,21.095023109728988,39.319206502675,40.792156108742276,47.07440918375928,50.00999900019995,139.05754204644924,100.00499987500625,85.5,79.0,53.0,16.0,73.0,36.0,1.0,28.284271247461902,27.202941017470888,26.0,61.0,93.0,66.09841147864296,398.9009902218845,408.9498746790369,405.56133938037044,383.24013359772226
143,40,143,0,4.771433333333335,30.0,167.70509831248424,18.110770276274835,37.48332962798263,39.81205847478876,46.57252408878007,50.00999900019995,135.29966740535616,98.04590761474952,83.0,77.0,47.0,12.0,73.0,38.0,0.0,30.4138126514911,28.160255680657446,27.5,58.0,92.0,68.8839603971781,402.4425424827748,412.56514637084894,407.04422364160877,386.1217424595512
144,40,144,0,4.804800000000002,19.026297590440446,172.00290695217916,19.1049731745428,36.345563690772494,42.20189569201838,47.80167361086848,46.010868281309364,120.20399327809372,84.02380615040002,74.5,72.0,40.0,10.0,64.0,30.0,2.0,27.16615541441225,22.80350850198276,22.5,58.0,92.0,69.2314957226839,407.9534287146022,416.0733108479802,409.41421567893804,387.3422259449646
145,40,145,0,4.838166666666669,22.0,176.11927776367924,21.095023109728988,40.19950248448356,43.93176527297759,50.44799302251776,48.010415536631214,131.0953851209111,91.00549433962765,80.0,79.0,46.0,14.5,68.5,31.5,0.5,28.160255680657446,25.96150997149434,25.0,62.0,94.0,71.02112361825881,400.2811511925087,413.30376238306854,407.4947852427071,383.92316939721155
146,40,146,0,4.871533333333336,26.0,182.20043907740728,22.090722034374522,41.30375285612676,46.87216658103186,54.57105459856901,44.10215414239989,133.06013678032951,92.00543462209176,79.0,77.0,43.0,16.0,73.0,36.0,1.0,26.30589287593181,25.298221281347036,24.0,63.0,94.0,68.06614430096654,403.62606456967075,417.1953978653168,413.5516896350443,389.96666524204346
147,40,147,0,4.904900000000002,37.0,192.78226059469267,20.09975124224178,38.3275357934736,50.99019513592785,57.723478758647246,43.04648650006177,138.0905500025255,100.0,81.5,77.0,39.0,15.0,80.0,46.0,3.0,26.1725046566048,25.298221281347036,24.0,63.0,93.0,67.7421582177598,401.84200875468457,415.76555893916947,413.7692593704854,394.23977475642914
148,40,148,0,4.938266666666669,42.01190307520001,198.08079159777205,21.095023109728988,39.319206502675,52.952809179494906,59.90826320300064,42.04759208325728,144.12494579357175,105.00476179678711,84.0,79.0,39.0,17.0,85.0,50.0,4.0,25.317977802344327,24.351591323771842,22.5,63.0,93.0,68.8839603971781,401.84200875468457,415.99278839902985,414.5189983583382,392.8523895816341
149,40,149,0,4.971633333333336,42.01190307520001,194.94101672044292,21.095023109728988,40.44749683231337,51.19570294468082,57.723478758647246,42.04759208325728,145.16886718577092,105.00476179678711,84.0,79.0,40.0,17.5,85.5,49.5,4.5,25.317977802344327,24.041630560342615,23.0,61.0,94.0,69.87131027825369,402.0397990249224,416.2222963753864,412.58453679215853,391.61843674679056
150,40,150,0,5.005000000000003,42.01190307520001,191.80198122021577,20.223748416156685,40.311288741492746,52.392747589718944,59.90826320300064,41.19465984809196,143.0873858870865,103.0,82.0,77.0,39.0,17.0,85.0,49.0,6.0,24.515301344262525,21.540659228538015,20.5,60.0,95.0,71.02112361825881,403.62606456967075,417.163037672323,413.88524979757375,391.6554608326048
151,40,151,0,5.038366666666669,37.013511046643494,193.61043360315063,20.09975124224178,38.47076812334269,52.392747589718944,58.9406481131655,41.19465984809196,136.09188072769072,98.00510190801293,79.5,74.0,32.0,12.0,83.0,49.0,1.0,26.30589287593181,25.0,24.0,63.0,97.0,66.91038783328041,401.6690179737541,414.7444996621414,410.4631530356897,388.1198268576343
152,40,152,0,5.071733333333336,46.0,190.46521992216847,17.11724276862369,35.35533905932738,49.24428900898052,56.04462507680822,43.104524124504614,141.05672617780408,106.00471687618433,83.0,77.0,36.0,13.5,84.5,53.5,4.5,29.274562336608895,27.202941017470888,25.0,65.0,98.0,67.26812023536856,404.0,414.5093485073648,407.83575125287877,382.03664745675906
153,40,153,0,5.105100000000003,51.0098029794274,187.1095935541521,17.11724276862369,36.49657518178932,50.44799302251776,57.97413216254298,42.190046219457976,146.03081866510234,110.04090148667449,84.5,76.0,37.0,14.5,89.5,56.5,6.5,29.154759474226502,28.160255680657446,26.5,64.0,99.0,66.49060083951716,400.2811511925087,411.59324581435976,405.9088567646683,380.7807768257216
154,40,154,0,5.13846666666667,51.0098029794274,186.1316738225926,17.26267650163207,37.33630940518894,50.44799302251776,57.0087712549569,42.190046219457976,147.03060905811415,110.01818031580054,84.5,79.0,40.0,17.5,87.5,54.5,8.5,28.284271247461902,27.202941017470888,25.5,63.0,98.0,70.40596565632774,404.9802464318476,416.2222963753864,410.7274035172233,384.2980614054669
155,40,155,0,5.171833333333336,52.009614495783374,187.5366630821824,16.278820596099706,35.510561809129406,49.24428900898052,57.28001396647874,44.181444068749045,147.05441169852742,112.01785571952357,86.0,81.0,40.0,16.5,86.5,55.5,8.5,28.160255680657446,26.248809496813376,25.0,63.0,98.0,66.2872536767062,407.9534287146022,418.1339498294775,411.2626897738233,384.55168703309573
156,40,156,0,5.205200000000003,59.00847396772772,188.95766721676048,15.297058540778355,35.510561809129406,51.419840528729765,58.240879114244144,45.17742799230607,154.0519392932137,119.01680553602503,89.5,84.0,41.0,17.5,91.5,60.5,10.5,28.284271247461902,26.248809496813376,24.5,64.0,98.0,68.4470598345904,408.27074350239695,417.4218489729545,411.1216365018995,385.5035667798678
157,40,157,0,5.23856666666667,49.01020301937138,185.32404053441098,14.142135623730951,33.734255586866,46.84015371452148,54.08326913195984,46.04345773288535,142.12670403551894,109.00458705944443,84.5,87.0,39.0,17.0,79.0,51.0,12.0,26.30589287593181,22.135943621178654,21.5,63.0,95.0,68.06614430096654,410.3864032835396,422.6641692881004,415.26015941816524,385.84971167541386
158,40,158,0,5.271933333333337,37.0,155.76905982896602,15.132745950421556,34.713109915419565,39.56008088970496,44.27188724235731,56.00892785976178,142.35167719419397,108.04165863221463,89.5,101.0,59.0,24.0,62.0,32.0,16.0,17.72004514666935,14.866068747318506,15.0,61.0,93.0,71.84705978674423,407.74747086891904,418.186561237924,409.76212611709246,382.0078533224154
159,40,159,0,5.305300000000004,10.04987562112089,138.49548729110273,18.24828759089466,33.54101966249684,32.28002478313795,37.0,65.03076195155643,126.39620247459969,93.08598175880189,88.0,104.0,69.0,21.5,39.5,10.5,9.5,18.681541692269406,18.973665961010276,17.5,65.0,98.0,70.03570517957252,415.7162493817147,422.39554921897553,414.07366494381165,387.0710529088942
160,40,160,0,5.33866666666667,5.0990195135927845,132.00378782444085,18.110770276274835,35.510561809129406,33.24154027718932,37.94733192202055,64.03124237432849,122.494897852931,87.14355971613737,84.5,107.0,71.0,25.0,33.0,2.0,12.0,18.973665961010276,17.46424919657298,17.0,65.0,98.0,68.73136110975832,412.3311775745317,421.16505078175703,412.16137616229884,385.7978745405423
161,40,161,0,5.372033333333337,8.0,134.8517704741024,20.09975124224178,37.48332962798263,32.28002478313795,37.64306044943742,64.19501538281614,129.65338406690356,92.26592003551474,88.0,108.0,76.0,28.0,37.0,4.0,13.0,19.924858845171276,17.72004514666935,17.0,64.0,97.0,67.89698078707183,414.73847181085097,422.5221887664599,413.05205483086513,385.1674960325702
162,40,162,0,5.405400000000004,11.0,145.04137340772803,21.095023109728988,35.510561809129406,38.07886552931954,42.720018726587654,61.1310068623117,128.56126943990557,93.1933474020544,87.5,104.0,70.0,26.0,41.0,9.0,10.0,22.80350850198276,19.6468827043885,19.5,62.0,95.0,69.2314957226839,411.83127613137884,422.9349831829947,413.411417355641,385.7978745405423
163,40,163,0,5.438766666666671,23.0,153.52524222420234,16.278820596099706,34.52535300326414,39.05124837953327,45.221676218380054,54.037024344425184,127.47548783981962,93.13431161500041,81.5,101.0,64.0,28.5,44.5,15.5,18.5,22.561028345356956,19.924858845171276,19.0,64.0,99.0,75.13321502504735,412.31056256176606,421.0106887004177,412.45605826560484,386.1152677633973
164,40,164,0,5.472133333333337,21.0,167.6007159889241,16.278820596099706,34.713109915419565,43.174066289845804,48.38388161361178,50.039984012787215,121.59358535712317,87.14355971613737,76.5,93.0,54.0,23.5,47.5,17.5,14.5,24.515301344262525,20.8806130178211,20.0,65.0,101.0,71.02112361825881,408.0490166634396,417.67451442480905,410.7213167100047,385.5035667798678
165,40,165,0,5.505500000000004,23.021728866442675,174.8742405273001,15.132745950421556,35.6931365951495,45.60701700396552,51.24451190127583,47.042533945356304,120.59850745345068,85.14693182963201,73.5,89.0,48.0,21.5,51.5,22.5,14.5,25.317977802344327,21.840329667841555,21.5,68.0,104.0,71.19691004531025,408.4947980084936,417.92941987852447,410.7213167100047,382.3414704161713
166,40,166,0,5.538866666666671,31.0,177.56407294269863,15.297058540778355,35.6931365951495,44.384682042344295,50.0,46.010868281309364,127.47548783981962,92.0869154657707,76.5,85.0,45.0,19.0,62.0,32.0,12.0,27.294688127912362,25.0,23.5,76.0,109.0,70.21395872616783,408.27074350239695,419.60934212669764,412.76870036377517,384.5958918137322
167,40,167,0,5.572233333333338,61.032778078668514,173.0028901492689,14.317821063276353,34.713109915419565,46.09772228646444,52.88667128870941,46.04345773288535,155.32224567009067,121.03718436910205,90.5,92.0,55.0,27.5,81.5,50.5,20.5,28.284271247461902,27.202941017470888,26.0,82.0,117.0,76.94153624668537,409.69500851242987,421.79734470477644,415.24209805847,384.8960898736177
168,40,168,0,5.605600000000004,70.0,171.95929750961417,16.1245154965971,33.734255586866,44.64302857109943,50.96076922496363,47.042533945356304,166.3640586184408,133.06013678032951,98.0,101.0,60.0,33.5,85.5,57.5,25.5,28.442925306655784,26.248809496813376,25.5,75.0,115.0,76.94153624668537,413.04842331135944,424.04009244409895,414.2704430682933,385.5761922110856
169,40,169,0,5.638966666666671,71.02816342831905,169.5464538113375,13.341664064126334,32.55764119219941,44.64302857109943,51.92301994298868,50.039984012787215,166.24379687675568,134.03357788255897,98.5,101.0,62.0,31.5,84.5,56.5,25.5,29.274562336608895,26.92582403567252,26.5,74.0,111.0,75.95393340703298,413.29892329886366,422.8001892147164,412.4002909795288,380.8017857100988
170,40,170,0,5.672333333333338,72.00694410957877,164.2224101637776,12.165525060596439,31.575306807693888,42.44997055358225,49.040799340956916,53.150729063673246,168.35973390332975,137.09121051329294,101.0,104.0,67.0,32.5,82.5,55.5,27.5,29.274562336608895,28.160255680657446,27.5,74.0,111.0,72.00694410957877,408.6771341780697,419.08710311819425,411.50091129911243,382.0052355662158
171,40,171,0,5.705700000000005,57.0087712549569,149.8966310495336,14.317821063276353,31.78049716414141,39.56008088970496,44.9221548904324,57.42821606144492,159.80300372646317,128.3160161476345,99.5,110.0,72.0,34.0,68.0,39.0,27.0,29.427877939124322,28.160255680657446,27.5,71.0,110.0,75.95393340703298,409.6461888019953,421.4320823098308,413.7825515896,384.2199890687625
172,40,180,1,6.006000000000006,19.1049731745428,106.04244433244644,22.090722034374522,30.59411708155671,24.166091947189145,26.832815729997478,38.0,71.7007670809734,41.19465984809196,50.5,82.0,44.0,25.0,8.0,17.0,8.0,36.05551275463989,35.6931365951495,34.5,80.0,111.0,78.77182237323191,431.5669125408017,435.97362305534034,426.64505153581706,396.3495931624
173,40,181,0,6.039366666666672,1.4142135623730951,121.49074038789952,21.213203435596427,29.614185789921695,28.635642126552707,33.12099032335839,46.010868281309364,95.42536350467836,66.06814663663572,66.5,96.0,54.0,29.0,20.0,3.0,14.0,37.12142238654117,34.92849839314596,34.5,78.0,111.0,77.10382610480494,424.19924563817887,431.28181042098214,422.3091284829159,393.19333666785354
174,40,182,0,6.072733333333339,35.0,179.96944185055418,13.152946437965905,31.78049716414141,44.384682042344295,50.28916384272063,50.00999900019995,129.38701635017324,98.04590761474952,80.5,81.0,39.0,10.0,69.0,42.0,5.0,32.0624390837628,31.32091952673165,30.0,74.0,108.0,74.96665925596525,421.04750325824284,431.6028266821245,422.6014671058301,392.4601890638081
175,40,183,0,6.106100000000006,48.010415536631214,182.98907071188705,15.132745950421556,37.48332962798263,42.720018726587654,50.59644256269407,45.0,145.16886718577092,108.00462953040486,84.0,77.0,39.0,13.0,87.0,55.0,6.0,31.25699921617557,29.410882339705484,27.5,72.0,106.0,74.14849964766651,421.06175319066915,430.08138764657093,423.01891210677564,390.4100408544842
176,40,184,0,6.139466666666673,48.010415536631214,182.98907071188705,15.132745950421556,37.48332962798263,42.720018726587654,50.59644256269407,45.0,145.16886718577092,108.00462953040486,84.0,77.0,39.0,13.0,87.0,55.0,6.0,31.25699921617557,29.410882339705484,27.5,72.0,106.0,74.14849964766651,421.06175319066915,430.08138764657093,423.01891210677564,390.4100408544842
177,40,185,0,6.172833333333339,48.010415536631214,183.19934497699495,15.297058540778355,36.345563690772494,43.68065933568311,50.28916384272063,45.0,144.1700384962146,108.01851693112621,84.0,77.0,38.0,12.5,86.5,55.5,5.5,32.14031735997639,30.675723300355934,28.5,72.0,107.0,76.11832893594026,423.21861962820117,432.4835256978004,425.0223523533792,392.531527396208
178,40,186,0,6.206200000000006,33.06055050963308,183.76343488300387,15.297058540778355,36.345563690772494,45.35416188179427,52.20153254455275,46.010868281309364,130.18832512940628,94.02127418834527,77.5,73.0,36.0,8.5,75.5,43.5,1.5,27.16615541441225,23.769728648009426,22.0,68.0,101.0,73.97972695272672,425.57490527520537,436.8363537985363,430.2975714549177,403.72515403427616
179,40,187,0,6.239566666666673,29.068883707497267,177.55280904564702,19.1049731745428,39.45883931389772,44.721359549995796,50.44799302251776,44.04543109109048,131.24404748406687,92.02173656261873,77.5,72.0,42.0,13.0,74.0,38.0,0.0,30.14962686336267,26.92582403567252,25.5,66.0,100.0,73.16419889536138,423.12291358422084,431.2365939945264,423.5339419692358,396.8400181433319
180,40,188,0,6.27293333333334,25.079872407968907,173.95401691251627,17.11724276862369,35.35533905932738,41.593268686170845,46.09772228646444,48.010415536631214,125.14391715141412,90.00555538409837,77.5,73.0,47.0,12.0,65.0,33.0,1.0,28.284271247461902,26.0,24.0,64.0,99.0,74.33034373659252,420.1071291944473,428.8228072292797,419.8630729178264,393.68007315585584
181,40,189,0,6.306300000000007,25.079872407968907,170.55790805471318,16.1245154965971,33.37663853655727,39.45883931389772,43.93176527297759,53.03772242470448,127.1927670899568,94.02127418834527,81.5,76.0,53.0,11.5,62.5,31.5,0.5,31.064449134018133,29.410882339705484,28.5,68.0,102.0,74.14849964766651,423.26469259790616,433.91358586704797,427.05620239027087,399.8099548535529
182,40,190,0,6.339666666666673,26.076809620810597,160.25292509030842,14.142135623730951,32.38826948140329,37.48332962798263,41.593268686170845,58.034472514187634,130.18832512940628,98.02040603874276,85.0,79.0,59.0,11.0,61.0,31.0,1.0,29.274562336608895,28.160255680657446,27.0,64.0,97.0,73.348483283569,417.1390655404981,426.9332500520427,416.92325432865937,387.76926128820475
183,40,191,0,6.37303333333334,17.11724276862369,146.81280598094978,15.132745950421556,31.400636936215164,35.35533905932738,39.81205847478876,60.07495318350236,123.25988804148737,92.04890004774636,83.5,84.0,61.0,12.5,50.5,21.5,1.5,31.25699921617557,28.160255680657446,27.5,67.0,101.0,75.13321502504735,422.9905436295237,436.6096654908134,429.2528392451237,400.4722212588534
184,40,192,0,6.406400000000007,8.54400374531753,148.49242404917499,19.1049731745428,32.38826948140329,35.35533905932738,39.6232255123179,62.07253821135398,121.2023102090055,89.02246907382428,85.0,85.0,64.0,12.5,46.5,15.5,2.5,31.25699921617557,29.120439557122072,28.5,67.0,102.0,73.97972695272672,420.8111215260357,430.2975714549177,421.0106887004177,393.7829351305107
185,40,193,0,6.4397666666666735,2.0,161.27616066858735,17.26267650163207,33.54101966249684,37.8549864614954,41.7612260356422,60.00833275470999,112.44554237496477,79.1012010022604,78.0,85.0,58.0,11.5,40.5,10.5,0.5,28.160255680657446,27.202941017470888,25.5,65.0,99.0,78.26237921249263,423.26469259790616,430.5090010673412,421.6028937282096,394.9202451128582
186,40,194,0,6.47313333333334,5.830951894845301,149.11069713471264,18.24828759089466,31.575306807693888,38.47076812334269,41.97618372363071,60.07495318350236,114.35471131527551,83.05419917138447,80.5,82.0,57.0,9.5,44.5,15.5,3.5,22.360679774997898,20.8806130178211,20.0,68.0,100.0,75.13321502504735,418.9140723346496,429.54045211132325,421.16505078175703,392.90202341041714
187,40,195,0,6.506500000000007,8.06225774829855,165.73774464496614,17.26267650163207,32.55764119219941,41.773197148410844,46.57252408878007,56.0357029044876,113.44161493913951,81.09870529176159,77.0,79.0,49.0,8.0,49.0,20.0,3.0,13.92838827718412,13.416407864998739,12.0,69.0,101.0,74.14849964766651,409.923163531899,421.0463157421045,414.58533500354304,388.7840017284662
188,40,196,0,6.539866666666674,31.0,180.23595645708434,19.235384061671343,37.656340767525464,43.93176527297759,50.695167422546305,46.04345773288535,133.5402561027947,96.13012014972206,80.5,77.0,43.0,14.0,73.0,39.0,1.0,13.92838827718412,12.529964086141668,10.5,69.0,101.0,76.11832893594026,408.20828017079714,418.13992873199754,411.42800099166806,390.242232465939
189,40,197,0,6.573233333333341,44.04543109109048,193.18643844742311,17.46424919657298,35.90264614203248,50.21951811795888,57.0087712549569,44.40720662234904,141.4213562373095,105.68348972285122,83.0,78.0,38.0,14.0,82.0,50.0,5.0,11.40175425099138,10.63014581273465,7.5,60.0,102.0,75.7099729229908,390.7492802296634,401.78725713989485,395.32391781929914,379.68407920269715
190,40,198,0,6.606600000000007,40.11234224026316,193.54586019855861,17.72004514666935,35.17101079013795,48.27007354458868,54.817880294662984,41.7612260356422,134.17153200288055,99.04039579888602,77.0,74.0,28.0,11.0,80.0,48.0,3.0,12.206555615733702,10.295630140987,8.5,54.0,104.0,74.04052944165107,384.53348358758046,393.3954753171419,390.26657556085945,380.1815355853043
191,40,199,0,6.639966666666674,52.3450093132096,198.40614909825754,16.492422502470642,33.95585369269929,51.19570294468082,58.463663928973865,42.05948168962618,144.3675863897433,110.42191811411355,82.0,76.0,30.0,13.0,88.0,57.0,5.0,10.63014581273465,9.433981132056603,8.0,52.0,103.0,68.6804193347711,375.3624914665822,382.7531841800928,381.87432487665365,373.03753162383003
192,40,200,0,6.673333333333341,56.32051136131489,190.3943276465977,18.681541692269406,36.87817782917155,51.19570294468082,58.249463516842795,41.43669871020132,152.6106156202772,115.73245007343446,85.0,82.0,37.0,20.5,89.5,55.5,10.5,10.0,8.94427190999916,8.0,51.0,102.0,68.6804193347711,363.8818489564985,375.22526567383494,374.31804658605495,360.8794812676387
193,40,201,0,6.706700000000008,67.26812023536856,182.43903091169938,18.439088914585774,34.713109915419565,53.150729063673246,60.01666435249463,40.496913462633174,160.0312469488381,125.31959144523253,89.5,91.0,51.0,33.0,86.0,53.0,23.0,13.038404810405298,9.848857801796104,8.5,48.0,94.0,64.8459713474939,358.98885776580863,365.54753452868476,364.58880948268285,351.6375975347346
194,40,202,0,6.740066666666674,75.16648189186454,179.25400971805345,17.26267650163207,34.713109915419565,52.773099207835045,60.67124524847005,41.43669871020132,167.5291019494822,132.83448347473634,93.5,97.0,63.0,41.0,85.0,51.0,30.0,12.529964086141668,11.704699910719626,10.5,46.0,88.0,61.40032573203501,354.682957019364,360.6618915272308,357.41852218372793,343.7586362551492
195,40,203,0,6.773433333333341,80.02499609497022,178.89941307897016,18.24828759089466,35.35533905932738,51.35172830587107,59.413803110051795,38.3275357934736,171.1724276862369,135.83077707206124,95.0,97.0,71.0,47.0,86.0,51.0,33.0,12.083045973594572,12.36931687685298,11.0,42.0,77.0,57.723478758647246,349.02292188336287,356.66510903086663,353.7470847936418,337.262509034135
196,40,204,0,6.806800000000008,79.00632886041473,176.72577627499618,15.132745950421556,28.160255680657446,51.15662224971465,58.137767414994535,39.45883931389772,161.4465855941215,133.30416347586447,93.5,94.0,78.0,47.0,75.0,46.0,35.0,10.770329614269007,11.180339887498949,11.0,44.0,70.0,56.71860364994893,341.69577111811026,348.0488471464889,346.69871646719434,331.5448687583628
197,40,205,0,6.840166666666675,80.00624975587844,173.07223925286226,16.0,29.0,50.00999900019995,58.008620049092706,39.20459156782532,164.02743672934722,135.03332921912278,95.0,90.0,85.0,48.5,76.5,44.5,34.5,10.44030650891055,10.04987562112089,10.0,45.0,61.0,55.44366510251645,336.25139404915484,342.11840055746785,341.03665492143216,326.00153373872337
198,40,206,0,6.8735333333333415,87.02298546935747,170.01176429882727,15.0,31.0,49.0,57.0,38.0,171.011695506477,140.0142849854971,96.5,85.0,87.0,48.0,85.0,51.0,33.0,9.486832980505138,9.0,9.0,45.0,53.0,51.35172830587107,330.0,337.0370899470858,335.1492204973779,321.26313202731495
199,40,207,0,6.906900000000008,89.08984229416954,172.02616080119907,16.0,30.01666203960727,50.00999900019995,57.0087712549569,37.0,172.07265907168403,142.0563268566381,97.5,84.0,87.0,48.5,86.5,53.5,33.5,9.219544457292887,9.055385138137417,8.5,46.0,52.0,51.088159097779204,326.00153373872337,330.0242415338607,327.09784468871084,314.1289544120376
200,40,208,0,6.940266666666675,90.0499861188218,170.02646852769718,15.033296378372908,30.066592756745816,49.01020301937138,56.00892785976178,36.013886210738214,171.14321488157222,141.088624630053,96.0,83.0,86.0,48.5,86.5,53.5,33.5,9.219544457292887,9.055385138137417,9.0,46.0,50.0,50.039984012787215,322.001552791287,328.0015243867016,326.01380338875225,312.04006153056696
201,40,209,0,6.973633333333342,89.05054744357274,167.01197561851666,14.035668847618199,31.016124838541646,50.0,57.0,33.015148038438355,167.10774967068403,136.09188072769072,91.5,82.0,84.0,50.0,84.0,50.0,36.0,9.219544457292887,9.055385138137417,8.5,45.0,47.0,48.093658625644196,320.0140621910231,328.0015243867016,326.0061349115995,311.05787242890995
202,40,210,0,7.0070000000000086,85.09406559801923,169.0266251216062,14.035668847618199,28.071337695236398,48.010415536631214,55.0,35.0,162.15116404145854,134.09325113517085,91.5,76.0,79.0,42.5,84.5,53.5,29.5,7.0710678118654755,7.0710678118654755,7.5,44.0,50.0,48.041648597857254,320.1265374816652,326.0751447136074,323.0139315880973,311.00160771288625
203,40,211,0,7.040366666666675,81.09870529176159,165.00303027520434,14.0,26.0,48.010415536631214,54.00925846556311,36.013886210738214,157.07959765672945,131.0953851209111,90.5,80.0,79.0,43.5,77.5,48.5,29.5,8.246211251235321,8.06225774829855,8.0,44.0,50.0,44.10215414239989,314.5155004129367,322.50271316688173,322.56007192459515,310.5817122755298
204,40,212,0,7.073733333333342,81.05553651663777,164.01219466856725,14.035668847618199,28.0,47.01063709417264,53.009433122794285,35.014282800023196,158.07909412695912,130.09611831257686,89.5,81.0,79.0,45.0,78.0,47.0,31.0,9.219544457292887,9.0,8.5,42.0,49.0,44.181444068749045,312.6403684747061,321.822932681933,319.9015473548073,306.9397334982879
205,40,213,0,7.107100000000009,86.09297300012354,168.00297616411441,15.033296378372908,28.0,48.010415536631214,55.00909015790027,33.015148038438355,162.11107303327555,134.13426109685773,91.0,80.0,79.0,46.5,82.5,52.5,31.5,8.06225774829855,9.055385138137417,8.5,42.0,49.0,45.09988913511872,311.46428366668306,320.5635662392094,318.56710439089596,305.5912302406599
206,40,214,0,7.140466666666676,49.040799340956916,163.01226947687098,15.0,21.0,45.0,49.01020301937138,35.0,120.01666550941998,99.02019995940222,74.5,74.0,72.0,38.0,47.0,24.0,24.0,6.324555320336759,7.0710678118654755,7.0,39.0,46.0,41.10960958218893,310.4126286090822,316.5706872090339,313.6383267395743,303.7976300105055
207,40,215,0,7.173833333333342,75.05997601918082,169.04733065032408,16.0,29.0,47.0,53.009433122794285,34.058772731852805,154.0811474515945,125.09996003196804,87.5,75.0,79.0,43.0,77.0,47.0,27.0,7.280109889280518,8.0,7.5,38.0,45.0,46.17358552246078,309.23292192132453,316.1913977324494,313.12936623702353,304.1052449399714
208,40,216,0,7.207200000000009,65.03076195155643,173.04623659588788,15.033296378372908,28.0178514522438,48.010415536631214,54.0,34.0147027033899,142.08800090085018,114.0701538527936,81.5,72.0,76.0,40.0,68.0,38.0,25.0,7.280109889280518,7.0,7.0,34.0,42.0,48.16637831516918,307.1628232713067,314.1289544120376,314.0573196090166,305.026228380446
209,40,217,0,7.240566666666676,55.036351623268054,174.1034175425629,15.033296378372908,27.018512172212592,45.0111097397076,51.0,35.014282800023196,132.09466302617983,105.07616285342742,77.5,69.0,75.0,37.0,60.0,32.0,22.0,7.280109889280518,8.06225774829855,8.0,35.0,41.0,45.17742799230607,306.13232433050905,312.1602152741441,310.0790221862808,303.08084729985825
210,40,218,0,7.273933333333343,51.03920062069938,177.0706073858674,15.0,26.0,46.010868281309364,51.0098029794274,34.058772731852805,126.0634760745554,100.07996802557443,74.5,66.0,71.0,34.5,57.5,29.5,19.5,7.280109889280518,8.0,7.5,33.0,39.0,47.16990566028302,302.0413878924542,310.0403199585499,309.01456276363416,305.00655730656024
211,40,219,0,7.3073000000000095,50.039984012787215,173.02600960549256,17.0,26.0,46.010868281309364,52.0,33.06055050963308,126.0634760745554,100.07996802557443,75.0,70.0,73.0,38.5,54.5,26.5,22.5,7.280109889280518,8.0,8.0,33.0,40.0,46.17358552246078,303.1649715913763,308.162294903189,308.0795351853154,303.0264014900352
212,40,220,0,7.340666666666676,50.039984012787215,170.07351351694948,15.0,25.019992006393608,45.0111097397076,51.0098029794274,35.05709628591621,125.09996003196804,100.07996802557443,75.0,70.0,75.0,37.5,52.5,25.5,22.5,6.082762530298219,8.0,7.5,32.0,37.0,47.16990566028302,307.05862632402955,310.0790221862808,308.0259729308553,302.026488904533
213,40,221,0,7.374033333333343,48.041648597857254,168.02678357928536,17.029386365926403,25.0,46.010868281309364,52.009614495783374,34.0,124.03628501370073,99.04544411531506,75.0,70.0,73.0,37.5,52.5,25.5,20.5,7.280109889280518,7.0710678118654755,7.5,34.0,39.0,46.09772228646444,303.08084729985825,308.05843601498725,306.01470552899906,301.0265768997814
214,40,222,0,7.40740000000001,48.041648597857254,168.04761230080004,16.0312195418814,25.0,45.0111097397076,49.01020301937138,35.014282800023196,124.06449935416659,99.08077512817509,75.0,69.0,73.0,36.0,53.0,27.0,20.0,7.0710678118654755,8.06225774829855,7.5,34.0,40.0,44.10215414239989,304.059204761178,309.04045042680093,307.001628660175,300.00166666203705
215,40,223,0,7.440766666666676,51.03920062069938,164.02743672934722,15.0,24.0,44.01136216933077,49.01020301937138,34.0,124.01612798341996,100.0199980003999,74.5,69.0,72.0,36.5,53.5,27.5,21.5,7.0710678118654755,7.0710678118654755,6.5,33.0,38.0,44.04543109109048,301.10629352439645,307.1042168385188,306.0588178765644,300.04166377354994
216,40,224,0,7.474133333333343,56.0357029044876,156.01281998605114,14.035668847618199,25.0,42.01190307520001,47.01063709417264,36.0,131.03434664239754,106.04244433244644,78.0,74.0,76.0,39.0,56.0,30.0,25.0,7.280109889280518,7.0710678118654755,7.0,35.0,38.0,45.09988913511872,300.01499962501873,305.00655730656024,303.0,295.0
217,40,225,0,7.50750000000001,46.010868281309364,147.00340132119393,14.035668847618199,25.019992006393608,39.0,44.0,38.0,123.03657992645927,98.02040603874276,75.0,76.0,75.0,37.5,47.5,20.5,24.5,7.0710678118654755,6.082762530298219,6.5,35.0,39.0,43.04648650006177,301.0813843464919,304.1052449399714,298.0603965641863,285.0631508981826
218,40,226,0,7.540866666666677,31.064449134018133,141.0319112825179,15.0,26.019223662515376,37.013511046643494,41.012193308819754,39.01281840626232,111.07204868912791,85.05292469985967,69.5,74.0,77.0,36.5,35.5,7.5,20.5,7.280109889280518,7.280109889280518,7.5,34.0,39.0,43.04648650006177,300.00166666203705,303.0,298.00167784762556,285.0
219,40,227,0,7.574233333333344,17.029386365926403,140.0142849854971,17.0,25.019992006393608,35.014282800023196,38.01315561749642,42.04759208325728,101.07917688624102,76.05918747922567,67.5,74.0,76.0,33.0,26.0,1.0,16.0,7.280109889280518,7.280109889280518,7.0,35.0,40.0,42.1070065428546,301.0016611249845,303.0,299.0066888883926,288.00694436072195
220,40,228,0,7.60760000000001,6.324555320336759,139.0323703315167,19.0,26.0,35.014282800023196,38.01315561749642,42.04759208325728,93.08598175880189,67.11929677819934,64.0,71.0,74.0,30.5,20.5,6.5,12.5,9.219544457292887,9.055385138137417,9.0,37.0,40.0,42.1070065428546,302.0149002946709,306.00653587791226,301.0066444449358,289.0069203323685
221,40,229,0,7.640966666666677,3.605551275463989,142.03168660548954,22.02271554554524,28.0,35.014282800023196,39.01281840626232,40.01249804748511,93.08598175880189,65.12296062065974,63.5,70.0,73.0,31.5,21.5,8.5,9.5,9.055385138137417,8.246211251235321,9.0,38.0,41.0,41.048751503547585,302.0413878924542,306.0261426741186,301.0597947252339,292.1095684841563
222,40,230,0,7.674333333333344,8.246211251235321,145.0551619212498,23.0,31.016124838541646,36.05551275463989,40.01249804748511,40.049968789001575,102.12247548899312,71.11258679024411,67.0,69.0,73.0,31.0,31.0,2.0,8.0,8.246211251235321,8.246211251235321,8.0,41.0,44.0,46.04345773288535,304.1052449399714,308.0795351853154,304.1052449399714,295.10845463998487
223,40,231,0,7.707700000000011,27.073972741361768,151.08275877809487,22.0,32.01562118716424,40.01249804748511,45.044422518220834,38.05259518088089,119.10499569707393,87.09190547921202,73.5,71.0,76.0,35.5,45.5,11.5,13.5,6.082762530298219,7.280109889280518,7.5,43.0,45.0,48.010415536631214,305.0147537415199,311.0401903291599,308.0795351853154,300.08165555395084
224,40,232,0,7.741066666666677,41.10960958218893,157.07959765672945,20.0,32.01562118716424,44.01136216933077,49.0,35.12833614050059,128.191263352851,96.18731725128839,75.5,71.0,76.0,38.5,54.5,20.5,18.5,7.280109889280518,7.280109889280518,7.5,43.0,45.0,48.010415536631214,308.0259729308553,312.0256399721023,309.04045042680093,299.04180309782777
225,40,233,0,7.774433333333344,51.088159097779204,161.07762104029226,18.027756377319946,29.017236257093817,45.044422518220834,51.0098029794274,35.05709628591621,133.18408313308313,104.17293314484334,78.5,71.0,76.0,38.5,59.5,27.5,20.5,9.055385138137417,9.219544457292887,9.0,44.0,47.0,47.042533945356304,312.00641019056,316.0063290505429,314.02547667346994,303.0412513173743
226,40,234,0,7.807800000000011,58.137767414994535,173.18487231857176,18.0,30.01666203960727,47.01063709417264,52.0,34.23448553724738,140.28898745090436,110.2905254316979,81.0,65.0,73.0,35.0,71.0,39.0,18.0,4.47213595499958,5.0,5.0,43.0,46.0,49.040799340956916,311.02572240893517,318.0393057469469,317.0567772497538,308.0795351853154
227,40,235,0,7.841166666666678,63.12685640834652,168.1071087134628,19.026297590440446,31.016124838541646,48.010415536631214,54.0,34.132096331752024,147.27525250360293,116.27553482998907,84.5,70.0,76.0,39.0,74.0,41.0,21.0,6.082762530298219,7.0710678118654755,7.0,46.0,48.0,49.01020301937138,315.02539580167183,322.02484376209236,320.0562450570212,309.04045042680093
228,40,236,0,7.874533333333344,69.06518659932803,174.1034175425629,19.026297590440446,33.06055050963308,48.010415536631214,55.0,33.13608305156178,154.26276284314372,121.2023102090055,86.5,71.0,77.0,41.0,80.0,45.0,23.0,8.246211251235321,8.246211251235321,8.0,47.0,50.0,49.040799340956916,318.014150628553,326.01380338875225,324.0385779502188,312.07851576165893
229,40,237,0,7.907900000000011,76.10519036176179,168.1071087134628,17.029386365926403,31.016124838541646,48.010415536631214,54.0,35.12833614050059,159.25451327984396,128.2497563350512,90.0,74.0,80.0,42.0,82.0,47.0,26.0,9.219544457292887,9.055385138137417,9.0,47.0,49.0,47.042533945356304,318.0062892459833,327.0137611783333,325.0246144525057,315.02539580167183
230,40,238,0,7.941266666666678,75.05997601918082,172.07265907168403,17.029386365926403,31.064449134018133,49.01020301937138,56.0,36.05551275463989,159.20113064925135,128.14054783713078,90.5,75.0,80.0,41.5,81.5,47.5,24.5,10.04987562112089,10.04987562112089,10.0,48.0,50.0,45.09988913511872,322.0139748520241,330.0060605504087,329.0015197533288,316.00158227451965
231,40,239,0,7.974633333333345,76.05918747922567,169.07394831847986,18.027756377319946,31.016124838541646,47.01063709417264,56.00892785976178,36.0,161.07762104029226,130.06152390311286,92.0,77.0,82.0,43.5,81.5,46.5,26.5,11.045361017187261,10.198039027185569,10.0,48.0,50.0,47.01063709417264,327.00611615075337,334.0059879702758,331.00151057057127,318.0
232,40,240,0,8.008000000000012,74.06078584514209,171.10523077919038,18.0,32.01562118716424,48.041648597857254,55.00909015790027,36.013886210738214,160.0781059358212,128.06248474865697,91.0,76.0,82.0,43.0,81.0,46.0,25.0,11.045361017187261,11.045361017187261,11.0,48.0,51.0,47.042533945356304,327.0550412392385,336.0372003216311,334.0239512370333,320.0249990235138
233,40,241,0,8.041366666666677,70.06425622241343,173.07223925286226,19.0,32.0,48.010415536631214,55.00909015790027,36.013886210738214,157.05094714773293,125.06398362438324,90.0,75.0,80.0,41.5,79.5,43.5,23.5,11.045361017187261,11.045361017187261,11.0,49.0,52.0,49.09175083453431,329.09725006447565,337.0726924566866,334.0239512370333,323.0061918911153
234,40,242,0,8.074733333333343,60.03332407921454,175.04570831642803,20.0,32.0,51.0098029794274,57.0087712549569,36.05551275463989,148.05404418657398,116.06894502837527,86.0,75.0,79.0,41.0,71.0,36.0,22.0,12.165525060596439,11.0,11.0,50.0,54.0,48.093658625644196,330.21810973960834,339.17841912480225,336.12051410171324,325.0753758745808
235,40,243,0,8.10810000000001,51.03920062069938,179.02513789968157,21.0,34.0147027033899,50.00999900019995,56.00892785976178,36.013886210738214,142.01408380861386,108.04165863221463,82.5,73.0,76.0,38.5,67.5,30.5,18.5,12.165525060596439,11.0,11.5,48.0,54.0,51.088159097779204,334.18108863309425,343.20984834354624,339.1474605536654,329.1230772826482
236,40,244,0,8.141466666666675,48.010415536631214,181.01104938649465,20.0,34.0147027033899,51.0098029794274,57.0087712549569,38.01315561749642,140.00357138301865,106.01886624558857,82.0,73.0,75.0,36.0,66.0,29.0,17.0,12.165525060596439,11.0,11.5,47.0,55.0,50.08991914547278,337.6536687198882,346.5212836176156,343.4719784785944,335.3356527421443
237,40,245,0,8.174833333333341,48.0,183.0,21.0,34.0147027033899,51.0098029794274,56.00892785976178,37.0,140.00357138301865,106.0,82.0,75.0,75.0,38.0,65.0,28.0,19.0,12.165525060596439,12.041594578792296,12.0,45.0,55.0,51.24451190127583,345.52279230175253,353.62409420173844,348.5742388645495,338.47895060106765
238,40,246,0,8.208200000000007,49.0,186.00268815261785,20.0,33.015148038438355,54.00925846556311,59.033888572581766,38.01315561749642,140.0142849854971,107.00467279516349,82.5,74.0,73.0,35.5,66.5,30.5,17.5,7.615773105863909,6.0,6.5,44.0,55.0,53.150729063673246,345.05796614482034,355.10561809129405,351.961645637703,341.9897659287482
239,40,247,0,8.241566666666673,51.0098029794274,186.04300578092153,20.024984394500787,33.06055050963308,52.009614495783374,58.034472514187634,37.0,141.01418368376991,108.0,82.5,75.0,71.0,36.0,68.0,33.0,18.0,8.94427190999916,7.0,7.5,46.0,59.0,53.23532661682466,346.69871646719434,356.808071657579,353.74849823002785,344.70277051396033
240,40,248,0,8.274933333333339,51.0,189.06612599828665,19.0,33.06055050963308,52.009614495783374,59.07622195096772,39.05124837953327,142.0563268566381,109.01834707974616,83.5,75.0,70.0,33.5,69.5,34.5,16.5,9.848857801796104,9.0,8.5,45.0,58.0,51.15662224971465,350.5567001213926,359.6109008358896,355.3547523250533,347.21319099366025
241,40,249,0,8.308300000000004,52.0,189.16923639957952,21.02379604162864,33.06055050963308,52.08646657242167,59.135437767890075,37.0,143.0314650697531,110.00454536063498,84.0,76.0,68.0,35.0,71.0,36.0,17.0,7.615773105863909,6.0,6.0,49.0,63.0,53.33854141237835,350.202798389733,359.17266042949313,357.0994259306503,349.12461958446875
242,40,250,0,8.34166666666667,48.0,190.16834647227702,21.02379604162864,34.058772731852805,52.08646657242167,58.137767414994535,40.049968789001575,143.0873858870865,109.04127658827184,85.0,78.0,70.0,34.0,69.0,34.0,17.0,9.486832980505138,9.055385138137417,9.0,48.0,64.0,54.45181356024793,353.45155254999236,362.5051723768917,361.33225707096784,352.27971840570103
243,40,251,0,8.375033333333336,48.0,189.2643653728826,20.024984394500787,32.14031735997639,52.08646657242167,58.077534382926416,40.11234224026316,140.1748907615055,108.07404868885037,84.0,77.0,67.0,32.0,68.0,35.0,15.0,12.36931687685298,11.045361017187261,10.5,47.0,65.0,53.46026561849464,354.7308839106062,361.69738732813653,359.5177325251148,353.45155254999236
244,40,252,0,8.408400000000002,42.0,189.2643653728826,21.02379604162864,35.12833614050059,52.15361924162119,58.137767414994535,39.11521443121589,137.17871555019022,102.07840124139877,81.0,75.0,65.0,31.0,67.0,31.0,14.0,12.36931687685298,12.041594578792296,12.0,48.0,68.0,52.773099207835045,357.13582850226607,362.9944903163132,360.80049889100763,354.53913747286066
245,40,253,0,8.441766666666668,41.0,187.32325002519042,20.024984394500787,34.058772731852805,53.08483775994799,58.137767414994535,40.19950248448356,135.18135966175217,101.1236866416568,80.5,76.0,65.0,30.5,64.5,29.5,14.5,14.317821063276353,14.035668847618199,13.5,47.0,69.0,51.62363799656123,355.48980294798895,362.32720019341633,359.9069324144785,352.64287884487334
246,40,254,0,8.475133333333334,46.04345773288535,190.26297590440447,19.1049731745428,33.06055050963308,50.08991914547278,56.142675390472796,41.048751503547585,139.2300254973761,106.16967551989597,83.0,72.0,62.0,26.0,72.0,38.0,11.0,14.560219778561036,14.142135623730951,14.0,44.0,68.0,49.8196748283246,356.6020190632689,361.33364083627754,356.9229608753127,350.5567001213926
247,40,255,0,8.5085,46.010868281309364,186.3866948041088,17.029386365926403,33.06055050963308,49.09175083453431,54.08326913195984,43.104524124504614,139.17614738165446,106.1178590059185,83.0,73.0,61.0,24.0,72.0,39.0,10.0,14.317821063276353,13.152946437965905,13.5,44.0,68.0,52.773099207835045,353.50388965328233,360.227705764007,355.92836357896516,350.5567001213926
248,40,256,0,8.541866666666666,46.0,179.27911200137063,14.035668847618199,33.13608305156178,46.09772228646444,53.03772242470448,46.09772228646444,139.17614738165446,106.07544484940895,83.0,71.0,61.0,20.0,73.0,39.0,9.0,17.26267650163207,15.132745950421556,15.5,45.0,69.0,50.00999900019995,352.8809997718778,360.5731548521049,355.92836357896516,348.5656322703086
249,40,257,0,8.575233333333331,44.0,172.18594600024707,13.038404810405298,31.144823004794873,42.04759208325728,47.042533945356304,50.08991914547278,138.1774221788784,107.07474025184464,85.0,71.0,63.0,17.0,71.0,38.0,7.0,15.297058540778355,14.142135623730951,14.5,42.0,68.0,50.00999900019995,355.48980294798895,360.227705764007,352.5478690901421,343.144284521832
250,40,258,0,8.608599999999997,39.01281840626232,167.29913329123974,14.142135623730951,32.14031735997639,39.11521443121589,45.044422518220834,52.03844732503075,137.23337786413333,105.11898020814318,85.5,72.0,62.0,15.0,70.0,36.0,4.0,15.297058540778355,15.297058540778355,15.5,39.0,68.0,52.172789842982326,353.5533905932738,357.8407467016578,353.1600203873592,343.78627081371354
251,40,259,0,8.641966666666663,28.0,157.45793088949188,15.132745950421556,30.265491900843113,37.12142238654117,41.048751503547585,54.147945482723536,127.39309243440164,97.18538984847466,83.0,74.0,62.0,14.0,59.0,27.0,2.0,17.46424919657298,15.297058540778355,16.0,40.0,71.0,49.24428900898052,350.5024964247758,357.94552658190884,353.1416146533852,344.5692963686695
252,40,260,0,8.67533333333333,9.055385138137417,154.46682491719702,15.132745950421556,29.274562336608895,34.132096331752024,38.118237105091836,58.137767414994535,111.5437134042076,82.29823813423954,77.5,72.0,60.0,8.0,45.0,15.0,4.0,17.46424919657298,16.278820596099706,16.5,38.0,68.0,47.12748667179272,350.52674648306083,357.73314076277586,352.8526604689272,341.97368319799114
253,40,261,0,8.708699999999995,1.4142135623730951,151.5585695366646,15.132745950421556,22.20360331117452,32.14031735997639,35.05709628591621,55.14526271584895,93.53608929178085,71.34423592694787,70.5,70.0,57.0,8.5,29.5,6.5,3.5,17.46424919657298,16.278820596099706,17.0,38.0,70.0,47.80167361086848,351.86929391465804,359.0487432090523,351.86360993998795,341.11581610942636
254,40,262,0,8.74206666666666,0.0,158.5339080449353,13.152946437965905,20.396078054371138,33.06055050963308,35.12833614050059,55.08175741568164,88.45903006477066,68.18357573492314,68.0,69.0,56.0,7.5,25.5,5.5,2.5,17.46424919657298,17.26267650163207,17.0,38.0,68.0,50.00999900019995,352.23855552735847,358.23176855214837,351.17659375305755,339.5541193977773
255,40,263,0,8.775433333333327,0.0,160.44936896105264,13.038404810405298,19.235384061671343,35.05709628591621,37.12142238654117,53.23532661682466,85.47514258543241,66.27216610312357,66.0,69.0,57.0,10.0,22.0,3.0,0.0,17.46424919657298,14.317821063276353,15.0,39.0,67.0,47.853944456021594,350.66365651433,358.0949594730426,352.56346946330103,339.8602654032978
256,40,264,0,8.808799999999993,2.0,159.25451327984396,16.1245154965971,23.194827009486403,33.06055050963308,36.124783736376884,52.15361924162119,91.26883367283708,68.11754546370561,68.0,70.0,61.0,13.5,25.5,2.5,0.5,18.24828759089466,17.26267650163207,17.5,41.0,64.0,49.64876634922564,351.0270644836378,359.70126494078386,354.2654372077525,340.01911710961195
257,40,265,0,8.842166666666659,4.47213595499958,165.0272704737008,19.026297590440446,22.090722034374522,38.01315561749642,41.048751503547585,51.15662224971465,96.13012014972206,74.06078584514209,72.0,69.0,66.0,16.5,28.5,5.5,0.5,18.24828759089466,16.0312195418814,16.5,43.0,61.0,47.51841748206689,351.55227207344285,359.25478424093393,350.891721190455,336.5947117825828
258,40,266,0,8.875533333333324,42.1070065428546,167.01197561851666,21.02379604162864,32.0624390837628,43.01162633521314,49.01020301937138,46.17358552246078,141.05672617780408,109.01834707974616,88.0,77.0,75.0,30.0,65.0,29.0,11.0,18.24828759089466,17.029386365926403,18.0,47.0,63.0,47.67598976424087,352.95892112255785,357.8742796010912,351.6276439644642,336.48179742743883
259,40,267,0,8.90889999999999,69.02897942168927,173.0028901492689,19.026297590440446,35.014282800023196,48.010415536631214,56.00892785976178,44.04543109109048,167.01197561851666,132.00378782444085,97.5,82.0,81.0,37.5,85.5,47.5,20.5,17.11724276862369,16.1245154965971,17.0,47.0,62.0,51.478150704935004,356.0252800012943,361.7969043538101,355.50808710914015,338.3784863137726
260,40,268,0,8.942266666666656,81.02468759581859,175.025712396779,18.027756377319946,36.013886210738214,49.040799340956916,57.0350769263968,41.048751503547585,176.0113632695344,140.00357138301865,99.5,83.0,80.0,40.5,94.5,55.5,24.5,16.1245154965971,16.0312195418814,16.5,50.0,63.0,51.35172830587107,353.5661182862408,359.4509702309899,354.3613974461665,338.28981657744293
261,40,269,0,8.975633333333322,85.0235261559999,173.04623659588788,19.0,36.013886210738214,50.039984012787215,59.07622195096772,41.048751503547585,181.00276240985937,145.0,102.5,89.0,85.0,46.0,94.0,55.0,29.0,16.278820596099706,15.033296378372908,15.0,52.0,65.0,51.15662224971465,354.6223343220221,359.50243392778304,355.36038045904894,340.28811322172277
262,40,270,0,9.008999999999988,85.0235261559999,175.04570831642803,20.0,36.013886210738214,51.088159097779204,59.07622195096772,39.01281840626232,180.0,144.00347218036097,101.5,86.0,82.0,45.0,96.0,57.0,28.0,16.278820596099706,14.035668847618199,14.5,53.0,63.0,51.15662224971465,355.74429018608294,360.5551275463989,356.3593691766782,340.28811322172277
263,40,271,0,9.042366666666654,75.05997601918082,178.02527910383964,20.024984394500787,35.014282800023196,49.040799340956916,57.0087712549569,40.049968789001575,170.00294115102832,135.0,97.5,84.0,81.0,42.5,87.5,49.5,24.5,15.297058540778355,16.0312195418814,16.5,59.0,70.0,51.088159097779204,353.8841618383055,359.61368160847275,356.4547657136877,345.3259329966401
264,40,272,0,9.07573333333332,70.00714249274856,179.0111728356641,20.0,35.014282800023196,50.08991914547278,58.034472514187634,40.049968789001575,165.01212076693034,130.00384609695206,95.0,83.0,81.0,42.0,83.0,46.0,25.0,17.26267650163207,16.0,16.0,59.0,69.0,55.14526271584895,357.4534934785223,362.3534186398688,356.2751745491117,344.17582715815473
265,40,273,0,9.109099999999986,69.02897942168927,177.02542190318317,19.0,34.0,50.039984012787215,57.0350769263968,39.05124837953327,161.0,127.0,92.5,79.0,76.0,38.5,83.5,47.5,20.5,19.235384061671343,18.027756377319946,18.0,59.0,69.0,54.230987451824994,357.4045327076868,361.19939091864484,356.11374587342175,344.05232160239814
266,40,274,0,9.142466666666651,72.02777242147643,180.02499826412998,17.0,33.0,52.03844732503075,59.00847396772772,40.049968789001575,162.0,129.0,93.0,76.0,73.0,34.5,87.5,51.5,19.5,17.11724276862369,17.0,17.0,60.0,70.0,55.226805085936306,358.55822400274127,362.44723753947966,356.3158711031548,343.20984834354624
267,40,275,0,9.175833333333316,65.03076195155643,176.02556632489498,17.0,34.0147027033899,49.01020301937138,56.00892785976178,41.10960958218893,157.01273833673497,123.00406497347964,90.5,77.0,74.0,34.5,81.5,44.5,19.5,17.029386365926403,17.029386365926403,17.5,61.0,72.0,55.14526271584895,355.50808710914015,360.3553801457667,354.2033314354906,340.14702703389895
268,40,276,0,9.209199999999983,69.00724599634447,175.10282693320517,17.0,32.01562118716424,49.040799340956916,56.0357029044876,40.11234224026316,158.02847844613325,126.01587201618692,91.5,78.0,72.0,35.0,83.0,48.0,20.0,19.1049731745428,18.110770276274835,18.0,62.0,73.0,54.147945482723536,355.8791929854849,359.67346301888887,354.4079570212836,340.28811322172277
269,40,277,0,9.242566666666647,65.00769185258002,179.0446871593793,16.0312195418814,34.0147027033899,49.01020301937138,55.036351623268054,40.049968789001575,155.0290295396317,121.01652779682617,88.5,74.0,70.0,32.0,83.0,47.0,18.0,19.1049731745428,17.029386365926403,17.5,60.0,72.0,53.23532661682466,358.8035674293108,362.6086044207997,356.4056677439347,341.287269027135
270,40,278,0,9.275933333333317,71.00704190430693,174.0258601472781,19.0,35.05709628591621,49.01020301937138,57.0087712549569,36.22154055254967,161.07762104029226,126.03570922560003,90.5,76.0,73.0,38.5,86.5,49.5,21.5,19.1049731745428,18.027756377319946,18.5,59.0,72.0,56.08029957123981,357.26180876214573,361.86461556775623,356.4547657136877,342.2469868384527
271,40,279,0,9.30929999999998,72.02777242147643,175.0114281982751,16.0312195418814,36.013886210738214,49.01020301937138,57.0,37.05401462729781,161.01242188104618,125.00399993600205,89.0,72.0,70.0,34.0,90.0,51.0,20.0,18.110770276274835,16.0312195418814,17.0,57.0,68.0,53.08483775994799,357.94552658190884,362.55206522649956,357.23661626434654,343.09328177625395
272,40,280,0,9.342666666666648,68.00735254367721,178.02527910383964,16.0,33.06055050963308,49.040799340956916,56.00892785976178,39.11521443121589,156.05127362504928,123.01625908797584,89.0,71.0,68.0,30.5,86.5,50.5,17.5,19.1049731745428,17.029386365926403,18.0,58.0,71.0,55.14526271584895,358.8035674293108,364.44478319767455,359.2005011132362,345.09274115808347
273,40,281,0,9.376033333333313,61.0,178.07021087200408,17.0,33.06055050963308,50.039984012787215,57.0350769263968,37.21558813185679,148.12157169028418,115.06954418958998,84.5,70.0,65.0,30.5,80.5,44.5,16.5,19.1049731745428,18.027756377319946,18.0,57.0,71.0,55.14526271584895,361.01108016236844,365.60361048545457,359.3563690822802,349.20624278497655
274,40,282,0,9.409399999999978,57.0087712549569,185.06755523321746,16.0312195418814,33.015148038438355,51.03920062069938,59.07622195096772,38.118237105091836,144.05554484295286,111.04053313993049,82.5,67.0,62.0,26.5,79.5,43.5,13.5,10.198039027185569,9.0,9.0,57.0,72.0,57.21887800367987,360.0902664610639,367.6588092239869,363.39785359850435,353.27751131369797
275,40,283,0,9.442766666666644,58.008620049092706,189.21416437465774,16.0312195418814,34.0147027033899,51.088159097779204,58.137767414994535,35.12833614050059,143.05593311708537,109.04127658827184,80.0,65.0,56.0,25.5,82.5,46.5,12.5,8.54400374531753,9.055385138137417,8.5,56.0,71.0,54.45181356024793,359.67346301888887,367.4914965002592,364.2691312752153,354.2386201418473
276,40,284,0,9.47613333333331,61.00819617067857,188.09572031282372,17.0,34.0147027033899,51.03920062069938,58.077534382926416,35.014282800023196,147.00340132119393,113.0,82.5,65.0,59.0,27.0,85.0,49.0,13.0,6.708203932499369,7.0,7.0,55.0,71.0,55.44366510251645,361.35439668004597,369.1950703896248,366.1365865356807,357.06862085599175
277,40,285,0,9.509499999999976,67.02984409947557,185.09727172489605,16.0312195418814,33.015148038438355,50.08991914547278,58.077534382926416,35.0,151.0,118.00423721205946,84.5,66.0,60.0,28.0,88.0,53.0,16.0,6.708203932499369,6.082762530298219,6.5,57.0,71.0,54.45181356024793,360.2721193764513,366.1365865356807,365.0342449688796,354.00564967243105
278,40,286,0,9.542866666666642,67.02984409947557,185.06755523321746,17.0,33.015148038438355,51.03920062069938,59.07622195096772,36.013886210738214,153.0,120.00416659433121,86.5,69.0,64.0,30.5,86.5,50.5,16.5,8.54400374531753,8.06225774829855,8.0,58.0,72.0,54.3323108288245,361.4484748895754,369.34672057566723,366.1966684720111,355.1408171415953
279,40,287,0,9.576233333333308,63.00793600809346,182.04395073717774,18.0,37.0,49.040799340956916,57.0350769263968,37.013511046643494,155.0,118.0,86.5,67.0,63.0,28.0,90.0,49.0,13.0,10.198039027185569,10.0,10.0,59.0,73.0,51.478150704935004,362.3106401970552,367.2301730522698,363.1115531073061,351.05127830560593
280,40,288,0,9.609599999999974,64.00781202322104,182.04395073717774,16.0,34.0,49.040799340956916,56.0357029044876,37.12142238654117,151.0132444522665,117.01709276853532,85.0,65.0,61.0,26.0,88.0,51.0,13.0,13.152946437965905,14.0,14.0,59.0,73.0,53.150729063673246,359.3563690822802,365.19720699917735,363.1115531073061,352.05113264978996
281,40,289,0,9.64296666666664,59.0,180.02499826412998,17.0,35.0,49.01020301937138,56.00892785976178,36.05551275463989,147.0136048126159,112.01785571952357,82.5,64.0,61.0,26.5,84.5,46.5,12.5,16.1245154965971,17.0,17.0,59.0,73.0,53.33854141237835,362.2333502039811,365.08766070630213,361.03462437832746,350.0057142390678
282,40,290,0,9.676333333333304,61.00819617067857,177.01129907438113,17.0,33.0,49.040799340956916,56.0,37.05401462729781,148.00337833982033,115.00434774390054,84.5,65.0,63.0,27.0,84.0,47.0,13.0,17.11724276862369,18.0,18.0,63.0,75.0,56.22277118748239,360.1999444752872,365.0671171168392,361.01246515875323,348.0014367786432
283,40,291,0,9.709699999999971,63.00793600809346,177.01129907438113,17.0,33.015148038438355,49.040799340956916,56.00892785976178,35.014282800023196,148.00337833982033,115.0,83.5,64.0,62.0,28.0,85.0,48.0,14.0,19.1049731745428,19.026297590440446,19.0,63.0,75.0,56.32051136131489,359.02228343098704,364.0,360.0055555126893,347.02305398921266
284,40,292,0,9.743066666666635,67.00746227100382,177.01129907438113,17.0,34.0,49.040799340956916,57.0,35.0,153.00326793895613,119.00420160649792,85.5,64.0,62.0,28.0,90.0,52.0,14.0,20.09975124224178,19.026297590440446,19.5,64.0,75.0,58.309518948453004,359.03481725314606,364.0054944640259,360.0055555126893,346.0231206147936
285,40,293,0,9.776433333333305,76.02631123499285,178.01123560045303,16.0,34.0,47.042533945356304,56.00892785976178,35.014282800023196,161.00310556011024,127.00393694685216,89.0,66.0,64.0,30.0,96.0,58.0,17.0,20.09975124224178,20.024984394500787,20.5,62.0,76.0,57.21887800367987,358.0893743187586,362.03452874000845,359.0055709874152,346.0014450836875
286,40,294,0,9.809799999999967,82.05485969764375,176.00284088616297,15.0,36.0,50.00999900019995,58.008620049092706,34.0,167.0269439342048,131.03434664239754,90.0,65.0,64.0,30.5,102.5,62.5,17.5,18.027756377319946,18.0,18.5,60.0,75.0,58.42088667591412,359.02228343098704,365.0013698604431,360.0055555126893,344.0363352903295
287,40,295,0,9.843166666666637,86.02325267042627,179.00279327429502,15.0,36.0,49.01020301937138,57.0,33.015148038438355,170.02646852769718,134.03357788255897,91.0,65.0,64.0,31.5,105.5,64.5,18.5,18.027756377319946,19.026297590440446,19.5,60.0,75.0,58.42088667591412,360.04999652825995,364.0054944640259,359.0055709874152,343.02332282222443
288,40,296,0,9.8765333333333,81.02468759581859,178.0,15.0,35.0,46.010868281309364,54.0,35.0,166.01204775557707,131.01526628603247,90.5,63.0,63.0,28.0,103.0,64.0,15.0,21.095023109728988,21.0,21.0,61.0,75.0,57.706152185014034,356.14042174400817,362.067673232505,359.01253460011674,345.00144927231827
289,40,297,0,9.909899999999968,83.02409288875127,181.0,14.035668847618199,33.0,47.01063709417264,55.0,34.0147027033899,164.01219466856725,131.01526628603247,89.5,61.0,61.0,27.0,103.0,65.0,15.0,19.026297590440446,21.0,21.0,62.0,76.0,57.42821606144492,357.01260481949373,364.0054944640259,360.0013888862097,346.0057802985378
290,40,298,0,9.943266666666633,66.007575322837,182.00274723201295,15.0,37.013511046643494,48.0,56.0,34.0147027033899,152.00328943809077,115.0,82.0,58.0,59.0,24.5,93.5,52.5,11.5,20.024984394500787,21.0,21.5,61.0,74.0,59.413803110051795,356.02247120090607,362.0013812128346,357.01260481949373,343.05247412021384
291,40,299,0,9.976633333333298,57.0,182.00274723201295,16.0312195418814,36.0,50.00999900019995,57.0087712549569,35.014282800023196,144.0,108.0,79.5,59.0,58.0,23.5,85.5,45.5,10.5,19.026297590440446,19.0,19.0,61.0,73.0,57.42821606144492,357.0504166080751,361.0,357.03501228871096,345.0710071854777
292,40,300,0,10.009999999999964,48.0,180.06943105369106,17.0,37.0,47.095647357266465,54.08326913195984,34.0,136.0,99.0,75.0,61.0,56.0,24.5,77.5,37.5,10.5,21.02379604162864,20.0,20.5,61.0,74.0,58.309518948453004,356.0351106281514,361.0,355.0126758300329,342.0526275297414
293,40,301,0,10.04336666666663,43.01162633521314,182.0988742414406,17.0,36.0,49.040799340956916,55.08175741568164,33.0,129.00387591076478,93.00537618869137,71.5,61.0,55.0,25.0,71.0,34.0,11.0,19.026297590440446,19.0,19.5,60.0,72.0,58.42088667591412,358.00558654859003,360.0013888862097,353.0,338.0014792867037
294,40,302,0,10.076733333333296,42.04759208325728,182.04395073717774,17.0,37.0,49.01020301937138,55.036351623268054,33.015148038438355,129.00387591076478,92.00543462209176,71.0,61.0,57.0,26.0,70.0,31.0,11.0,18.027756377319946,19.0,19.5,61.0,74.0,57.42821606144492,357.0224082603219,360.01249978299364,353.00141642775316,338.0014792867037
295,40,303,0,10.110099999999962,45.0111097397076,178.04493814764857,19.0,37.013511046643494,49.040799340956916,56.0357029044876,31.016124838541646,132.00378782444085,95.0,72.5,65.0,61.0,32.0,69.0,30.0,15.0,19.1049731745428,20.0,20.5,61.0,74.0,59.30430001273095,359.01253460011674,361.01246515875323,354.0,339.00589965367857
296,40,304,0,10.143466666666628,43.01162633521314,171.0263137648707,20.0,38.0,47.01063709417264,53.009433122794285,31.016124838541646,132.0,94.0,72.5,66.0,63.0,33.5,67.5,26.5,15.5,21.02379604162864,20.0,20.5,62.0,76.0,59.413803110051795,359.02228343098704,362.00552481971874,352.00568177232594,336.0238086802779
297,40,305,0,10.176833333333294,46.0,170.0470523119998,19.0,40.0,47.042533945356304,53.009433122794285,31.016124838541646,136.0036764208968,96.00520819205592,73.0,68.0,64.0,35.0,70.0,27.0,18.0,20.024984394500787,20.024984394500787,20.5,62.0,75.0,59.30430001273095,358.03491449857233,362.0220987729893,353.0056656769123,337.0014836762592
298,40,306,0,10.21019999999996,50.0,169.0266251216062,18.0,38.0,47.042533945356304,54.00925846556311,33.0,139.0,101.0,76.0,69.0,66.0,34.5,71.5,30.5,18.5,22.0,22.02271554554524,22.0,62.0,75.0,60.207972893961475,356.02247120090607,360.01249978299364,352.00568177232594,336.0014880919428
299,40,307,0,10.243566666666624,57.0,165.00303027520434,17.0,38.0,45.044422518220834,52.03844732503075,35.014282800023196,147.00340132119393,109.00458705944443,80.5,71.0,70.0,35.5,76.5,35.5,20.5,21.02379604162864,21.02379604162864,21.5,63.0,76.0,64.38167441127949,358.0125696117386,362.0013812128346,353.0,333.0015014981164
300,40,308,0,10.276933333333291,58.034472514187634,161.00310556011024,18.0,37.0,45.0111097397076,52.03844732503075,34.0147027033899,147.03060905811415,110.04090148667449,81.0,71.0,72.0,37.5,75.5,35.5,21.5,21.02379604162864,21.0,21.5,64.0,76.0,62.39390995922599,355.09012940378955,360.04999652825995,351.0056979594491,333.0015014981164
301,40,309,0,10.310299999999955,61.032778078668514,162.01234520862909,18.0,38.0,46.0,52.009614495783374,35.0,152.0131573252789,114.0175425099138,83.5,72.0,74.0,38.0,79.0,38.0,21.0,18.027756377319946,18.027756377319946,18.5,65.0,76.0,61.204574992397426,355.1140661815581,360.0347205478938,350.0057142390678,332.0
302,40,310,0,10.343666666666625,64.00781202322104,165.00303027520434,18.0,37.0,47.0,53.0,35.05709628591621,154.02921800749363,117.03845521878696,85.0,74.0,75.0,39.5,79.5,39.5,22.5,10.04987562112089,10.04987562112089,10.5,64.0,75.0,59.21148537234985,355.45604510262586,358.2010608582839,348.09194187742986,330.0242415338607
303,40,311,0,10.377033333333287,65.03076195155643,164.0,18.0,38.0,45.0,53.009433122794285,34.0147027033899,155.0290295396317,117.03845521878696,84.5,72.0,72.0,38.0,83.0,42.0,21.0,7.280109889280518,7.0710678118654755,7.5,61.0,72.0,57.21887800367987,352.4599268001967,357.23661626434654,348.09194187742986,330.07423407470026
304,40,312,0,10.410399999999957,62.00806399170998,162.0,18.0,37.0,45.0111097397076,52.009614495783374,37.013511046643494,154.01298646542764,117.01709276853532,86.0,73.0,73.0,36.0,81.0,41.0,20.0,9.219544457292887,10.04987562112089,9.5,62.0,72.0,56.32051136131489,352.4102722679916,355.27594908746636,345.14489710844634,326.1242094662707
305,40,313,0,10.44376666666662,50.039984012787215,155.00322577288512,17.0,36.0,43.0,49.01020301937138,40.01249804748511,143.0314650697531,107.0420478129973,82.0,72.0,73.0,32.5,70.5,32.5,16.5,14.142135623730951,12.0,12.5,60.0,70.0,57.3149195236284,350.3212811120672,352.20448605888026,340.0941046239996,323.0758424890354
306,40,314,0,10.477133333333288,27.16615541441225,150.0133327407934,19.0,34.0,40.0,46.0,46.010868281309364,126.0634760745554,92.0869154657707,78.5,69.0,71.0,24.0,56.0,19.0,7.0,14.142135623730951,13.0,13.5,60.0,71.0,60.29925372672534,344.17582715815473,348.1436485130815,338.11980125393427,321.0763149159402
307,40,315,0,10.510499999999952,10.198039027185569,152.0131573252789,19.0,32.0,40.0,44.0,49.01020301937138,110.00454536063498,78.00640999302557,73.0,65.0,67.0,17.0,44.0,10.0,0.0,18.110770276274835,16.0312195418814,16.5,58.0,70.0,57.42821606144492,342.47335662792807,346.41737831696605,336.29154018500077,321.18841822207725
308,40,316,0,10.543866666666618,3.605551275463989,149.01342221424215,21.0,34.0147027033899,38.0,43.0,47.0,105.00476179678711,71.02816342831905,69.5,64.0,66.0,18.0,40.0,4.0,1.0,18.027756377319946,18.027756377319946,18.0,57.0,71.0,58.54912467321779,340.47613719613304,345.418586645247,337.3336627139367,320.2639536382451
309,40,317,0,10.577233333333284,6.324555320336759,152.00328943809077,21.0,35.014282800023196,39.01281840626232,43.0,46.0,108.00462953040486,73.02739212103907,70.0,64.0,63.0,17.5,44.5,7.5,1.5,18.110770276274835,17.029386365926403,18.0,55.0,71.0,59.841457201508724,339.532030889576,344.52430973735363,336.48179742743883,321.39850653044425
310,40,318,0,10.61059999999995,15.132745950421556,156.02884348735012,21.0,35.014282800023196,43.01162633521314,48.010415536631214,43.01162633521314,114.0,79.00632886041473,71.5,63.0,60.0,18.5,52.5,15.5,0.5,18.110770276274835,16.0312195418814,16.5,49.0,67.0,55.731499172371095,340.3248448174185,344.223764432382,336.0074403938103,321.895945920417
311,40,319,0,10.643966666666616,18.110770276274835,155.00322577288512,20.0,37.013511046643494,43.0,48.010415536631214,42.04759208325728,117.00427342623003,80.0,71.0,62.0,61.0,19.5,55.5,16.5,1.5,18.110770276274835,16.0312195418814,16.5,47.0,66.0,56.089214649520635,339.60712595586097,345.39397794402845,337.08307581366347,323.81785003300854
312,40,320,0,10.677333333333282,18.24828759089466,154.00324671902212,20.024984394500787,35.014282800023196,43.0,48.010415536631214,41.012193308819754,114.0,79.00632886041473,70.0,62.0,61.0,20.5,52.5,14.5,2.5,18.110770276274835,16.1245154965971,16.5,48.0,69.0,57.87054518492115,339.91175325369375,345.878591416121,337.7158568974812,324.39019713918606
313,40,321,0,10.710699999999948,14.142135623730951,148.00337833982033,21.0,37.013511046643494,41.0,46.0,41.0,113.00442469213318,76.02631123499285,69.0,61.0,60.0,19.5,52.5,12.5,0.5,17.11724276862369,16.0312195418814,17.0,47.0,68.0,54.91812087098393,340.3586343843799,346.2036972650639,337.8179983363823,323.488794241779
314,40,322,0,10.744066666666614,10.44030650891055,148.03040228277433,23.021728866442675,38.01315561749642,40.0,45.0111097397076,44.01136216933077,115.0,77.00649323271382,72.0,63.0,60.0,17.5,53.5,12.5,3.5,18.110770276274835,16.1245154965971,17.0,50.0,72.0,56.88585061331157,340.72422866594036,347.5471191076111,339.1356660689052,323.7900554371613
315,40,323,0,10.77743333333328,11.045361017187261,147.05441169852742,22.0,37.013511046643494,40.0,44.01136216933077,44.10215414239989,114.03946685248927,77.02596964660685,71.5,63.0,59.0,17.0,53.0,14.0,3.0,17.26267650163207,17.11724276862369,17.5,51.0,72.0,57.87054518492115,342.58429619584143,349.53254497972,341.1231449198368,325.0
316,40,324,0,10.810799999999944,21.02379604162864,153.11760186209813,22.02271554554524,38.01315561749642,42.01190307520001,46.010868281309364,43.04648650006177,124.03628501370073,86.02325267042627,75.5,65.0,59.0,19.0,62.0,22.0,0.0,19.1049731745428,17.029386365926403,17.5,52.0,73.0,57.706152185014034,341.4703501037828,350.2913073429028,341.0131962256006,325.6762195801222
317,40,325,0,10.844166666666611,34.058772731852805,160.15305179733542,22.02271554554524,38.05259518088089,45.044422518220834,51.088159097779204,39.01281840626232,133.01503674397117,95.0,78.0,67.0,60.0,24.5,69.5,29.5,5.5,18.24828759089466,16.1245154965971,17.0,53.0,74.0,60.530983801686226,343.95639258487404,351.0270644836378,343.57677453518306,328.3245345690754
318,40,326,0,10.877533333333275,43.01162633521314,164.19500601419034,20.024984394500787,36.05551275463989,46.04345773288535,52.15361924162119,38.0,137.01459776242822,101.0,79.5,68.0,60.0,26.0,73.0,35.0,9.0,19.235384061671343,18.027756377319946,18.0,53.0,73.0,57.42821606144492,346.80253747629934,352.8809997718778,345.8106418258409,330.67809120049066
319,40,327,0,10.910899999999945,41.0,168.2973558912914,21.0,37.013511046643494,46.04345773288535,52.15361924162119,37.05401462729781,136.03308421115798,99.02019995940222,78.5,66.0,56.0,24.0,75.0,37.0,6.0,19.1049731745428,18.027756377319946,18.5,54.0,75.0,58.42088667591412,346.3177731506138,353.50388965328233,347.5471191076111,333.4081582685103
320,40,328,0,10.944266666666609,44.04543109109048,174.28711943227475,20.024984394500787,35.05709628591621,46.09772228646444,53.150729063673246,37.013511046643494,136.01470508735443,101.0,79.0,64.0,54.0,22.0,77.0,40.0,6.0,19.235384061671343,17.029386365926403,18.0,55.0,74.0,62.51399843235114,348.1910395171019,356.36638449775256,350.1785258978626,336.2692373679162
321,40,329,0,10.977633333333277,37.0,175.34537347760278,21.02379604162864,36.013886210738214,47.095647357266465,52.23983154643591,37.013511046643494,131.03434664239754,95.02105029939419,76.5,63.0,52.0,20.5,73.5,35.5,3.5,18.24828759089466,17.029386365926403,17.5,53.0,74.0,62.39390995922599,348.4207226902556,357.59474269066095,352.5109927363968,338.61482542853906
322,40,330,0,11.01099999999994,31.0,182.33211456021672,21.02379604162864,35.05709628591621,48.093658625644196,54.147945482723536,38.05259518088089,125.09996003196804,90.0499861188218,74.5,60.0,49.0,16.5,70.5,33.5,0.5,13.341664064126334,13.0,13.5,54.0,74.0,58.54912467321779,354.37973982720854,362.6789213615812,358.70879554312575,345.6848275524976
323,40,331,0,11.044366666666606,29.017236257093817,185.4561942885705,21.02379604162864,37.05401462729781,48.093658625644196,53.23532661682466,37.05401462729781,124.14507642270796,87.09190547921202,72.5,60.0,47.0,16.5,70.5,31.5,0.5,5.830951894845301,6.0,6.5,54.0,73.0,62.289646009589745,353.0509878190401,363.4350010662154,359.4620981410975,348.30446451344835
324,40,332,0,11.077733333333272,33.0,188.4489320744482,21.095023109728988,37.05401462729781,49.16299421312742,55.226805085936306,36.013886210738214,127.09838708654017,90.0499861188218,73.5,59.0,46.0,16.5,74.5,36.5,0.5,6.708203932499369,6.0,6.0,54.0,75.0,63.387695966961914,356.36638449775256,365.4216742340279,361.33364083627754,350.06856471268594
325,40,333,0,11.111099999999938,36.0,188.52055590836773,20.09975124224178,38.118237105091836,49.16299421312742,56.22277118748239,38.01315561749642,132.13629327327143,94.04786015641186,76.0,63.0,49.0,18.0,76.0,37.0,2.0,7.615773105863909,6.0,6.5,55.0,74.0,64.38167441127949,356.6020190632689,367.76351096866586,364.66422912043345,353.50388965328233
326,40,334,0,11.144466666666604,41.0,186.3249849054066,21.02379604162864,37.12142238654117,51.088159097779204,57.21887800367987,37.12142238654117,136.1800279042415,99.08077512817509,78.5,64.0,53.0,21.5,77.5,38.5,5.5,10.44030650891055,10.0,10.5,56.0,77.0,64.38167441127949,360.69377593742865,371.11723215178245,366.8950803703969,353.872858524075
327,40,335,0,11.17783333333327,53.0,187.6006396577581,20.09975124224178,39.11521443121589,51.15662224971465,59.30430001273095,37.013511046643494,149.12075643584967,110.04090148667449,83.5,70.0,55.0,25.5,86.5,46.5,10.5,13.341664064126334,12.0,12.5,55.0,77.0,60.67124524847005,361.6863281906022,371.9811823197512,366.0300534109187,352.8809997718778
328,40,336,0,11.211199999999936,67.00746227100382,183.46116755324545,19.026297590440446,38.05259518088089,52.08646657242167,60.13318551349163,39.05124837953327,163.04907236779974,125.01599897613104,91.5,77.0,64.0,31.5,92.5,52.5,16.5,16.278820596099706,14.035668847618199,15.0,57.0,78.0,60.530983801686226,364.17715469260287,371.9811823197512,365.65694304908254,349.4137948049561
329,40,337,0,11.244566666666602,67.00746227100382,184.39088914585776,19.026297590440446,37.12142238654117,51.15662224971465,59.21148537234985,37.05401462729781,160.0781059358212,123.01625908797584,89.5,74.0,62.0,31.0,92.0,53.0,16.0,18.24828759089466,17.11724276862369,16.5,57.0,78.0,65.76473218982953,363.67155511532656,373.1005226477176,369.1341219665286,354.8647629731642
330,40,338,0,11.277933333333268,57.0,189.44656238633627,20.024984394500787,36.05551275463989,52.15361924162119,59.135437767890075,37.013511046643494,150.05332385522155,114.0175425099138,85.5,72.0,59.0,28.5,84.5,46.5,12.5,20.223748416156685,18.110770276274835,18.0,58.0,78.0,66.75327707311455,367.18523935474315,376.24061450088027,371.3825520941984,357.359762704197
331,40,339,0,11.311299999999934,46.0,192.37463450257678,21.02379604162864,37.12142238654117,53.150729063673246,60.207972893961475,37.0,141.05672617780408,104.00480758118829,81.0,68.0,56.0,25.0,79.0,40.0,9.0,19.235384061671343,18.110770276274835,18.0,56.0,77.0,67.08203932499369,370.95147930693037,379.1160772111887,374.1443571671234,362.2154055254967
332,40,340,0,11.3446666666666,42.0,193.31321734428818,21.02379604162864,37.05401462729781,53.150729063673246,58.215118311311535,38.01315561749642,138.05795884337854,101.01980003939822,80.0,66.0,55.0,22.5,77.5,38.5,6.5,19.1049731745428,18.027756377319946,18.0,59.0,77.0,63.788713735268246,367.96738985948195,379.0118731649445,375.9255245391034,364.7807560713695
333,40,341,0,11.378033333333263,47.0,193.31321734428818,21.02379604162864,37.05401462729781,52.15361924162119,58.137767414994535,38.0,143.0314650697531,106.00471687618433,82.5,67.0,56.0,23.5,81.5,42.5,7.5,20.223748416156685,19.1049731745428,19.0,60.0,79.0,67.89698078707183,369.7566767483719,380.9002494092121,376.82091237085024,364.6834243559748
