,video_id,frame_seq,gap,time_seconds,m1,m3,m4,m5,m6,m7,m8,m9,m10,m11,m12,m13,m14,m15,m16,m17,e1,e2,e3,b1,b2,b3,m_0_16,m_1_15,m_2_14,m_3_13
0,21,0,0,0.0,1.0,30.0,4.0,5.0,9.0,10.0,6.0,16.0,11.0,10.5,11.0,11.0,5.0,5.0,1.0,1.0,5.0990195135927845,5.0,5.5,13.0,13.0,15.0,81.02468759581859,79.02531240052139,74.02702209328699,70.00714249274856
1,21,1,0,0.0333666666666666,0.0,29.0,5.0,6.082762530298219,9.055385138137417,9.0,5.0,16.0312195418814,10.0,10.0,11.0,11.0,6.0,5.0,1.0,1.0,6.0,6.082762530298219,6.0,13.0,15.0,14.035668847618199,80.00624975587844,79.02531240052139,74.02702209328699,70.00714249274856
2,21,2,0,0.0667333333333332,0.0,30.0,5.0,6.0,9.0,10.0,5.0,16.0,10.0,10.0,11.0,11.0,6.0,5.0,1.0,2.0,6.082762530298219,6.082762530298219,6.0,12.0,14.0,14.0,80.00624975587844,78.00640999302557,75.02666192761077,71.00704190430693
3,21,3,0,0.1000999999999998,0.0,30.0,5.0,6.0,9.0,10.0,5.0,16.0,10.0,10.0,11.0,11.0,6.0,5.0,2.0,2.0,6.082762530298219,6.082762530298219,6.0,13.0,14.0,15.0,81.02468759581859,78.02563681252464,75.02666192761077,70.00714249274856
4,21,4,0,0.1334666666666664,0.0,30.0,5.0,6.082762530298219,9.0,9.055385138137417,5.0990195135927845,16.0,10.04987562112089,10.0,11.0,11.0,6.0,5.0,1.0,2.0,6.0,6.0,5.5,13.0,14.0,14.0,81.00617260431454,79.00632886041473,74.00675644831355,70.0
5,21,5,0,0.166833333333333,0.0,30.01666203960727,5.0,6.0,9.055385138137417,10.0,5.0,16.0,10.0,10.0,11.0,10.0,5.5,5.5,0.5,0.5,6.082762530298219,6.0,6.0,13.0,14.0,13.0,81.00617260431454,79.00632886041473,75.02666192761077,70.00714249274856
6,21,6,0,0.2001999999999996,0.0,30.0,4.0,6.0,9.0,9.0,6.0,16.0,10.0,10.0,11.0,11.0,5.0,5.0,1.0,1.0,6.0,5.0,5.5,13.0,13.0,14.035668847618199,80.02499609497022,79.02531240052139,74.00675644831355,69.00724599634447
7,21,7,0,0.2335666666666662,0.0,30.0,5.0,6.0,10.04987562112089,10.0,5.0,16.0,10.0,10.0,11.0,11.0,6.0,5.0,1.0,1.0,5.0,4.123105625617661,4.5,13.0,14.0,14.0,81.00617260431454,78.00640999302557,74.00675644831355,71.00704190430693
8,21,8,0,0.2669333333333328,0.0,30.01666203960727,5.0,6.0,9.055385138137417,10.0,5.0,16.0,10.0,10.0,11.0,10.0,5.5,5.5,0.5,0.5,3.0,2.0,2.0,14.0,15.0,14.0,81.00617260431454,79.00632886041473,75.0066663703967,70.00714249274856
9,21,9,0,0.3002999999999994,0.0,29.0,5.0,6.0,9.0,10.0,5.0,16.0,10.0,10.0,10.0,10.0,5.0,6.0,0.0,0.0,2.0,3.0,3.0,14.0,15.0,14.0,81.00617260431454,79.00632886041473,75.0066663703967,70.00714249274856
10,21,10,0,0.333666666666666,0.0,30.01666203960727,5.0,6.0,10.0,10.0,5.0,16.0,10.0,10.0,11.0,10.0,5.5,5.5,0.5,1.5,3.0,2.0,2.0,14.0,15.0,15.0,81.00617260431454,78.00640999302557,75.0066663703967,71.00704190430693
11,21,11,0,0.3670333333333326,1.4142135623730951,30.0,4.0,6.082762530298219,9.0,11.0,6.0,17.0,11.045361017187261,10.5,11.0,11.0,5.0,6.0,1.0,1.0,3.0,3.0,3.0,13.0,15.0,15.0,81.05553651663777,78.02563681252464,75.02666192761077,71.02816342831905
12,21,12,0,0.4003999999999992,1.0,29.0,4.0,5.0,10.0,10.0,6.0,16.0,11.0,10.5,11.0,11.0,5.0,5.0,1.0,1.0,3.0,3.0,3.0,13.0,15.0,15.033296378372908,81.00617260431454,79.02531240052139,75.02666192761077,70.02856560004639
13,21,13,0,0.4337666666666658,1.0,30.01666203960727,4.0,5.0,9.0,10.0,6.0,16.0,11.0,10.5,11.0,10.0,4.5,5.5,0.5,0.5,4.123105625617661,4.0,4.0,13.0,14.0,15.0,81.02468759581859,78.02563681252464,74.02702209328699,70.00714249274856
14,21,14,0,0.4671333333333324,0.0,29.0,5.0,6.0,9.0,9.0,5.0,16.0,10.0,10.0,10.0,10.0,5.0,6.0,0.0,1.0,4.123105625617661,4.0,4.5,13.0,14.0,15.0,81.02468759581859,79.02531240052139,74.02702209328699,69.02897942168927
15,21,15,0,0.5004999999999991,1.0,31.0,4.0,6.0,10.0,10.0,5.0,16.0,10.0,9.5,10.0,10.0,5.0,6.0,0.0,1.0,5.0,5.0,5.0,13.0,15.0,15.0,82.02438661763951,79.02531240052139,74.06078584514209,71.02816342831905
16,21,16,0,0.5338666666666656,1.0,30.01666203960727,4.0,5.0,10.0,10.0,6.0,16.0,11.0,10.5,11.0,10.0,4.5,5.5,0.5,0.5,5.0,5.0990195135927845,5.0,12.0,14.0,16.0,81.05553651663777,78.05767098754612,74.06078584514209,70.06425622241343
17,21,17,0,0.5672333333333321,0.0,30.01666203960727,5.0,6.0,9.0,10.0,5.0,16.0,10.0,10.0,11.0,10.0,5.5,5.5,0.5,1.5,5.0,5.0,5.0,13.0,15.0,15.033296378372908,80.05623023850174,78.02563681252464,74.06078584514209,70.06425622241343
18,21,18,0,0.6005999999999987,0.0,30.01666203960727,5.0,6.0,10.04987562112089,10.0,5.0,16.0,10.0,10.0,11.0,10.0,5.5,5.5,0.5,0.5,5.0,5.0990195135927845,5.0,13.0,15.0,15.033296378372908,81.05553651663777,78.02563681252464,74.06078584514209,70.02856560004639
19,21,19,0,0.6339666666666652,1.0,30.01666203960727,5.0,5.0,10.0,10.0,5.0,16.0,11.0,10.5,11.0,10.0,5.5,5.5,0.5,1.5,5.0,5.0,5.0,13.0,15.0,15.033296378372908,81.05553651663777,79.02531240052139,75.05997601918082,70.06425622241343
20,21,20,0,0.6673333333333318,0.0,30.01666203960727,5.0,6.082762530298219,9.0,9.0,5.0,16.0312195418814,10.0,10.0,11.0,10.0,5.5,5.5,0.5,0.5,5.0990195135927845,5.0,5.0,13.0,14.0,15.0,80.02499609497022,78.02563681252464,75.0066663703967,70.00714249274856
21,21,21,0,0.7006999999999983,0.0,30.01666203960727,5.0,6.0,9.055385138137417,10.0,5.0,16.0,10.0,10.0,11.0,10.0,5.5,5.5,0.5,0.5,5.0990195135927845,5.0,5.0,13.0,14.0,15.033296378372908,81.02468759581859,78.02563681252464,75.02666192761077,70.02856560004639
22,21,22,0,0.7340666666666649,0.0,29.017236257093817,5.0,6.0,9.0,9.0,5.0,16.0,10.0,10.0,11.0,10.0,5.5,5.5,0.5,1.5,6.082762530298219,5.0,5.0,13.0,14.0,15.0,80.02499609497022,78.02563681252464,75.02666192761077,70.02856560004639
23,21,23,0,0.7674333333333314,0.0,30.01666203960727,5.0,6.0,9.0,10.0,5.0,16.0,10.0,10.0,11.0,10.0,5.5,5.5,0.5,1.5,6.082762530298219,5.0990195135927845,5.0,13.0,14.0,14.0,81.02468759581859,78.02563681252464,75.05997601918082,70.06425622241343
24,21,24,0,0.800799999999998,0.0,30.01666203960727,4.0,6.0,10.0,10.0,6.0,16.0,10.0,10.0,11.0,10.0,4.5,5.5,0.5,1.5,6.082762530298219,6.082762530298219,6.0,13.0,14.0,15.0,80.02499609497022,78.05767098754612,75.05997601918082,70.02856560004639
25,21,25,0,0.8341666666666645,0.0,31.016124838541646,5.0,6.0,9.0,9.0,5.0,16.0,10.0,10.0,11.0,10.0,5.5,5.5,0.5,1.5,6.082762530298219,5.0,5.5,13.0,14.0,15.0,80.00624975587844,78.02563681252464,74.00675644831355,69.00724599634447
26,21,26,0,0.867533333333331,0.0,30.01666203960727,5.0,6.0,9.0,9.0,5.0,16.0,10.0,10.0,11.0,10.0,5.5,5.5,0.5,1.5,6.082762530298219,5.0,5.5,13.0,14.0,15.0,81.02468759581859,79.02531240052139,74.02702209328699,71.02816342831905
27,21,27,0,0.9008999999999976,0.0,30.01666203960727,5.0,5.0,9.0,9.0,5.0,15.0,10.0,10.0,11.0,10.0,5.5,4.5,0.5,1.5,6.0,5.0990195135927845,5.5,14.0,15.0,15.0,81.02468759581859,79.05694150420949,74.06078584514209,70.11419257183242
28,21,28,0,0.934266666666664,0.0,30.0,5.0,6.0,9.0,9.0,5.0,16.0,10.0,10.0,10.0,10.0,5.0,6.0,0.0,1.0,6.0,5.0,5.5,13.0,15.0,15.0,80.02499609497022,79.02531240052139,74.02702209328699,70.02856560004639
29,21,29,0,0.9676333333333308,0.0,30.01666203960727,5.0,6.0,9.0,9.0,5.0,16.0,10.0,10.0,11.0,10.0,5.5,5.5,0.5,1.5,6.0,5.0,5.5,13.0,15.0,15.0,81.02468759581859,79.05694150420949,74.02702209328699,71.02816342831905
30,21,30,0,1.0009999999999972,0.0,29.017236257093817,5.0,6.0,9.0,9.0,5.0,16.0,10.0,10.0,11.0,10.0,5.5,5.5,0.5,1.5,6.0,5.0,5.5,13.0,14.0,15.0,80.02499609497022,79.02531240052139,74.02702209328699,70.02856560004639
31,21,31,0,1.0343666666666638,1.0,30.01666203960727,5.0,6.0,9.0,9.0,5.0990195135927845,16.0,10.0,10.0,11.0,10.0,5.5,5.5,0.5,1.5,6.0,6.082762530298219,6.0,13.0,14.0,15.0,80.02499609497022,78.05767098754612,75.02666192761077,70.02856560004639
32,21,32,0,1.0677333333333303,1.0,30.01666203960727,5.0990195135927845,5.0,9.0,9.0,5.0,15.0,10.0,10.0,11.0,10.0,5.5,4.5,1.5,1.5,6.0,6.082762530298219,6.0,13.0,14.0,14.0,80.02499609497022,78.02563681252464,74.02702209328699,70.06425622241343
33,21,33,0,1.1010999999999969,0.0,30.01666203960727,4.0,6.0,9.0,10.0,6.0,16.0,10.0,10.0,11.0,10.0,4.5,5.5,0.5,1.5,6.0,6.082762530298219,6.0,13.0,14.0,15.0,80.02499609497022,78.02563681252464,74.06078584514209,70.06425622241343
34,21,34,0,1.1344666666666634,1.0,31.016124838541646,5.0,5.0,9.0,9.055385138137417,5.0,16.0,11.0,10.5,11.0,10.0,5.5,5.5,0.5,0.5,6.082762530298219,6.0,5.5,13.0,14.0,14.0,80.02499609497022,78.05767098754612,74.06078584514209,69.06518659932803
35,21,35,0,1.16783333333333,1.0,31.016124838541646,4.0,5.0,9.0,10.0,6.0,16.0,11.0,10.5,11.0,10.0,4.5,5.5,0.5,0.5,6.082762530298219,6.0,6.0,13.0,14.0,15.033296378372908,80.00624975587844,79.02531240052139,74.02702209328699,70.02856560004639
36,21,36,0,1.2011999999999965,1.0,30.01666203960727,4.0,5.0,9.0,10.04987562112089,6.0,16.0,11.0,10.5,11.0,10.0,4.5,5.5,0.5,0.5,6.0,6.0,6.0,13.0,14.0,13.038404810405298,80.00624975587844,78.00640999302557,73.00684899377592,70.02856560004639
37,21,37,0,1.234566666666663,1.0,31.016124838541646,4.0,5.0,9.0,10.0,6.0,16.0,11.0,10.5,11.0,10.0,4.5,5.5,0.5,0.5,6.0,6.082762530298219,6.0,13.0,14.0,15.0,81.00617260431454,78.02563681252464,74.06078584514209,70.02856560004639
38,21,38,0,1.2679333333333296,1.0,30.01666203960727,4.0,5.0,10.0,10.0,6.0,16.0,11.0,10.5,11.0,10.0,4.5,5.5,0.5,0.5,6.0,6.082762530298219,6.0,13.0,14.0,14.0,81.02468759581859,78.02563681252464,74.02702209328699,70.02856560004639
39,21,39,0,1.301299999999996,1.0,30.01666203960727,4.0,5.0,10.0,10.0,6.0,16.0,11.0,10.5,11.0,10.0,4.5,5.5,0.5,0.5,5.0990195135927845,6.082762530298219,6.0,13.0,15.0,14.0,80.02499609497022,78.05767098754612,74.06078584514209,69.02897942168927
40,21,40,0,1.334666666666663,1.0,30.0,4.0,6.0,9.0,10.0,6.0,17.0,11.0,10.5,11.0,11.0,5.0,6.0,0.0,1.0,6.082762530298219,6.082762530298219,5.5,13.0,14.0,14.0,80.02499609497022,79.02531240052139,74.02702209328699,70.02856560004639
41,21,41,0,1.3680333333333292,2.23606797749979,31.016124838541646,4.0,6.082762530298219,9.0,10.0,6.082762530298219,18.027756377319946,12.0,11.0,12.0,11.0,5.5,6.5,0.5,1.5,6.0,5.0,5.5,14.0,14.0,15.0,81.00617260431454,78.00640999302557,75.02666192761077,70.02856560004639
42,21,42,0,1.4013999999999958,5.0990195135927845,30.01666203960727,3.0,5.0990195135927845,9.0,10.0,6.082762530298219,19.026297590440446,14.0,11.5,12.0,11.0,5.5,7.5,1.5,2.5,6.0,6.0,6.0,13.0,14.0,15.0,80.00624975587844,78.05767098754612,74.02702209328699,70.06425622241343
43,21,43,0,1.4347666666666623,4.123105625617661,30.01666203960727,4.0,5.0,9.0,10.0,7.0710678118654755,20.0,15.0,13.0,13.0,12.0,5.5,7.5,1.5,2.5,5.0,5.0,5.0,13.0,14.0,14.0,80.02499609497022,77.02596964660685,74.06078584514209,70.06425622241343
44,21,44,0,1.4681333333333288,6.0,31.0,5.0,6.0,9.0,10.0,5.0,22.0,16.0,13.0,14.0,14.0,9.0,8.0,1.0,4.0,5.0990195135927845,5.0,5.5,13.0,14.0,14.0,80.02499609497022,78.02563681252464,75.05997601918082,70.06425622241343
45,21,45,0,1.5014999999999954,6.082762530298219,30.0,4.0,7.0,9.055385138137417,10.0,6.0,23.021728866442675,16.0312195418814,13.0,15.0,15.0,9.0,8.0,1.0,4.0,6.0,6.0,6.0,13.0,14.0,15.0,81.00617260431454,79.00632886041473,74.02702209328699,70.02856560004639
46,21,46,0,1.534866666666662,6.0,30.0,5.0,6.0,9.055385138137417,10.04987562112089,7.0,24.0,18.0,15.0,17.0,17.0,10.0,7.0,0.0,5.0,5.0,5.0990195135927845,5.0,14.0,14.0,15.0,80.00624975587844,79.02531240052139,76.02631123499285,72.02777242147643
47,21,47,0,1.5682333333333285,8.06225774829855,30.0,5.0,6.0,9.0,9.0,6.082762530298219,25.0,19.0,15.0,18.0,18.0,12.0,7.0,0.0,7.0,5.0,5.0,5.0,14.0,14.0,14.0,81.0,79.0,76.0,72.00694410957877
48,21,48,0,1.601599999999995,9.055385138137417,31.0,4.123105625617661,5.0,9.0,9.0,7.0,25.0,20.0,15.5,19.0,19.0,12.0,6.0,0.0,8.0,5.0,4.0,4.0,12.0,13.0,15.0,82.0,79.00632886041473,76.00657866263946,72.02777242147643
49,21,49,0,1.6349666666666616,9.0,31.016124838541646,5.0,6.0,9.0,10.0,6.0,26.0,20.0,15.5,20.0,19.0,13.5,6.5,0.5,8.5,5.0,5.0,4.5,13.0,14.0,15.0,81.02468759581859,79.05694150420949,76.05918747922567,73.06161783043132
50,21,50,0,1.668333333333328,10.0,32.0624390837628,5.0,5.0990195135927845,9.0,10.0,5.0,25.019992006393608,20.0,15.0,20.0,18.0,14.0,6.0,1.0,9.0,4.0,4.123105625617661,4.5,12.0,14.0,17.11724276862369,80.05623023850174,80.15609770940699,77.10382610480494,72.17340230306452
51,21,51,0,1.7016999999999949,10.0,32.0624390837628,5.0,5.0990195135927845,9.055385138137417,9.055385138137417,6.0,26.019223662515376,21.0,16.0,21.0,19.0,14.0,6.0,1.0,9.0,4.0,4.0,4.5,11.0,15.0,16.0312195418814,81.09870529176159,80.09993757800315,78.10249675906654,73.10950690573696
52,21,52,0,1.7350666666666612,10.0,32.14031735997639,5.0,5.0990195135927845,8.06225774829855,10.0,5.0990195135927845,25.079872407968907,20.024984394500787,15.0,21.0,18.0,14.5,5.5,0.5,9.5,4.123105625617661,4.0,4.0,11.0,16.0,17.029386365926403,82.15229759416349,80.15609770940699,78.23042886243178,73.17103251970687
53,21,53,0,1.7684333333333278,10.0,32.14031735997639,5.0,6.082762530298219,9.055385138137417,10.04987562112089,6.082762530298219,27.073972741361768,21.02379604162864,16.0,22.0,19.0,14.5,6.5,1.5,9.5,4.0,4.123105625617661,4.5,9.0,15.0,16.1245154965971,81.39410298049853,80.39900496896712,77.41446893184762,72.24956747275377
54,21,54,0,1.8017999999999943,10.0,33.24154027718932,6.082762530298219,5.0990195135927845,8.06225774829855,10.04987562112089,5.0990195135927845,26.1725046566048,21.095023109728988,16.0,22.0,18.0,15.0,6.0,2.0,10.0,4.123105625617661,4.0,4.5,9.0,16.0,16.1245154965971,82.60750571225353,80.62257748298549,77.52418977325722,73.43704787094863
55,21,55,0,1.8351666666666608,11.045361017187261,32.38826948140329,5.0,5.0,9.219544457292887,10.198039027185569,6.082762530298219,27.073972741361768,22.090722034374522,16.5,23.0,18.0,14.5,6.5,1.5,10.5,4.123105625617661,3.1622776601683795,3.0,9.0,16.0,16.278820596099706,81.88406438373708,79.90619500389191,76.79192665899195,71.7007670809734
56,21,56,0,1.868533333333328,12.041594578792296,32.55764119219941,4.0,5.0990195135927845,10.198039027185569,11.180339887498949,6.324555320336759,27.294688127912362,22.20360331117452,16.0,23.0,17.0,14.0,7.0,3.0,11.0,3.1622776601683795,2.23606797749979,2.5,8.0,16.0,13.341664064126334,82.03657720797473,79.90619500389191,76.94153624668537,72.69112738154499
57,21,57,0,1.901899999999994,11.0,33.54101966249684,5.0990195135927845,5.0990195135927845,10.198039027185569,11.180339887498949,6.082762530298219,27.16615541441225,22.090722034374522,16.5,23.0,17.0,14.0,7.0,3.0,10.0,2.23606797749979,2.0,2.5,9.0,17.0,13.341664064126334,81.21576201698781,80.06247560499239,76.94153624668537,72.83543093852057
58,21,58,0,1.9352666666666605,11.045361017187261,34.713109915419565,4.0,5.0990195135927845,9.055385138137417,10.198039027185569,6.324555320336759,26.30589287593181,21.213203435596427,15.5,22.0,15.0,12.5,7.5,3.5,8.5,3.1622776601683795,3.0,3.0,9.0,17.0,13.341664064126334,82.56512580987206,81.39410298049853,77.27871634544663,73.16419889536138
59,21,59,0,1.968633333333327,10.04987562112089,33.54101966249684,4.0,5.0990195135927845,9.219544457292887,10.198039027185569,6.082762530298219,25.179356624028344,20.09975124224178,15.0,20.0,14.0,11.0,8.0,4.0,8.0,2.23606797749979,2.23606797749979,2.5,9.0,17.0,14.317821063276353,81.21576201698781,80.23091673413684,77.10382610480494,73.16419889536138
60,21,60,0,2.0019999999999936,9.0,34.713109915419565,4.123105625617661,6.082762530298219,9.055385138137417,10.198039027185569,6.324555320336759,25.317977802344327,19.235384061671343,14.5,20.0,13.0,10.5,8.5,3.5,6.5,3.1622776601683795,3.1622776601683795,2.5,9.0,17.0,15.297058540778355,81.21576201698781,80.23091673413684,76.11832893594026,72.99315036357864
61,21,61,0,2.0353666666666603,7.0,33.54101966249684,4.123105625617661,6.082762530298219,9.219544457292887,10.04987562112089,6.324555320336759,23.345235059857504,17.26267650163207,13.5,17.0,11.0,8.0,9.0,4.0,5.0,3.1622776601683795,3.0,3.0,10.0,18.0,15.132745950421556,83.18653737234169,80.06247560499239,76.94153624668537,71.84705978674423
62,21,62,0,2.068733333333327,6.0,33.54101966249684,3.1622776601683795,6.082762530298219,9.219544457292887,9.219544457292887,6.324555320336759,21.37755832643195,15.297058540778355,12.0,15.0,9.0,6.0,9.0,4.0,4.0,4.0,3.0,3.5,10.0,17.0,15.132745950421556,81.88406438373708,80.75270893288967,76.79192665899195,72.56031973468694
63,21,63,0,2.102099999999994,4.0,31.400636936215164,4.0,6.082762530298219,8.06225774829855,8.06225774829855,7.280109889280518,21.213203435596427,15.132745950421556,13.0,15.0,10.0,5.5,8.5,2.5,2.5,4.123105625617661,4.123105625617661,4.0,11.0,17.0,15.132745950421556,81.88406438373708,80.89499366462674,77.64663547121665,72.56031973468694
64,21,64,0,2.1354666666666606,4.123105625617661,30.14962686336267,4.0,6.0,7.0710678118654755,8.06225774829855,6.082762530298219,20.09975124224178,14.142135623730951,12.0,13.0,10.0,5.5,8.5,2.5,1.5,5.0,4.123105625617661,4.5,11.0,17.0,14.142135623730951,81.74350127074322,79.63039620647382,76.6550715869472,72.44308110509934
65,21,65,0,2.1688333333333274,2.0,29.154759474226502,5.0,7.0710678118654755,7.0710678118654755,8.06225774829855,6.082762530298219,20.09975124224178,13.038404810405298,12.0,13.0,10.0,5.5,8.5,1.5,1.5,5.0,5.0,4.5,11.0,17.0,15.132745950421556,82.49242389456137,80.39900496896712,76.32168761236873,72.17340230306452
66,21,66,0,2.202199999999994,3.0,29.068883707497267,4.123105625617661,6.0,7.0710678118654755,8.06225774829855,7.0710678118654755,20.09975124224178,14.142135623730951,12.5,13.0,11.0,5.0,8.0,2.0,1.0,5.0,5.0990195135927845,5.0,11.0,16.0,14.142135623730951,81.39410298049853,81.30190649671138,77.23341245859851,72.17340230306452
67,21,67,0,2.235566666666661,3.0,30.14962686336267,4.0,6.0,6.0,7.0,6.324555320336759,19.1049731745428,13.152946437965905,11.5,13.0,10.0,5.5,7.5,1.5,1.5,5.0,4.123105625617661,4.5,12.0,16.0,14.142135623730951,82.21921916437786,80.22468448052632,77.10382610480494,72.06247289678588
68,21,68,0,2.268933333333328,3.1622776601683795,29.068883707497267,4.0,6.0,7.0,7.0,7.0,20.024984394500787,14.035668847618199,12.5,13.0,11.0,5.0,8.0,2.0,1.0,5.0990195135927845,4.0,4.5,12.0,15.0,15.033296378372908,82.15229759416349,81.15417426109393,77.05841939723393,72.02777242147643
69,21,69,0,2.3022999999999945,1.0,30.066592756745816,5.0,6.0,7.0710678118654755,8.06225774829855,6.082762530298219,18.027756377319946,12.041594578792296,11.5,12.0,10.0,5.0,7.0,1.0,1.0,5.0,4.123105625617661,4.5,12.0,14.0,15.132745950421556,83.05419917138447,81.02468759581859,77.00649323271382,73.0
70,21,70,0,2.335666666666661,1.0,31.064449134018133,5.0,6.0,8.06225774829855,8.0,6.0,18.0,12.0,11.5,12.0,10.0,5.0,7.0,0.0,1.0,5.0,4.0,4.5,12.0,13.0,15.033296378372908,82.00609733428362,80.0,78.00640999302557,72.00694410957877
71,21,71,0,2.369033333333328,0.0,30.01666203960727,4.0,6.0,7.0710678118654755,7.0,7.0,17.0,11.0,11.0,12.0,11.0,4.5,5.5,0.5,1.5,5.0,4.0,4.5,13.0,13.0,14.035668847618199,81.02468759581859,80.05623023850174,77.05841939723393,72.11102550927978
72,21,72,0,2.4023999999999948,1.0,31.016124838541646,5.0,5.0,8.0,9.0,6.082762530298219,16.0,11.0,11.0,11.0,12.0,5.5,4.5,0.5,1.5,5.0,5.0990195135927845,5.0,13.0,13.0,14.0,82.05485969764375,80.05623023850174,76.05918747922567,72.06247289678588
73,21,73,0,2.435766666666661,2.0,32.01562118716424,5.0,6.082762530298219,8.0,9.055385138137417,6.0,19.026297590440446,13.0,12.0,12.0,13.0,6.5,6.5,0.5,1.5,4.123105625617661,4.0,4.0,14.0,12.0,15.0,80.15609770940699,79.1580697086532,76.23647421018367,72.24956747275377
74,21,74,0,2.4691333333333283,8.0,33.06055050963308,4.123105625617661,6.0,9.055385138137417,10.0,6.0,24.020824298928627,18.027756377319946,14.0,13.0,15.0,8.0,10.0,3.0,4.0,4.0,4.123105625617661,4.5,14.0,12.0,14.0,81.39410298049853,79.40403012442127,76.4198926981712,72.44308110509934
75,21,75,0,2.502499999999995,9.055385138137417,35.12833614050059,4.0,6.0,10.04987562112089,12.041594578792296,5.0990195135927845,24.08318915758459,18.110770276274835,13.5,12.0,15.0,8.5,10.5,3.5,4.5,4.123105625617661,4.0,4.0,15.0,11.0,15.033296378372908,81.49846624323675,79.51100552753688,76.53103945458993,72.56031973468694
76,21,76,0,2.535866666666662,9.0,34.23448553724738,4.123105625617661,6.082762530298219,10.04987562112089,12.041594578792296,5.0,24.08318915758459,18.027756377319946,13.5,11.0,15.0,8.0,11.0,4.0,4.0,4.123105625617661,5.0,4.5,15.0,11.0,14.142135623730951,81.61494961096282,79.90619500389191,76.79192665899195,72.99315036357864
77,21,77,0,2.5692333333333286,9.0,34.23448553724738,3.0,5.0990195135927845,10.198039027185569,11.045361017187261,6.082762530298219,23.08679276123039,18.027756377319946,13.5,11.0,15.0,7.0,10.0,4.0,3.0,4.123105625617661,4.123105625617661,4.0,16.0,11.0,15.132745950421556,81.88406438373708,79.90619500389191,76.11832893594026,72.18032973047436
78,21,78,0,2.602599999999996,7.0710678118654755,32.38826948140329,4.0,6.0,9.055385138137417,10.04987562112089,5.0990195135927845,22.090722034374522,16.1245154965971,12.5,10.0,15.0,7.5,9.5,2.5,3.5,5.0990195135927845,4.0,4.0,16.0,10.0,14.142135623730951,81.04936767180853,79.2464510246358,76.2954782408499,71.386273190299
79,21,79,0,2.635966666666662,5.0990195135927845,32.38826948140329,4.0,7.0710678118654755,8.06225774829855,10.198039027185569,6.082762530298219,22.20360331117452,15.132745950421556,12.5,10.0,15.0,6.5,9.5,1.5,2.5,3.1622776601683795,3.0,3.0,16.0,9.0,15.132745950421556,81.58431221748455,79.62411694957753,76.68767828015137,71.58910531638176
80,21,80,0,2.669333333333329,4.123105625617661,31.400636936215164,5.0,7.0710678118654755,9.055385138137417,9.219544457292887,6.082762530298219,22.20360331117452,15.132745950421556,13.0,10.0,15.0,6.5,9.5,1.5,1.5,2.23606797749979,2.23606797749979,2.0,17.0,9.0,14.317821063276353,80.60397012554654,78.64477096412705,75.7099729229908,71.58910531638176
81,21,81,0,2.702699999999996,3.1622776601683795,30.805843601498726,4.123105625617661,6.082762530298219,8.246211251235321,8.246211251235321,6.324555320336759,19.6468827043885,13.601470508735444,11.5,8.0,15.0,5.5,7.5,0.5,0.5,1.4142135623730951,2.23606797749979,2.0,18.0,9.0,13.341664064126334,80.2807573457052,79.07591289387686,76.15773105863909,72.03471385380801
82,21,82,0,2.7360666666666624,1.0,31.04834939252005,5.0990195135927845,5.0990195135927845,8.06225774829855,9.219544457292887,6.324555320336759,17.46424919657298,12.36931687685298,11.5,7.0,15.0,5.0,6.0,1.0,0.0,2.23606797749979,3.605551275463989,2.5,19.0,8.0,15.297058540778355,80.52328855678958,79.55501241279521,75.69015788066504,72.53275122315436
83,21,83,0,2.769433333333329,1.4142135623730951,30.805843601498726,4.0,6.082762530298219,8.246211251235321,9.219544457292887,6.324555320336759,17.46424919657298,11.40175425099138,10.5,7.0,14.0,4.5,6.5,0.5,0.5,2.23606797749979,3.1622776601683795,2.5,18.0,8.0,14.560219778561036,81.04319835741924,79.81227975693966,76.92203845452875,72.53275122315436
84,21,84,0,2.802799999999996,2.23606797749979,32.984845004941285,4.123105625617661,6.082762530298219,8.246211251235321,9.219544457292887,6.324555320336759,18.681541692269406,12.649110640673518,11.0,7.0,15.0,5.0,7.0,0.0,0.0,3.1622776601683795,3.1622776601683795,2.5,18.0,7.0,14.560219778561036,80.52328855678958,79.55501241279521,76.6550715869472,71.84010022264724
85,21,85,0,2.8361666666666627,5.0990195135927845,32.01562118716424,4.123105625617661,5.0990195135927845,9.219544457292887,10.44030650891055,5.385164807134504,19.6468827043885,14.560219778561036,11.5,8.0,16.0,7.0,7.0,0.0,2.0,3.605551275463989,3.1622776601683795,3.0,19.0,8.0,15.524174696260024,81.49233092751734,79.55501241279521,76.15773105863909,72.03471385380801
86,21,86,0,2.869533333333329,5.0990195135927845,32.7566787083184,4.123105625617661,6.082762530298219,10.198039027185569,10.198039027185569,4.47213595499958,19.6468827043885,13.601470508735444,10.5,8.0,15.0,7.5,7.5,0.5,2.5,4.123105625617661,4.47213595499958,3.5,19.0,8.0,14.317821063276353,82.46211251235322,80.2807573457052,76.90253571892151,73.00684899377592
87,21,87,0,2.9028999999999963,5.0990195135927845,32.55764119219941,4.0,6.082762530298219,9.219544457292887,11.180339887498949,4.47213595499958,19.4164878389476,13.341664064126334,10.5,9.0,15.0,8.0,7.0,0.0,3.0,4.47213595499958,4.123105625617661,4.0,17.0,7.0,14.317821063276353,82.22530024268686,79.07591289387686,75.92759709091287,71.80529228406496
88,21,88,0,2.936266666666663,6.0,32.7566787083184,3.1622776601683795,5.385164807134504,11.180339887498949,11.180339887498949,5.385164807134504,19.6468827043885,14.317821063276353,11.0,9.0,16.0,7.5,6.5,0.5,3.5,4.123105625617661,3.1622776601683795,3.5,18.0,8.0,13.341664064126334,81.25269226308751,78.85429601486528,75.7099729229908,72.56721022610694
89,21,89,0,2.96963333333333,6.082762530298219,32.7566787083184,4.123105625617661,6.082762530298219,10.198039027185569,10.198039027185569,4.123105625617661,20.396078054371138,14.317821063276353,11.0,9.0,16.0,8.5,7.5,0.5,3.5,4.123105625617661,4.123105625617661,3.5,18.0,9.0,14.317821063276353,82.0,79.83107164506812,75.50496672405067,71.386273190299
90,21,90,0,3.002999999999997,6.082762530298219,32.55764119219941,4.123105625617661,6.082762530298219,10.198039027185569,10.198039027185569,4.123105625617661,20.396078054371138,14.317821063276353,11.0,9.0,15.0,8.0,8.0,0.0,3.0,4.123105625617661,4.123105625617661,4.0,17.0,9.0,14.317821063276353,81.58431221748455,79.42921376924235,75.50496672405067,71.19691004531025
91,21,91,0,3.036366666666664,6.0,31.400636936215164,5.0990195135927845,6.082762530298219,9.055385138137417,11.045361017187261,4.123105625617661,21.213203435596427,15.132745950421556,12.0,10.0,15.0,8.5,8.5,1.5,3.5,5.0990195135927845,4.123105625617661,4.0,17.0,9.0,15.297058540778355,80.4114419718985,79.2464510246358,74.14849964766651,71.02112361825881
92,21,92,0,3.06973333333333,6.0,31.400636936215164,4.123105625617661,6.082762530298219,10.04987562112089,11.045361017187261,4.123105625617661,20.223748416156685,14.142135623730951,11.0,9.0,14.0,7.5,8.5,1.5,3.5,4.123105625617661,4.0,4.5,17.0,10.0,15.132745950421556,81.21576201698781,80.23091673413684,74.96665925596525,70.8590149522275
93,21,93,0,3.103099999999997,5.0,30.265491900843113,5.0990195135927845,6.082762530298219,9.055385138137417,10.04987562112089,4.123105625617661,20.223748416156685,14.142135623730951,11.5,10.0,14.0,8.0,8.0,1.0,3.0,5.0990195135927845,5.0,4.5,16.0,10.0,15.132745950421556,80.89499366462674,78.77182237323191,73.824115301167,69.72087205421343
94,21,94,0,3.136466666666664,4.123105625617661,29.274562336608895,4.0,6.0,8.06225774829855,9.055385138137417,5.0990195135927845,19.1049731745428,13.152946437965905,11.0,9.0,13.0,6.0,8.0,1.0,2.0,5.0990195135927845,5.0990195135927845,4.5,16.0,10.0,15.033296378372908,81.88406438373708,79.90619500389191,74.67261881037788,70.57619995437555
95,21,95,0,3.1698333333333304,1.4142135623730951,29.274562336608895,4.0,6.0,9.055385138137417,9.055385138137417,5.0990195135927845,16.1245154965971,10.198039027185569,9.5,8.0,12.0,5.0,6.0,1.0,1.0,5.0990195135927845,4.0,4.5,16.0,10.0,14.142135623730951,80.75270893288967,78.63841300535,74.54528824815154,70.45565981523414
96,21,96,0,3.203199999999997,0.0,28.284271247461902,5.0990195135927845,6.082762530298219,9.055385138137417,9.055385138137417,5.0,16.1245154965971,10.04987562112089,10.0,9.0,13.0,6.0,5.0,1.0,1.0,4.123105625617661,5.0,5.0,16.0,11.0,14.142135623730951,80.62257748298549,78.5175139698144,74.43117626371358,69.46221994724903
97,21,97,0,3.236566666666664,1.0,28.284271247461902,5.0990195135927845,6.082762530298219,9.055385138137417,9.055385138137417,5.0,17.11724276862369,11.045361017187261,10.5,9.0,13.0,6.0,6.0,1.0,1.0,5.0990195135927845,5.0,4.5,15.0,10.0,14.035668847618199,80.50465825031493,78.5175139698144,74.54528824815154,69.46221994724903
98,21,98,0,3.2699333333333307,2.0,28.071337695236398,5.0,6.082762530298219,8.06225774829855,9.0,5.0990195135927845,18.110770276274835,12.041594578792296,11.0,10.0,12.0,6.0,7.0,0.0,0.0,5.0990195135927845,5.0990195135927845,5.0,16.0,11.0,15.033296378372908,79.51100552753688,78.40918313565064,74.43117626371358,70.34912934784623
99,21,99,0,3.303299999999997,0.0,30.14962686336267,5.0990195135927845,6.0,9.055385138137417,9.055385138137417,6.0,17.029386365926403,11.045361017187261,11.0,10.0,13.0,5.5,5.5,1.5,0.5,6.0,5.0,5.0,15.0,11.0,15.033296378372908,80.39900496896712,78.40918313565064,74.33034373659252,70.25667228100119
100,21,100,0,3.336666666666664,1.0,30.14962686336267,4.0,5.0,9.055385138137417,9.055385138137417,7.0710678118654755,17.029386365926403,12.041594578792296,11.5,10.0,13.0,4.5,5.5,0.5,0.5,5.0,5.0,5.0,15.0,11.0,15.132745950421556,80.30566605165541,78.23042886243178,74.10802925459562,70.11419257183242
101,21,101,0,3.370033333333331,1.0,31.144823004794873,5.0990195135927845,5.0,9.055385138137417,9.0,7.0,18.027756377319946,13.038404810405298,12.5,11.0,14.0,5.5,5.5,0.5,0.5,5.0,5.0,5.0,15.0,11.0,14.035668847618199,80.30566605165541,78.23042886243178,74.16872656315464,71.11258679024411
102,21,102,0,3.4033999999999978,6.0,31.064449134018133,4.0,5.0990195135927845,9.055385138137417,10.04987562112089,7.0710678118654755,22.090722034374522,17.029386365926403,14.0,13.0,15.0,7.0,8.0,2.0,3.0,5.0990195135927845,6.0,5.5,15.0,11.0,14.035668847618199,81.15417426109393,79.1580697086532,74.16872656315464,70.11419257183242
103,21,103,0,3.4367666666666645,7.0710678118654755,32.0624390837628,3.0,6.0,10.04987562112089,10.04987562112089,6.082762530298219,22.090722034374522,16.1245154965971,12.5,13.0,15.0,8.0,8.0,2.0,4.0,5.0,6.0,6.0,14.0,11.0,14.035668847618199,80.22468448052632,78.10249675906654,74.06078584514209,70.06425622241343
104,21,104,0,3.470133333333332,6.0,32.01562118716424,3.0,6.082762530298219,10.0,11.0,6.082762530298219,21.095023109728988,15.033296378372908,12.0,13.0,14.0,7.5,7.5,1.5,4.5,5.0,6.0,5.5,15.0,11.0,14.035668847618199,80.22468448052632,78.10249675906654,75.05997601918082,71.06335201775947
105,21,105,0,3.503499999999998,6.082762530298219,31.064449134018133,4.0,5.0,9.055385138137417,10.04987562112089,5.0990195135927845,20.09975124224178,15.132745950421556,12.0,12.0,14.0,8.0,7.0,1.0,4.0,5.0990195135927845,5.0,5.0,15.0,12.0,14.0,80.15609770940699,78.10249675906654,74.06078584514209,70.06425622241343
106,21,106,0,3.536866666666665,7.0,30.066592756745816,4.123105625617661,5.0,9.055385138137417,10.04987562112089,5.0,21.02379604162864,16.0312195418814,12.5,13.0,15.0,9.0,7.0,1.0,4.0,6.082762530298219,5.0,5.5,15.0,12.0,14.035668847618199,81.15417426109393,79.05694150420949,75.02666192761077,71.02816342831905
107,21,107,0,3.570233333333332,6.0,31.016124838541646,4.0,6.0,9.055385138137417,10.04987562112089,6.082762530298219,22.02271554554524,16.0312195418814,13.0,14.0,15.0,8.5,7.5,1.5,4.5,5.0990195135927845,5.0,5.5,14.0,12.0,14.0,81.02468759581859,79.02531240052139,75.0,70.0
108,21,108,0,3.6035999999999984,8.0,29.068883707497267,5.0,6.082762530298219,10.04987562112089,10.0,5.0990195135927845,24.08318915758459,18.027756377319946,14.0,15.0,17.0,11.0,8.0,1.0,6.0,5.0,6.0,6.0,14.0,12.0,15.0,81.02468759581859,79.00632886041473,74.00675644831355,70.0
109,21,109,0,3.636966666666665,11.0,30.0,4.123105625617661,6.0,9.0,10.0,5.0990195135927845,26.076809620810597,20.09975124224178,14.5,16.0,16.0,11.0,10.0,3.0,7.0,5.0,5.0,4.5,14.0,12.0,15.0,81.02468759581859,79.00632886041473,74.0,71.00704190430693
110,21,110,0,3.670333333333332,10.0,29.017236257093817,4.0,6.082762530298219,9.055385138137417,10.0,7.0710678118654755,27.073972741361768,21.02379604162864,16.0,17.0,18.0,10.5,9.5,2.5,6.5,5.0,5.0,5.0,14.0,13.0,13.0,81.00617260431454,79.00632886041473,74.00675644831355,71.00704190430693
111,21,111,0,3.703699999999999,11.045361017187261,29.0,4.0,7.0,9.0,10.0,6.0,28.0178514522438,21.02379604162864,15.5,18.0,18.0,12.0,10.0,3.0,8.0,5.0990195135927845,4.0,4.5,13.0,12.0,15.0,81.00617260431454,79.00632886041473,75.0066663703967,70.02856560004639
112,21,112,0,3.7370666666666654,11.0,30.01666203960727,4.0,6.0,9.0,10.04987562112089,7.0,28.0,22.0,16.5,19.0,18.0,11.5,9.5,2.5,7.5,5.0,5.0,5.0,12.0,12.0,13.0,81.00617260431454,79.00632886041473,75.02666192761077,70.02856560004639
113,21,113,0,3.770433333333332,11.045361017187261,29.0,4.0,6.0,9.0,9.055385138137417,7.0710678118654755,28.0,22.0,16.5,18.0,18.0,11.0,10.0,4.0,7.0,5.0,4.0,4.5,13.0,13.0,14.0,80.05623023850174,79.1012010022604,75.1065909225016,70.11419257183242
114,21,114,0,3.803799999999999,11.045361017187261,30.01666203960727,4.0,6.082762530298219,9.0,9.0,8.0,29.0,23.021728866442675,17.5,19.0,18.0,10.5,10.5,4.5,6.5,5.0,4.0,4.5,12.0,13.0,14.0,80.05623023850174,79.05694150420949,75.1065909225016,71.11258679024411
115,21,115,0,3.8371666666666657,14.0,31.064449134018133,4.0,6.0,10.0,10.04987562112089,7.0710678118654755,31.016124838541646,25.019992006393608,18.0,21.0,19.0,13.0,11.0,5.0,9.0,5.0,5.0,5.0,11.0,12.0,14.0,81.09870529176159,78.10249675906654,74.16872656315464,70.178344238091
116,21,116,0,3.870533333333333,13.038404810405298,31.0,4.0,6.0,9.0,9.055385138137417,8.0,31.016124838541646,25.019992006393608,18.5,20.0,20.0,12.0,11.0,5.0,8.0,4.0,5.0,5.0,12.0,12.0,13.038404810405298,80.05623023850174,78.10249675906654,75.16648189186454,71.11258679024411
117,21,117,0,3.9038999999999993,12.0,31.0,4.0,6.0,9.0,10.0,9.0,31.0,25.0,19.0,20.0,20.0,11.0,11.0,5.0,7.0,4.0,5.0,5.0,12.0,12.0,13.0,80.05623023850174,78.05767098754612,75.1065909225016,71.17583859709698
118,21,118,0,3.937266666666666,10.0,31.064449134018133,4.0,5.0,9.0,9.0,11.0,30.0,25.0,20.0,21.0,19.0,9.0,10.0,4.0,5.0,5.0,4.0,4.5,12.0,13.0,14.035668847618199,80.05623023850174,79.05694150420949,74.10802925459562,70.178344238091
119,21,119,0,3.970633333333333,15.033296378372908,32.0,4.0,5.0990195135927845,10.0,11.0,7.0,31.0,26.019223662515376,18.5,20.0,20.0,13.0,11.0,5.0,9.0,4.0,5.0,5.0,12.0,12.0,15.0,82.02438661763951,79.02531240052139,75.05997601918082,71.06335201775947
120,21,120,0,4.004,15.0,32.01562118716424,5.0,6.0,10.0,11.045361017187261,6.0,32.0,26.0,18.5,21.0,20.0,14.5,11.5,5.5,9.5,5.0,4.0,4.5,12.0,13.0,14.0,82.00609733428362,79.02531240052139,75.05997601918082,71.02816342831905
121,21,121,0,4.037366666666666,13.0,32.0,4.123105625617661,6.0,9.0,10.0,7.0,30.01666203960727,24.020824298928627,17.5,19.0,19.0,12.0,11.0,5.0,8.0,4.0,4.0,4.0,12.0,12.0,13.0,82.0,80.0,75.0066663703967,72.00694410957877
122,21,122,0,4.070733333333333,12.041594578792296,32.0,5.0,6.082762530298219,10.0,11.0,7.0,30.0,24.020824298928627,18.0,19.0,19.0,12.0,11.0,5.0,7.0,4.0,5.0,4.5,12.0,12.0,14.0,82.02438661763951,79.02531240052139,75.05997601918082,71.06335201775947
123,21,123,0,4.1041,9.0,31.0,3.0,5.0,8.0,10.0,11.0,28.0,23.0,18.5,19.0,19.0,8.0,9.0,3.0,5.0,5.0,5.0,5.0,13.0,13.0,15.033296378372908,81.02468759581859,79.00632886041473,75.02666192761077,71.00704190430693
124,21,124,0,4.137466666666667,11.045361017187261,33.015148038438355,4.0,5.0,9.0,11.0,8.0,28.0178514522438,23.021728866442675,17.5,18.0,17.0,9.5,10.5,5.5,5.5,5.0,5.0,5.0,12.0,13.0,15.0,81.05553651663777,79.05694150420949,76.05918747922567,71.06335201775947
125,21,125,0,4.170833333333333,9.0,33.015148038438355,4.0,6.0,10.0,10.0,9.0,28.0,22.0,17.5,18.0,17.0,8.5,10.5,4.5,4.5,5.0,4.0,4.0,12.0,14.0,15.033296378372908,81.05553651663777,80.05623023850174,75.05997601918082,72.06247289678588
126,21,126,0,4.2042,10.0,33.015148038438355,4.0,6.0,10.04987562112089,10.04987562112089,6.0,26.0,20.0,15.0,17.0,16.0,10.5,9.5,3.5,7.5,5.0,5.0,5.0,13.0,14.0,15.033296378372908,82.05485969764375,79.05694150420949,76.10519036176179,71.11258679024411
127,21,127,0,4.237566666666667,10.0,34.058772731852805,4.0,5.0,10.0,10.0,5.0,24.0,19.0,14.0,16.0,14.0,10.0,9.0,3.0,6.0,3.0,3.0,3.0,14.0,15.0,14.0,80.02499609497022,79.05694150420949,75.05997601918082,72.06247289678588
128,21,128,0,4.270933333333334,8.0,35.12833614050059,4.0,6.0,10.04987562112089,11.045361017187261,5.0990195135927845,23.021728866442675,17.029386365926403,13.0,16.0,13.0,9.5,8.5,2.5,5.5,2.0,2.0,2.0,14.0,15.0,15.0,81.00617260431454,79.00632886041473,76.02631123499285,71.02816342831905
129,21,129,0,4.3043000000000005,7.0,35.05709628591621,4.0,5.0,10.04987562112089,11.045361017187261,5.0990195135927845,21.02379604162864,16.0312195418814,12.5,14.0,12.0,8.0,8.0,3.0,5.0,2.0,3.0,2.0,15.0,16.0,15.033296378372908,80.05623023850174,79.05694150420949,76.05918747922567,72.06247289678588
130,21,130,0,4.337666666666667,7.0,34.132096331752024,4.0,5.0990195135927845,10.0,11.045361017187261,5.0990195135927845,21.095023109728988,16.0312195418814,12.5,15.0,12.0,8.5,7.5,2.5,4.5,3.1622776601683795,2.0,2.0,15.0,17.0,16.0312195418814,81.09870529176159,80.09993757800315,76.10519036176179,72.17340230306452
131,21,131,0,4.371033333333334,8.0,35.12833614050059,4.0,5.0990195135927845,10.04987562112089,11.045361017187261,6.082762530298219,23.08679276123039,18.027756377319946,14.0,16.0,13.0,8.5,8.5,3.5,5.5,2.23606797749979,2.0,2.0,15.0,17.0,17.029386365926403,81.09870529176159,79.1580697086532,76.16429609731846,72.17340230306452
132,21,132,0,4.404400000000001,11.0,33.13608305156178,4.0,6.0,10.04987562112089,11.180339887498949,5.0990195135927845,26.019223662515376,20.024984394500787,14.5,17.0,14.0,10.5,10.5,4.5,6.5,2.23606797749979,3.0,3.0,14.0,18.0,17.0,80.22468448052632,78.23042886243178,75.23961722390672,70.178344238091
133,21,133,0,4.437766666666668,9.0,32.14031735997639,5.0,7.0710678118654755,9.055385138137417,10.04987562112089,6.082762530298219,27.073972741361768,20.024984394500787,15.5,18.0,15.0,10.5,10.5,4.5,6.5,3.1622776601683795,3.1622776601683795,3.0,14.0,18.0,17.11724276862369,80.30566605165541,78.40918313565064,75.4254598925323,71.449282711585
134,21,134,0,4.471133333333334,6.0,30.265491900843113,5.0,6.082762530298219,8.06225774829855,9.055385138137417,7.0710678118654755,24.08318915758459,18.027756377319946,15.0,17.0,13.0,8.0,9.0,3.0,4.0,3.0,3.0,3.0,14.0,19.0,17.11724276862369,80.30566605165541,79.40403012442127,75.53806987208503,70.45565981523414
135,21,135,0,4.504500000000001,1.0,29.274562336608895,5.0990195135927845,6.082762530298219,7.0710678118654755,8.06225774829855,7.0,19.1049731745428,13.038404810405298,12.5,16.0,12.0,7.0,5.0,1.0,3.0,4.0,4.123105625617661,3.5,13.0,18.0,17.11724276862369,80.50465825031493,79.63039620647382,75.53806987208503,71.56814934033156
136,21,136,0,4.537866666666668,1.0,30.4138126514911,5.0990195135927845,6.082762530298219,8.06225774829855,9.055385138137417,6.082762530298219,18.24828759089466,12.165525060596439,11.5,15.0,10.0,6.5,5.5,0.5,1.5,3.0,3.1622776601683795,3.0,12.0,18.0,18.027756377319946,79.76214641043707,78.77182237323191,75.66372975210778,70.71067811865476
137,21,137,0,4.571233333333335,1.4142135623730951,29.427877939124322,5.0,6.082762530298219,7.0710678118654755,9.055385138137417,7.0710678118654755,19.235384061671343,13.152946437965905,12.5,16.0,11.0,6.5,5.5,0.5,2.5,3.0,3.0,3.5,12.0,19.0,17.11724276862369,80.89499366462674,78.91767862779544,74.81310045707235,70.8590149522275
138,21,138,0,4.604600000000001,5.0,27.294688127912362,5.0990195135927845,7.0710678118654755,7.0710678118654755,9.055385138137417,6.082762530298219,23.194827009486403,16.1245154965971,13.5,17.0,13.0,9.0,8.0,1.0,4.0,4.123105625617661,3.1622776601683795,3.5,12.0,19.0,16.1245154965971,81.04936767180853,78.91767862779544,75.8023746329889,70.71067811865476
139,21,139,0,4.637966666666668,7.0,27.294688127912362,5.0990195135927845,7.0710678118654755,8.06225774829855,9.055385138137417,5.0990195135927845,24.186773244895647,17.11724276862369,13.5,17.0,13.0,10.0,9.0,2.0,5.0,4.0,4.123105625617661,3.5,11.0,18.0,16.278820596099706,80.89499366462674,79.90619500389191,75.8023746329889,71.7007670809734
140,21,140,0,4.671333333333335,7.0,28.284271247461902,5.0,7.0710678118654755,8.06225774829855,9.055385138137417,5.0990195135927845,24.08318915758459,17.029386365926403,13.5,17.0,13.0,10.0,9.0,2.0,5.0,4.123105625617661,4.123105625617661,3.5,11.0,18.0,17.11724276862369,79.90619500389191,78.91767862779544,75.8023746329889,70.8590149522275
141,21,141,0,4.704700000000002,6.0,27.294688127912362,7.0,8.06225774829855,7.0710678118654755,8.246211251235321,3.1622776601683795,24.08318915758459,16.0312195418814,13.0,17.0,13.0,12.0,9.0,1.0,6.0,4.0,4.0,4.0,12.0,18.0,16.1245154965971,79.63039620647382,79.76214641043707,75.66372975210778,71.7007670809734
142,21,142,0,4.738066666666668,6.0,28.160255680657446,6.082762530298219,8.06225774829855,8.06225774829855,9.055385138137417,4.0,24.08318915758459,16.0312195418814,13.0,17.0,14.0,11.5,8.5,0.5,5.5,4.123105625617661,4.0,4.0,12.0,18.0,16.278820596099706,80.39900496896712,79.40403012442127,75.4254598925323,71.34423592694787
143,21,143,0,4.771433333333335,6.0,26.076809620810597,6.0,7.0710678118654755,8.06225774829855,9.055385138137417,3.1622776601683795,22.090722034374522,15.033296378372908,12.0,15.0,13.0,11.0,8.0,1.0,5.0,4.0,4.123105625617661,4.0,12.0,17.0,16.0312195418814,80.30566605165541,79.30952023559341,75.32595834106593,71.25307010929424
144,21,144,0,4.804800000000002,5.0,28.071337695236398,6.0,7.0,8.0,9.0,4.123105625617661,22.02271554554524,15.033296378372908,12.5,15.0,13.0,10.0,8.0,1.0,4.0,4.0,4.0,4.0,12.0,17.0,16.0312195418814,80.30566605165541,78.31347265956222,75.23961722390672,71.17583859709698
145,21,145,0,4.838166666666669,4.0,27.073972741361768,6.0,7.0710678118654755,8.0,9.0,3.0,20.024984394500787,13.0,11.0,14.0,12.0,10.0,7.0,0.0,4.0,4.0,4.0,4.0,13.0,17.0,17.029386365926403,81.09870529176159,80.09993757800315,77.10382610480494,72.11102550927978
146,21,146,0,4.871533333333336,3.0,29.068883707497267,6.0,7.0710678118654755,9.0,10.04987562112089,3.0,19.026297590440446,12.0,10.5,14.0,12.0,10.0,6.0,1.0,4.0,4.0,4.0,4.0,13.0,17.0,15.033296378372908,81.09870529176159,80.05623023850174,77.10382610480494,72.11102550927978
147,21,147,0,4.904900000000002,3.0,30.01666203960727,6.0,7.0,8.06225774829855,10.0,3.1622776601683795,19.026297590440446,12.041594578792296,10.5,14.0,13.0,10.5,5.5,1.5,4.5,4.0,4.0,4.0,14.0,16.0,15.033296378372908,81.05553651663777,80.05623023850174,77.05841939723393,74.06078584514209
148,21,148,0,4.938266666666669,2.0,30.01666203960727,6.0,7.0,8.06225774829855,10.04987562112089,4.123105625617661,19.026297590440446,12.041594578792296,11.0,14.0,13.0,9.5,5.5,1.5,4.5,4.0,4.0,4.0,13.0,16.0,15.033296378372908,82.05485969764375,81.05553651663777,78.05767098754612,75.05997601918082
149,21,149,0,4.971633333333336,2.0,31.016124838541646,7.0,7.0,9.055385138137417,9.055385138137417,3.0,19.0,12.0,11.0,14.0,13.0,10.5,5.5,1.5,4.5,4.0,4.0,4.0,14.0,16.0,16.0312195418814,82.02438661763951,81.00617260431454,79.00632886041473,74.0
150,21,150,0,5.005000000000003,1.0,31.016124838541646,6.0,6.0,9.0,9.0,3.0,16.0,10.0,9.5,13.0,12.0,9.5,3.5,2.5,3.5,4.0,4.123105625617661,4.0,13.0,15.0,16.0312195418814,82.02438661763951,81.02468759581859,78.02563681252464,74.00675644831355
151,21,151,0,5.038366666666669,1.0,32.0,6.0,7.0,9.0,9.0,3.1622776601683795,17.029386365926403,10.04987562112089,9.5,13.0,13.0,10.0,4.0,3.0,4.0,4.0,4.0,4.0,14.0,16.0,16.0312195418814,83.05419917138447,82.02438661763951,79.02531240052139,76.00657866263946
152,21,152,0,5.071733333333336,1.0,31.0,7.0710678118654755,7.0,9.055385138137417,9.0,3.0,17.0,10.0,10.0,13.0,13.0,10.0,4.0,3.0,4.0,4.0,4.0,3.5,14.0,16.0,15.0,83.00602387778854,82.0,80.00624975587844,76.0
153,21,153,0,5.105100000000003,3.0,31.016124838541646,6.0,7.0,9.0,9.0,4.0,20.0,13.0,11.5,15.0,14.0,10.5,5.5,1.5,4.5,4.123105625617661,4.0,4.0,14.0,16.0,17.0,82.00609733428362,82.00609733428362,79.00632886041473,76.0
154,21,154,0,5.13846666666667,5.0,30.0,6.0,7.0,8.0,9.0,4.0,22.0,15.0,12.5,15.0,15.0,11.0,7.0,0.0,5.0,4.0,4.123105625617661,4.0,14.0,16.0,16.0312195418814,83.0,82.0,79.0,75.0066663703967
155,21,155,0,5.171833333333336,2.0,29.0,6.0,7.0,7.0710678118654755,8.0,6.082762530298219,21.02379604162864,14.035668847618199,13.0,15.0,15.0,9.0,6.0,1.0,4.0,4.0,5.0,4.5,14.0,15.0,16.0,82.0,81.02468759581859,78.02563681252464,75.02666192761077
156,21,156,0,5.205200000000003,1.0,27.0,5.0,7.0,8.0,8.0,7.0,20.0,13.0,12.5,15.0,15.0,8.0,5.0,2.0,3.0,4.0,5.0,5.0,14.0,15.0,15.0,82.00609733428362,82.02438661763951,79.05694150420949,74.06078584514209
157,21,157,0,5.23856666666667,1.4142135623730951,29.0,5.0990195135927845,7.0,7.0,9.0,7.0710678118654755,20.024984394500787,13.038404810405298,12.5,15.0,15.0,8.0,5.0,2.0,3.0,4.0,4.123105625617661,4.5,14.0,15.0,15.0,83.02409288875127,81.02468759581859,79.05694150420949,74.06078584514209
158,21,158,0,5.271933333333337,3.0,29.017236257093817,6.0,7.0,7.0,8.06225774829855,7.0,23.0,16.0,14.5,16.0,17.0,9.5,6.5,0.5,3.5,4.0,5.0,4.5,15.0,15.0,15.033296378372908,83.05419917138447,81.05553651663777,78.05767098754612,73.10950690573696
159,21,159,0,5.305300000000004,2.0,28.0178514522438,6.082762530298219,7.0,7.0,8.06225774829855,6.0,21.02379604162864,14.035668847618199,13.0,15.0,16.0,9.5,5.5,1.5,3.5,3.0,4.123105625617661,3.5,15.0,15.0,16.0,82.15229759416349,81.15417426109393,77.1621668954417,72.24956747275377
160,21,160,0,5.33866666666667,1.0,30.01666203960727,6.082762530298219,7.0,7.0,8.06225774829855,6.0,20.024984394500787,13.038404810405298,12.5,14.0,15.0,8.5,5.5,2.5,2.5,2.0,3.0,2.5,15.0,15.0,14.035668847618199,82.15229759416349,81.15417426109393,78.16009211867653,73.24616030891995
161,21,161,0,5.372033333333337,2.0,30.066592756745816,6.082762530298219,6.0,8.0,8.0,5.0,19.026297590440446,13.038404810405298,12.0,13.0,15.0,9.0,5.0,2.0,3.0,2.23606797749979,2.23606797749979,1.5,17.0,15.0,14.035668847618199,81.15417426109393,80.15609770940699,77.23341245859851,73.33484846919642
162,21,162,0,5.405400000000004,6.082762530298219,31.064449134018133,5.0,6.0,9.055385138137417,10.0,5.0,22.02271554554524,16.0312195418814,13.0,13.0,15.0,9.0,8.0,1.0,4.0,3.1622776601683795,3.0,3.0,18.0,16.0,16.0,81.2219182240853,80.15609770940699,76.16429609731846,71.17583859709698
163,21,163,0,5.438766666666671,3.1622776601683795,30.066592756745816,4.0,5.0,8.06225774829855,9.055385138137417,8.06225774829855,20.09975124224178,15.132745950421556,13.5,12.0,14.0,5.0,7.0,1.0,1.0,3.0,3.0,3.0,18.0,16.0,18.027756377319946,81.15417426109393,80.15609770940699,75.23961722390672,72.24956747275377
164,21,164,0,5.472133333333337,1.0,30.066592756745816,4.0,5.0990195135927845,8.06225774829855,8.06225774829855,10.04987562112089,20.09975124224178,15.033296378372908,14.5,11.0,13.0,2.0,8.0,2.0,2.0,4.0,4.0,4.0,18.0,16.0,18.027756377319946,81.39410298049853,79.40403012442127,76.4198926981712,71.449282711585
165,21,165,0,5.505500000000004,5.0,32.14031735997639,4.123105625617661,6.082762530298219,9.055385138137417,10.04987562112089,5.0,20.09975124224178,14.035668847618199,11.5,9.0,12.0,5.5,9.5,2.5,1.5,5.0990195135927845,5.0,5.0,18.0,15.0,17.0,82.29823813423954,80.30566605165541,75.32595834106593,71.34423592694787
166,21,166,0,5.538866666666671,5.0,32.0624390837628,3.0,6.082762530298219,9.055385138137417,10.04987562112089,6.082762530298219,20.09975124224178,14.035668847618199,11.5,9.0,11.0,4.0,10.0,3.0,1.0,5.0990195135927845,5.0,5.0,18.0,15.0,16.0312195418814,82.29823813423954,79.30952023559341,75.32595834106593,71.25307010929424
167,21,167,0,5.572233333333338,4.0,33.13608305156178,3.0,6.082762530298219,10.04987562112089,10.04987562112089,6.082762530298219,19.1049731745428,13.038404810405298,11.0,8.0,11.0,3.5,9.5,2.5,0.5,5.0990195135927845,5.0,5.0,18.0,15.0,17.029386365926403,82.29823813423954,80.30566605165541,75.4254598925323,71.34423592694787
168,21,168,0,5.605600000000004,2.0,31.064449134018133,4.123105625617661,6.0,8.06225774829855,9.055385138137417,6.0,18.027756377319946,12.041594578792296,11.0,8.0,10.0,3.0,9.0,2.0,1.0,5.0990195135927845,5.0,5.0,17.0,15.0,16.0,82.15229759416349,80.15609770940699,75.16648189186454,72.17340230306452
169,21,169,0,5.638966666666671,2.0,32.01562118716424,4.123105625617661,5.0,7.0710678118654755,8.06225774829855,7.0,18.027756377319946,13.038404810405298,12.0,8.0,9.0,1.5,9.5,3.5,2.5,6.082762530298219,5.0,5.5,16.0,15.0,18.0,82.29823813423954,81.30190649671138,76.16429609731846,72.17340230306452
170,21,170,0,5.672333333333338,0.0,32.01562118716424,5.0,5.0,8.06225774829855,8.0,6.082762530298219,16.0312195418814,11.045361017187261,11.0,8.0,9.0,2.5,7.5,1.5,2.5,6.082762530298219,6.082762530298219,6.0,16.0,15.0,18.0,82.09750300709517,81.09870529176159,76.10519036176179,72.11102550927978
171,21,171,0,5.705700000000005,0.0,29.017236257093817,4.0,6.0,8.0,8.06225774829855,7.0,17.0,11.0,11.0,10.0,11.0,3.5,6.5,0.5,0.5,6.082762530298219,6.0,6.5,15.0,14.0,16.0,82.09750300709517,79.1580697086532,76.10519036176179,71.11258679024411
172,21,172,0,5.739066666666671,0.0,28.071337695236398,5.0,6.082762530298219,7.0,7.0,8.06225774829855,19.1049731745428,13.038404810405298,13.0,11.0,13.0,4.0,7.0,0.0,0.0,6.324555320336759,5.0990195135927845,5.5,16.0,15.0,17.029386365926403,82.09750300709517,81.09870529176159,76.10519036176179,71.11258679024411
173,21,173,0,5.772433333333338,2.0,25.019992006393608,6.0,6.082762530298219,6.082762530298219,7.0710678118654755,6.082762530298219,20.09975124224178,14.035668847618199,13.0,12.0,13.0,6.5,7.5,0.5,0.5,6.082762530298219,7.0710678118654755,7.0,15.0,14.0,17.0,83.15046602394962,81.15417426109393,76.10519036176179,71.11258679024411
174,21,174,0,5.805800000000005,2.0,26.019223662515376,5.0,6.082762530298219,7.0,8.06225774829855,6.082762530298219,19.1049731745428,13.038404810405298,12.0,11.0,12.0,5.5,7.5,0.5,0.5,6.082762530298219,6.0,6.0,16.0,15.0,17.0,83.15046602394962,80.09993757800315,77.1621668954417,73.10950690573696
175,21,175,0,5.839166666666672,2.0,27.073972741361768,5.0990195135927845,6.082762530298219,7.0,8.0,6.0,19.1049731745428,13.038404810405298,12.0,11.0,13.0,6.0,7.0,0.0,1.0,6.082762530298219,6.0,6.5,16.0,14.0,16.0312195418814,83.15046602394962,81.15417426109393,76.16429609731846,72.11102550927978
176,21,176,0,5.8725333333333385,3.0,30.066592756745816,5.0990195135927845,7.0710678118654755,8.0,8.06225774829855,5.0,20.09975124224178,13.038404810405298,11.5,10.0,12.0,6.0,9.0,1.0,1.0,6.082762530298219,6.0,6.5,17.0,15.0,16.0312195418814,83.21658488546619,81.15417426109393,76.16429609731846,72.17340230306452
177,21,177,0,5.905900000000005,4.0,30.01666203960727,4.0,7.0710678118654755,9.0,10.0,5.0990195135927845,20.09975124224178,13.038404810405298,11.0,10.0,11.0,5.5,9.5,2.5,1.5,6.082762530298219,6.0,6.0,17.0,15.0,16.0312195418814,82.21921916437786,80.22468448052632,76.23647421018367,71.25307010929424
178,21,178,0,5.939266666666672,5.0,30.066592756745816,3.0,7.0710678118654755,8.0,8.0,6.0,21.02379604162864,14.0,11.5,10.0,12.0,5.0,10.0,3.0,2.0,6.082762530298219,6.0,6.0,16.0,14.0,16.0312195418814,82.21921916437786,80.22468448052632,76.23647421018367,71.25307010929424
179,21,179,0,5.972633333333339,6.0,30.066592756745816,4.0,6.082762530298219,8.06225774829855,9.0,5.0990195135927845,21.095023109728988,15.033296378372908,12.0,9.0,11.0,5.0,11.0,4.0,1.0,6.082762530298219,6.0,6.0,16.0,14.0,16.0312195418814,82.29823813423954,80.30566605165541,76.23647421018367,71.17583859709698
180,21,180,0,6.006000000000006,6.082762530298219,30.066592756745816,3.0,6.0,8.06225774829855,9.0,6.0,21.02379604162864,15.033296378372908,12.0,9.0,11.0,4.0,11.0,4.0,1.0,6.082762530298219,5.0,5.5,16.0,14.0,16.0312195418814,82.21921916437786,80.22468448052632,75.16648189186454,71.17583859709698
181,21,181,0,6.039366666666672,6.0,30.01666203960727,4.0,6.082762530298219,8.06225774829855,8.0,5.0,21.02379604162864,15.0,12.0,10.0,11.0,5.5,10.5,3.5,1.5,6.082762530298219,6.0,6.0,17.0,14.0,16.0312195418814,82.29823813423954,80.30566605165541,76.23647421018367,71.25307010929424
182,21,182,0,6.072733333333339,4.0,30.066592756745816,4.123105625617661,6.0,7.0,8.0,5.0,19.026297590440446,13.038404810405298,11.0,9.0,11.0,5.0,9.0,2.0,1.0,6.082762530298219,6.0,6.0,16.0,14.0,16.0312195418814,82.38931969618392,80.30566605165541,75.32595834106593,71.17583859709698
183,21,183,0,6.106100000000006,2.23606797749979,28.071337695236398,4.0,6.0,7.0,8.06225774829855,6.0,18.027756377319946,12.041594578792296,11.0,9.0,11.0,4.0,8.0,1.0,0.0,6.082762530298219,6.0,6.0,17.0,14.0,16.0312195418814,82.21921916437786,80.22468448052632,76.23647421018367,71.17583859709698
184,21,184,0,6.139466666666673,1.0,29.154759474226502,4.123105625617661,6.082762530298219,8.06225774829855,8.06225774829855,6.0,17.11724276862369,11.045361017187261,10.5,8.0,11.0,3.5,7.5,0.5,0.5,6.082762530298219,6.0,6.5,16.0,14.0,16.0312195418814,82.29823813423954,80.22468448052632,76.23647421018367,71.25307010929424
185,21,185,0,6.172833333333339,2.0,30.066592756745816,4.0,6.082762530298219,8.06225774829855,8.06225774829855,6.082762530298219,18.110770276274835,12.041594578792296,11.0,9.0,11.0,4.0,8.0,1.0,1.0,6.082762530298219,6.0,6.0,16.0,13.0,17.029386365926403,82.21921916437786,80.30566605165541,76.32168761236873,71.25307010929424
186,21,186,0,6.206200000000006,2.23606797749979,30.066592756745816,5.0,6.0,9.0,9.055385138137417,5.0990195135927845,18.110770276274835,12.165525060596439,11.0,9.0,11.0,5.0,8.0,1.0,0.0,6.082762530298219,6.0,6.0,16.0,13.0,16.1245154965971,82.38931969618392,80.30566605165541,76.32168761236873,70.34912934784623
187,21,187,0,6.239566666666673,3.0,30.265491900843113,4.123105625617661,6.082762530298219,7.0710678118654755,9.0,6.0,19.1049731745428,13.038404810405298,11.5,8.0,12.0,4.0,9.0,2.0,1.0,6.324555320336759,6.0,6.5,17.0,13.0,17.029386365926403,82.49242389456137,79.40403012442127,75.4254598925323,71.34423592694787
188,21,188,0,6.27293333333334,1.0,30.14962686336267,5.0990195135927845,5.0990195135927845,7.0710678118654755,8.06225774829855,7.0710678118654755,18.24828759089466,13.152946437965905,12.5,9.0,12.0,3.5,7.5,1.5,1.5,6.082762530298219,6.0,6.5,16.0,13.0,17.11724276862369,81.49846624323675,79.40403012442127,75.4254598925323,71.449282711585
189,21,189,0,6.306300000000007,0.0,30.14962686336267,4.123105625617661,5.0990195135927845,7.0710678118654755,8.06225774829855,7.0,16.1245154965971,11.045361017187261,11.0,8.0,11.0,2.5,6.5,0.5,1.5,6.082762530298219,6.0,6.5,16.0,12.0,17.029386365926403,81.39410298049853,79.40403012442127,76.4198926981712,71.34423592694787
190,21,190,0,6.339666666666673,0.0,30.14962686336267,4.0,5.0990195135927845,8.06225774829855,8.06225774829855,7.0710678118654755,16.1245154965971,11.045361017187261,11.0,8.0,11.0,2.5,6.5,0.5,1.5,6.082762530298219,6.082762530298219,6.0,17.0,13.0,17.029386365926403,82.38931969618392,79.51100552753688,75.53806987208503,71.56814934033156
191,21,191,0,6.37303333333334,1.0,30.265491900843113,4.0,5.0,8.06225774829855,9.055385138137417,7.0710678118654755,16.1245154965971,11.180339887498949,11.0,7.0,11.0,2.0,7.0,0.0,2.0,2.23606797749979,2.0,2.5,17.0,13.0,17.11724276862369,82.38931969618392,80.39900496896712,76.32168761236873,71.34423592694787
192,21,192,0,6.406400000000007,0.0,30.265491900843113,4.0,6.082762530298219,8.06225774829855,8.246211251235321,7.0710678118654755,17.11724276862369,11.045361017187261,11.0,7.0,11.0,2.0,8.0,1.0,2.0,2.23606797749979,2.23606797749979,2.0,17.0,14.0,17.029386365926403,81.39410298049853,79.40403012442127,75.4254598925323,71.449282711585
193,21,193,0,6.4397666666666735,4.123105625617661,31.144823004794873,3.0,6.0,10.04987562112089,10.198039027185569,6.082762530298219,19.1049731745428,13.152946437965905,11.0,8.0,11.0,3.5,9.5,2.5,0.5,2.23606797749979,2.23606797749979,2.0,17.0,13.0,18.027756377319946,82.38931969618392,79.40403012442127,75.4254598925323,71.449282711585
194,21,194,0,6.47313333333334,5.0990195135927845,32.14031735997639,3.0,5.0,10.04987562112089,10.04987562112089,5.0990195135927845,18.110770276274835,13.152946437965905,10.5,7.0,10.0,3.5,9.5,3.5,0.5,3.1622776601683795,2.0,2.5,16.0,12.0,18.110770276274835,82.38931969618392,80.39900496896712,75.4254598925323,71.449282711585
195,21,195,0,6.506500000000007,4.123105625617661,32.14031735997639,3.0,6.0,8.06225774829855,10.04987562112089,6.082762530298219,19.1049731745428,13.152946437965905,11.0,8.0,11.0,3.5,9.5,2.5,0.5,3.0,3.0,3.0,16.0,13.0,17.029386365926403,82.38931969618392,80.39900496896712,76.32168761236873,71.449282711585
196,21,196,0,6.539866666666674,4.123105625617661,32.0624390837628,3.0,6.0,9.055385138137417,9.055385138137417,6.0,19.026297590440446,13.038404810405298,11.0,8.0,10.0,3.0,10.0,3.0,0.0,5.0990195135927845,5.0,5.0,17.0,13.0,17.029386365926403,82.29823813423954,80.30566605165541,76.4198926981712,71.449282711585
197,21,197,0,6.573233333333341,3.0,32.0624390837628,4.0,6.082762530298219,9.055385138137417,10.04987562112089,6.082762530298219,19.1049731745428,13.038404810405298,11.5,9.0,11.0,4.0,9.0,2.0,0.0,5.0990195135927845,5.0,5.0,17.0,14.0,16.0312195418814,82.49242389456137,79.30952023559341,75.4254598925323,71.34423592694787
198,21,198,0,6.606600000000007,3.0,31.064449134018133,4.0,6.082762530298219,8.06225774829855,9.055385138137417,6.082762530298219,19.1049731745428,13.038404810405298,11.5,9.0,11.0,4.0,9.0,2.0,0.0,6.082762530298219,6.0,6.0,16.0,13.0,16.1245154965971,82.38931969618392,80.39900496896712,75.32595834106593,71.34423592694787
199,21,199,0,6.639966666666674,1.0,30.14962686336267,4.0,6.082762530298219,8.06225774829855,9.0,7.0710678118654755,18.110770276274835,12.041594578792296,11.5,8.0,11.0,2.5,8.5,1.5,1.5,6.082762530298219,5.0,5.5,16.0,13.0,16.0312195418814,83.2946576918352,80.30566605165541,75.32595834106593,71.34423592694787
200,21,200,0,6.673333333333341,0.0,31.144823004794873,4.0,6.082762530298219,8.06225774829855,9.055385138137417,7.0710678118654755,17.11724276862369,11.045361017187261,11.0,8.0,11.0,2.5,7.5,0.5,1.5,6.082762530298219,6.0,5.5,16.0,13.0,16.1245154965971,82.29823813423954,80.30566605165541,75.4254598925323,71.25307010929424
201,21,201,0,6.706700000000008,1.0,30.066592756745816,4.123105625617661,5.0,8.06225774829855,9.055385138137417,7.0,17.029386365926403,12.041594578792296,11.5,9.0,11.0,3.0,7.0,1.0,1.0,6.082762530298219,6.082762530298219,6.0,16.0,13.0,16.0312195418814,81.39410298049853,80.39900496896712,75.32595834106593,71.34423592694787
202,21,202,0,6.740066666666674,1.4142135623730951,31.064449134018133,4.0,6.0,8.06225774829855,8.0,7.0,18.027756377319946,12.041594578792296,11.5,9.0,11.0,3.0,8.0,1.0,1.0,5.0990195135927845,5.0,5.5,16.0,12.0,17.029386365926403,82.29823813423954,80.39900496896712,76.32168761236873,70.34912934784623
203,21,203,0,6.773433333333341,4.123105625617661,32.01562118716424,4.0,6.0,9.055385138137417,9.0,6.0,20.024984394500787,14.035668847618199,12.0,10.0,11.0,4.5,9.5,2.5,0.5,6.324555320336759,6.0,6.0,16.0,12.0,17.029386365926403,82.38931969618392,79.40403012442127,74.43117626371358,70.34912934784623
204,21,204,0,6.806800000000008,4.123105625617661,32.0624390837628,4.0,6.0,9.055385138137417,9.055385138137417,6.0,20.024984394500787,14.035668847618199,12.0,10.0,12.0,5.0,9.0,2.0,1.0,5.385164807134504,5.0,5.5,17.0,13.0,16.0312195418814,82.38931969618392,80.39900496896712,75.32595834106593,70.34912934784623
205,21,205,0,6.840166666666675,4.0,32.0624390837628,4.123105625617661,6.0,9.0,9.0,6.0,20.024984394500787,14.035668847618199,12.0,9.0,11.0,4.0,10.0,3.0,0.0,6.082762530298219,5.0,5.0,16.0,12.0,16.0312195418814,82.29823813423954,80.30566605165541,76.32168761236873,71.25307010929424
206,21,206,0,6.8735333333333415,5.0,31.064449134018133,4.0,6.082762530298219,8.06225774829855,9.0,6.082762530298219,21.095023109728988,15.033296378372908,12.5,10.0,12.0,5.0,10.0,3.0,1.0,6.082762530298219,6.0,6.0,16.0,13.0,15.033296378372908,82.21921916437786,80.30566605165541,76.23647421018367,71.25307010929424
207,21,207,0,6.906900000000008,6.0,31.016124838541646,3.0,6.0,8.0,9.055385138137417,6.0,21.0,15.0,12.0,11.0,12.0,5.5,9.5,2.5,2.5,6.324555320336759,6.0,6.0,15.0,12.0,16.0312195418814,81.30190649671138,79.22752047110903,75.23961722390672,70.178344238091
208,21,208,0,6.940266666666675,5.0,32.01562118716424,4.123105625617661,6.0,9.0,10.0,6.082762530298219,21.0,15.0,12.5,12.0,13.0,6.5,8.5,1.5,2.5,6.082762530298219,6.0,6.0,15.0,14.0,16.0312195418814,82.02438661763951,80.02499609497022,76.05918747922567,72.06247289678588
209,21,209,0,6.973633333333342,5.0,31.016124838541646,5.0,6.0,9.0,10.04987562112089,5.0,21.0,15.0,12.5,13.0,12.0,7.5,8.5,1.5,3.5,5.0,5.0,5.0,13.0,13.0,16.0,81.00617260431454,79.0,76.00657866263946,72.00694410957877
210,21,210,0,7.0070000000000086,5.0,32.0624390837628,5.0,6.0,9.055385138137417,9.055385138137417,5.0,21.0,15.0,12.5,14.0,12.0,8.0,8.0,2.0,4.0,5.0990195135927845,5.0,5.0,12.0,14.0,17.029386365926403,81.05553651663777,81.05553651663777,77.05841939723393,73.02739212103907
211,21,211,0,7.040366666666675,6.0,32.2490309931942,4.0,6.082762530298219,10.0,10.04987562112089,5.0990195135927845,21.095023109728988,15.033296378372908,12.0,15.0,11.0,8.0,8.0,2.0,4.0,5.0990195135927845,5.0990195135927845,4.5,11.0,16.0,15.132745950421556,81.2219182240853,80.22468448052632,76.23647421018367,73.17103251970687
212,21,212,0,7.073733333333342,6.0,32.38826948140329,4.123105625617661,6.082762530298219,9.219544457292887,10.198039027185569,5.0990195135927845,21.213203435596427,15.132745950421556,12.0,15.0,10.0,7.5,8.5,2.5,4.5,5.0990195135927845,4.123105625617661,4.5,10.0,17.0,16.278820596099706,81.61494961096282,80.62257748298549,76.4198926981712,72.44308110509934
213,21,213,0,7.107100000000009,7.0710678118654755,31.575306807693888,4.0,6.082762530298219,9.055385138137417,10.198039027185569,5.0990195135927845,22.20360331117452,16.1245154965971,12.5,17.0,11.0,9.0,8.0,3.0,5.0,4.0,5.0990195135927845,5.0,10.0,18.0,15.297058540778355,82.03657720797473,81.04936767180853,77.10382610480494,72.83543093852057
214,21,214,0,7.140466666666676,7.0,31.78049716414141,4.123105625617661,6.082762530298219,8.246211251235321,9.219544457292887,6.082762530298219,23.194827009486403,17.11724276862369,13.5,17.0,10.0,7.5,9.5,4.5,4.5,3.1622776601683795,3.1622776601683795,3.0,10.0,19.0,16.278820596099706,81.78630692236935,80.60397012554654,76.48529270389177,73.348483283569
215,21,215,0,7.173833333333342,7.0,29.614185789921695,4.123105625617661,6.324555320336759,8.246211251235321,9.219544457292887,6.082762530298219,23.345235059857504,17.11724276862369,13.5,16.0,10.0,7.0,10.0,4.0,4.0,3.1622776601683795,2.23606797749979,2.5,9.0,19.0,16.278820596099706,81.25269226308751,79.07591289387686,76.90253571892151,71.58910531638176
216,21,216,0,7.207200000000009,4.123105625617661,28.635642126552707,4.0,5.0990195135927845,7.0710678118654755,8.246211251235321,7.280109889280518,20.396078054371138,15.297058540778355,13.0,15.0,9.0,5.0,8.0,3.0,2.0,2.23606797749979,2.23606797749979,2.5,10.0,20.0,14.317821063276353,80.2807573457052,80.2807573457052,76.15773105863909,73.00684899377592
217,21,217,0,7.240566666666676,1.0,28.635642126552707,4.123105625617661,5.0990195135927845,7.0710678118654755,8.06225774829855,7.0710678118654755,17.26267650163207,12.165525060596439,11.5,14.0,8.0,4.0,6.0,2.0,1.0,2.0,2.23606797749979,2.0,9.0,19.0,16.492422502470642,81.02468759581859,79.83107164506812,76.68767828015137,72.56721022610694
218,21,218,0,7.273933333333343,0.0,28.442925306655784,4.123105625617661,5.0990195135927845,7.0710678118654755,8.06225774829855,7.0710678118654755,16.278820596099706,11.180339887498949,11.0,12.0,7.0,2.5,6.5,1.5,0.5,3.1622776601683795,2.23606797749979,2.0,10.0,19.0,17.26267650163207,81.58431221748455,80.60397012554654,76.2954782408499,72.18032973047436
219,21,219,0,7.3073000000000095,1.4142135623730951,28.284271247461902,3.0,5.0,7.0710678118654755,7.0710678118654755,7.0710678118654755,16.1245154965971,11.180339887498949,10.5,11.0,7.0,2.0,7.0,2.0,0.0,4.0,4.47213595499958,4.0,11.0,18.0,16.1245154965971,81.74350127074322,79.76214641043707,74.67261881037788,69.72087205421343
220,21,220,0,7.340666666666676,1.0,28.284271247461902,4.0,5.0990195135927845,7.0710678118654755,8.06225774829855,7.0710678118654755,17.11724276862369,12.041594578792296,11.5,12.0,8.0,3.0,7.0,1.0,0.0,5.0,5.385164807134504,5.0,12.0,17.0,16.1245154965971,81.39410298049853,79.40403012442127,74.43117626371358,70.45565981523414
221,21,221,0,7.374033333333343,1.0,29.068883707497267,5.0,7.0,8.06225774829855,9.055385138137417,6.082762530298219,19.026297590440446,12.041594578792296,11.5,10.0,8.0,3.0,10.0,3.0,1.0,5.0,4.123105625617661,4.5,12.0,15.0,17.029386365926403,82.15229759416349,79.1580697086532,75.16648189186454,69.18092222571191
222,21,222,0,7.40740000000001,3.0,31.064449134018133,4.0,6.0,8.06225774829855,9.055385138137417,6.0,19.0,13.0,11.5,10.0,8.0,3.0,10.0,3.0,0.0,5.0990195135927845,5.0990195135927845,5.0,12.0,15.0,16.0312195418814,81.05553651663777,79.1012010022604,74.10802925459562,70.06425622241343
223,21,223,0,7.440766666666676,3.1622776601683795,30.066592756745816,4.0,6.0,7.0710678118654755,8.06225774829855,6.0,19.026297590440446,13.038404810405298,11.5,10.0,8.0,3.0,10.0,4.0,0.0,6.082762530298219,5.0,5.5,13.0,15.0,16.0,82.02438661763951,79.05694150420949,74.02702209328699,70.02856560004639
224,21,224,0,7.474133333333343,2.0,30.066592756745816,4.0,7.0,8.0,9.055385138137417,6.0,19.0,12.0,11.0,10.0,8.0,3.0,10.0,3.0,1.0,5.0990195135927845,5.0990195135927845,5.0,12.0,15.0,16.0312195418814,82.05485969764375,79.05694150420949,74.06078584514209,70.06425622241343
225,21,225,0,7.50750000000001,1.0,29.068883707497267,4.0,7.0,8.0,8.0,7.0710678118654755,19.026297590440446,12.041594578792296,11.5,10.0,8.0,2.0,10.0,3.0,1.0,5.0990195135927845,5.0990195135927845,5.0,13.0,15.0,17.029386365926403,82.02438661763951,79.05694150420949,74.02702209328699,70.06425622241343
226,21,226,0,7.540866666666677,2.23606797749979,29.017236257093817,4.123105625617661,6.082762530298219,8.06225774829855,9.055385138137417,6.0,18.027756377319946,12.0,11.0,9.0,8.0,2.5,9.5,3.5,0.5,6.082762530298219,6.082762530298219,5.5,12.0,14.0,17.029386365926403,82.02438661763951,80.05623023850174,75.05997601918082,71.02816342831905
227,21,227,0,7.574233333333344,2.0,29.068883707497267,4.0,7.0,8.06225774829855,8.06225774829855,6.0,19.0,12.0,11.0,10.0,8.0,3.0,10.0,3.0,0.0,6.0,6.082762530298219,5.5,13.0,15.0,16.0312195418814,82.02438661763951,80.02499609497022,75.02666192761077,70.02856560004639
228,21,228,0,7.60760000000001,1.0,28.0178514522438,4.0,7.0,8.06225774829855,9.055385138137417,7.0710678118654755,19.026297590440446,12.041594578792296,11.5,10.0,9.0,2.5,9.5,2.5,0.5,6.0,6.082762530298219,6.0,13.0,15.0,17.029386365926403,82.02438661763951,80.02499609497022,75.02666192761077,70.02856560004639
229,21,229,0,7.640966666666677,2.0,28.0178514522438,4.0,6.0,8.06225774829855,8.06225774829855,7.0,19.0,13.0,12.0,10.0,9.0,2.5,9.5,2.5,0.5,6.082762530298219,5.0990195135927845,5.5,14.0,15.0,17.0,83.05419917138447,79.02531240052139,74.06078584514209,70.02856560004639
230,21,230,0,7.674333333333344,1.0,27.018512172212592,4.0,6.082762530298219,7.0,7.0,8.0,19.026297590440446,13.0,12.5,11.0,10.0,2.5,8.5,2.5,0.5,6.082762530298219,5.0990195135927845,5.5,14.0,15.0,16.0,82.02438661763951,80.02499609497022,75.02666192761077,71.00704190430693
231,21,231,0,7.707700000000011,3.0,29.068883707497267,4.0,6.0,8.0,8.0,7.0,20.0,14.0,12.5,11.0,9.0,3.0,10.0,3.0,1.0,7.0,6.082762530298219,6.0,13.0,15.0,17.0,82.00609733428362,80.02499609497022,75.0066663703967,70.02856560004639
232,21,232,0,7.741066666666677,3.0,31.016124838541646,4.0,5.0,8.0,9.055385138137417,7.0,19.0,14.0,12.5,10.0,9.0,2.5,9.5,3.5,0.5,7.0710678118654755,6.082762530298219,6.0,13.0,15.0,15.0,82.00609733428362,79.00632886041473,74.00675644831355,70.0
233,21,233,0,7.774433333333344,4.0,32.0,4.0,6.0,8.0,8.0,6.0,20.0,14.0,12.0,10.0,10.0,4.0,10.0,4.0,1.0,7.0,7.0710678118654755,7.0,13.0,15.0,17.029386365926403,83.02409288875127,80.02499609497022,75.05997601918082,71.06335201775947
234,21,234,0,7.807800000000011,5.0,33.015148038438355,4.0,6.0,8.0,10.04987562112089,6.0,21.0,15.0,12.5,12.0,11.0,5.5,9.5,3.5,2.5,7.0,6.082762530298219,6.0,13.0,15.0,16.0312195418814,82.05485969764375,80.09993757800315,76.10519036176179,71.11258679024411
235,21,235,0,7.841166666666678,7.0,33.015148038438355,4.0,6.0,9.0,11.0,6.0,23.0,17.0,13.5,13.0,12.0,6.5,10.5,3.5,2.5,6.082762530298219,6.082762530298219,6.5,13.0,16.0,13.038404810405298,82.15229759416349,79.1580697086532,76.16429609731846,72.11102550927978
236,21,236,0,7.874533333333344,4.0,34.0147027033899,4.0,6.0,10.0,10.0,9.0,23.0,17.0,15.0,14.0,13.0,4.5,9.5,3.5,0.5,6.0,6.082762530298219,6.5,12.0,15.0,14.035668847618199,80.15609770940699,79.1580697086532,76.16429609731846,72.17340230306452
237,21,237,0,7.907900000000011,9.055385138137417,35.014282800023196,4.0,6.082762530298219,10.04987562112089,11.045361017187261,7.0710678118654755,26.019223662515376,20.0,15.5,16.0,15.0,8.5,10.5,4.5,5.5,6.0,6.0,5.5,11.0,14.0,13.152946437965905,82.29823813423954,80.30566605165541,76.4198926981712,72.44308110509934
238,21,238,0,7.941266666666678,11.0,34.132096331752024,4.0,6.082762530298219,10.0,11.045361017187261,6.082762530298219,27.073972741361768,21.02379604162864,15.5,18.0,15.0,10.5,10.5,4.5,6.5,5.0,5.0,5.0,11.0,15.0,14.142135623730951,81.30190649671138,80.30566605165541,76.4198926981712,71.449282711585
239,21,239,0,7.974633333333345,12.0,34.132096331752024,5.0990195135927845,6.0,9.055385138137417,10.198039027185569,6.0,29.017236257093817,23.021728866442675,17.0,19.0,16.0,11.5,11.5,5.5,7.5,5.0,5.0990195135927845,5.0,10.0,15.0,14.142135623730951,82.49242389456137,80.50465825031493,76.53103945458993,72.44308110509934
240,21,240,0,8.008000000000012,13.0,34.132096331752024,5.0,5.0990195135927845,10.04987562112089,11.045361017187261,6.082762530298219,29.068883707497267,24.020824298928627,17.5,20.0,17.0,12.5,10.5,5.5,8.5,5.0990195135927845,5.0990195135927845,4.5,10.0,15.0,14.142135623730951,81.49846624323675,79.63039620647382,76.53103945458993,72.44308110509934
241,21,241,0,8.041366666666677,14.0,35.22782990761707,5.0,5.0990195135927845,10.04987562112089,11.180339887498949,6.082762530298219,30.066592756745816,25.019992006393608,18.0,21.0,17.0,13.0,11.0,6.0,9.0,5.0990195135927845,4.0,4.5,10.0,15.0,14.142135623730951,82.60750571225353,80.62257748298549,76.6550715869472,71.7007670809734
242,21,242,0,8.074733333333343,15.0,33.13608305156178,4.0,5.0990195135927845,10.04987562112089,11.045361017187261,6.082762530298219,30.066592756745816,25.019992006393608,17.5,21.0,18.0,13.5,10.5,5.5,9.5,5.0990195135927845,4.0,4.5,9.0,15.0,15.132745950421556,81.74350127074322,80.62257748298549,76.6550715869472,71.56814934033156
243,21,243,0,8.10810000000001,14.0,34.132096331752024,4.0,6.0,10.04987562112089,11.045361017187261,7.0710678118654755,31.016124838541646,25.019992006393608,18.0,22.0,19.0,13.5,10.5,5.5,9.5,5.0,5.0,5.0,10.0,15.0,15.132745950421556,82.49242389456137,80.62257748298549,76.6550715869472,71.7007670809734
244,21,244,0,8.141466666666675,14.0,34.132096331752024,4.0,6.082762530298219,9.055385138137417,10.04987562112089,7.0,31.016124838541646,25.0,18.0,22.0,19.0,13.5,10.5,5.5,9.5,5.0990195135927845,5.0990195135927845,5.0,10.0,15.0,14.035668847618199,81.49846624323675,80.62257748298549,76.6550715869472,72.56031973468694
245,21,245,0,8.174833333333341,15.0,34.058772731852805,5.0990195135927845,6.0,10.0,11.045361017187261,6.0,32.01562118716424,26.019223662515376,18.5,22.0,20.0,15.0,11.0,5.0,10.0,5.0,4.123105625617661,4.0,10.0,14.0,15.033296378372908,82.38931969618392,80.39900496896712,77.52418977325722,72.44308110509934
246,21,246,0,8.208200000000007,11.0,33.06055050963308,6.0,6.0,10.0,10.04987562112089,8.0,31.0,25.0,19.5,22.0,20.0,13.0,10.0,4.0,7.0,4.123105625617661,4.123105625617661,4.0,10.0,13.0,15.132745950421556,82.15229759416349,80.15609770940699,77.23341245859851,72.17340230306452
247,21,247,0,8.241566666666673,11.0,33.06055050963308,5.0,5.0,9.0,10.0,10.0,31.0,26.0,20.5,23.0,21.0,12.0,9.0,4.0,7.0,5.0,4.0,4.0,10.0,13.0,15.033296378372908,81.15417426109393,80.15609770940699,77.1621668954417,72.17340230306452
248,21,248,0,8.274933333333339,10.0,32.01562118716424,4.0,5.0,9.055385138137417,9.055385138137417,11.045361017187261,30.01666203960727,25.019992006393608,20.0,21.0,20.0,9.5,9.5,4.5,6.5,5.0,5.0,5.0,11.0,13.0,15.033296378372908,82.15229759416349,80.09993757800315,76.16429609731846,72.17340230306452
249,21,249,0,8.308300000000004,11.0,32.01562118716424,5.0,5.0,8.0,10.04987562112089,10.0,31.0,26.0,20.5,22.0,21.0,11.5,9.5,4.5,6.5,5.0,5.0,5.0,11.0,13.0,14.035668847618199,81.05553651663777,80.05623023850174,77.10382610480494,72.06247289678588
250,21,250,0,8.34166666666667,12.0,33.015148038438355,4.0,6.0,9.0,10.0,10.04987562112089,32.01562118716424,26.019223662515376,20.0,22.0,21.0,11.5,10.5,4.5,6.5,5.0,6.0,6.0,11.0,12.0,14.035668847618199,81.05553651663777,80.05623023850174,77.02596964660685,72.02777242147643
251,21,251,0,8.375033333333336,12.041594578792296,32.01562118716424,5.0,6.0,9.0,10.0,9.0,32.01562118716424,26.019223662515376,20.0,22.0,21.0,12.5,10.5,4.5,7.5,5.0990195135927845,5.0,5.0,11.0,13.0,14.035668847618199,80.02499609497022,80.05623023850174,76.02631123499285,72.06247289678588
252,21,252,0,8.408400000000002,11.0,31.016124838541646,4.0,5.0,9.055385138137417,10.04987562112089,10.04987562112089,30.01666203960727,25.019992006393608,19.5,21.0,20.0,10.5,9.5,4.5,6.5,6.0,5.0,5.5,11.0,13.0,15.0,80.09993757800315,79.1012010022604,76.16429609731846,71.11258679024411
253,21,253,0,8.441766666666668,11.0,32.0,4.0,5.0,9.0,10.0,10.0,30.0,25.0,19.5,21.0,21.0,11.0,9.0,4.0,6.0,6.0,5.0,6.0,12.0,13.0,14.0,80.09993757800315,79.1012010022604,75.1065909225016,72.11102550927978
254,21,254,0,8.475133333333334,10.0,32.0,4.0,5.0,9.0,9.055385138137417,10.04987562112089,29.017236257093817,24.020824298928627,19.0,20.0,20.0,10.0,9.0,4.0,6.0,6.0,6.0,6.0,11.0,12.0,14.035668847618199,81.15417426109393,80.15609770940699,77.1621668954417,72.11102550927978
255,21,255,0,8.5085,11.045361017187261,32.0,4.0,4.0,9.0,10.0,8.0,27.018512172212592,23.021728866442675,17.5,20.0,20.0,12.0,7.0,3.0,8.0,5.0,6.082762530298219,6.5,11.0,13.0,15.033296378372908,81.05553651663777,79.1012010022604,76.10519036176179,72.11102550927978
256,21,256,0,8.541866666666666,8.06225774829855,33.0,3.0,5.0,8.06225774829855,9.0,8.0,24.020824298928627,19.026297590440446,15.0,17.0,17.0,9.0,7.0,2.0,5.0,6.0,6.0,6.0,10.0,12.0,13.0,81.15417426109393,79.1012010022604,76.10519036176179,72.11102550927978
257,21,257,0,8.575233333333331,8.06225774829855,31.016124838541646,5.0,5.0990195135927845,10.0,11.045361017187261,5.0,23.0,18.027756377319946,14.0,18.0,17.0,12.5,5.5,0.5,7.5,6.0,6.0,6.0,10.0,11.0,14.035668847618199,81.15417426109393,79.22752047110903,76.23647421018367,71.25307010929424
258,21,258,0,8.608599999999997,8.06225774829855,29.017236257093817,5.0,5.0,9.055385138137417,11.0,4.0,22.02271554554524,17.029386365926403,13.0,17.0,16.0,12.5,5.5,0.5,7.5,6.0,6.082762530298219,6.0,11.0,13.0,14.0,81.2219182240853,79.22752047110903,76.23647421018367,71.25307010929424
259,21,259,0,8.641966666666663,7.0710678118654755,31.016124838541646,5.0,5.0990195135927845,9.0,11.0,5.0,22.0,17.029386365926403,13.5,17.0,16.0,11.5,5.5,0.5,6.5,7.0,6.0,6.5,11.0,12.0,12.041594578792296,81.2219182240853,80.22468448052632,76.23647421018367,73.33484846919642
260,21,260,0,8.67533333333333,7.0,30.01666203960727,5.0,6.0,10.0,10.04987562112089,4.0,22.0,16.0,12.5,16.0,15.0,11.5,6.5,0.5,6.5,7.0,7.0,7.0,10.0,12.0,14.035668847618199,80.15609770940699,78.23042886243178,76.32168761236873,71.34423592694787
261,21,261,0,8.708699999999995,7.0710678118654755,29.068883707497267,5.0990195135927845,6.082762530298219,9.0,11.045361017187261,4.0,22.02271554554524,16.0,12.5,17.0,15.0,12.0,6.0,0.0,7.0,6.0,6.0,6.5,10.0,12.0,13.038404810405298,80.22468448052632,78.23042886243178,75.23961722390672,71.25307010929424
262,21,262,0,8.74206666666666,7.0710678118654755,29.068883707497267,5.0,6.082762530298219,9.0,10.04987562112089,4.123105625617661,22.02271554554524,16.0,12.5,17.0,15.0,12.0,6.0,0.0,7.0,6.0,6.0,6.0,11.0,13.0,13.038404810405298,80.22468448052632,78.23042886243178,75.23961722390672,72.24956747275377
263,21,263,0,8.775433333333327,7.0,30.066592756745816,5.0,5.0,10.0,10.0,5.0990195135927845,22.02271554554524,17.029386365926403,13.5,18.0,16.0,12.0,5.0,0.0,7.0,6.082762530298219,6.0,6.0,10.0,12.0,13.038404810405298,80.15609770940699,79.22752047110903,76.23647421018367,72.3394774656273
264,21,264,0,8.808799999999993,7.0,30.066592756745816,5.0,5.0,10.04987562112089,11.0,4.0,21.0,16.0,12.5,17.0,15.0,12.0,5.0,0.0,7.0,6.0,6.0,6.0,11.0,13.0,12.041594578792296,81.2219182240853,79.22752047110903,76.32168761236873,72.24956747275377
265,21,265,0,8.842166666666659,7.0,29.017236257093817,5.0,5.0,9.0,10.04987562112089,4.123105625617661,21.02379604162864,16.0312195418814,12.5,16.0,15.0,11.5,5.5,0.5,6.5,6.0,7.0,7.0,11.0,13.0,14.0,79.1580697086532,79.22752047110903,75.32595834106593,71.449282711585
266,21,266,0,8.875533333333324,6.082762530298219,30.066592756745816,5.0990195135927845,5.0990195135927845,9.0,10.04987562112089,5.0,21.02379604162864,16.0,13.0,17.0,15.0,11.0,5.0,0.0,6.0,6.0,6.082762530298219,6.0,10.0,12.0,13.038404810405298,80.30566605165541,78.40918313565064,75.4254598925323,72.56031973468694
267,21,267,0,8.90889999999999,6.0,29.068883707497267,5.0990195135927845,6.0,9.0,10.04987562112089,4.0,21.02379604162864,15.033296378372908,12.0,16.0,14.0,11.0,6.0,0.0,6.0,6.082762530298219,7.0710678118654755,7.0,11.0,13.0,13.038404810405298,80.22468448052632,78.31347265956222,74.33034373659252,71.34423592694787
268,21,268,0,8.942266666666656,6.0,30.066592756745816,4.123105625617661,6.0,9.055385138137417,10.04987562112089,5.0,21.02379604162864,15.033296378372908,12.0,17.0,15.0,11.0,5.0,0.0,7.0,7.0,7.0,7.0,10.0,13.0,14.0,80.30566605165541,78.40918313565064,75.53806987208503,71.56814934033156
269,21,269,0,8.975633333333322,6.0,30.066592756745816,5.0,6.082762530298219,9.0,9.055385138137417,5.0990195135927845,22.090722034374522,16.0312195418814,13.0,17.0,15.0,11.0,6.0,0.0,6.0,6.0,6.0,6.0,10.0,12.0,12.041594578792296,80.39900496896712,79.51100552753688,75.66372975210778,72.69112738154499
270,21,270,0,9.008999999999988,6.082762530298219,29.068883707497267,5.0,6.0,9.055385138137417,10.04987562112089,4.0,21.02379604162864,15.033296378372908,12.0,17.0,15.0,12.0,5.0,1.0,7.0,6.082762530298219,6.082762530298219,6.0,10.0,13.0,13.038404810405298,79.40403012442127,78.40918313565064,75.53806987208503,71.7007670809734
271,21,271,0,9.042366666666654,6.0,29.154759474226502,4.123105625617661,6.082762530298219,9.055385138137417,10.04987562112089,5.0,21.095023109728988,15.033296378372908,12.0,17.0,14.0,10.5,5.5,0.5,6.5,5.0,5.0990195135927845,5.0,10.0,13.0,13.038404810405298,79.40403012442127,78.5175139698144,75.66372975210778,71.84705978674423
272,21,272,0,9.07573333333332,5.0,30.265491900843113,5.0,6.082762530298219,9.055385138137417,10.04987562112089,5.0990195135927845,21.095023109728988,15.033296378372908,12.5,18.0,14.0,11.0,5.0,1.0,6.0,3.0,3.1622776601683795,3.0,11.0,14.0,13.038404810405298,80.39900496896712,78.5175139698144,75.66372975210778,71.7007670809734
273,21,273,0,9.109099999999986,6.082762530298219,30.265491900843113,4.0,6.0,9.055385138137417,10.04987562112089,5.0,21.02379604162864,15.033296378372908,12.0,17.0,13.0,10.0,6.0,0.0,6.0,3.1622776601683795,3.0,3.0,11.0,14.0,12.041594578792296,80.50465825031493,77.64663547121665,75.66372975210778,72.83543093852057
274,21,274,0,9.142466666666651,5.0,30.265491900843113,5.0,6.082762530298219,9.055385138137417,10.04987562112089,5.0990195135927845,21.095023109728988,15.033296378372908,12.5,18.0,14.0,11.0,5.0,0.0,6.0,3.0,2.0,2.0,10.0,14.0,12.041594578792296,80.39900496896712,79.63039620647382,76.6550715869472,72.56031973468694
275,21,275,0,9.175833333333316,5.0990195135927845,30.265491900843113,5.0,6.0,9.219544457292887,10.198039027185569,5.0,21.02379604162864,15.033296378372908,12.5,18.0,14.0,11.0,5.0,0.0,7.0,3.1622776601683795,3.0,3.0,10.0,14.0,12.165525060596439,79.63039620647382,78.77182237323191,74.96665925596525,71.84705978674423
276,21,276,0,9.209199999999983,10.0,30.4138126514911,5.0990195135927845,6.082762530298219,10.04987562112089,11.180339887498949,4.0,25.079872407968907,19.026297590440446,14.0,20.0,15.0,13.5,7.5,1.5,8.5,3.1622776601683795,3.1622776601683795,3.0,9.0,14.0,13.038404810405298,79.63039620647382,78.91767862779544,73.824115301167,71.02112361825881
277,21,277,0,9.242566666666647,12.0,32.2490309931942,4.123105625617661,6.0,10.198039027185569,11.180339887498949,6.0,28.0178514522438,22.02271554554524,16.0,21.0,17.0,13.0,9.0,4.0,10.0,3.1622776601683795,4.123105625617661,4.0,8.0,13.0,12.041594578792296,79.76214641043707,77.92945527847606,74.96665925596525,70.03570517957252
278,21,278,0,9.275933333333317,13.0,31.575306807693888,4.123105625617661,5.0,9.219544457292887,11.180339887498949,6.0,28.0178514522438,23.021728866442675,16.5,22.0,16.0,13.0,9.0,4.0,10.0,5.0,4.123105625617661,4.0,7.0,13.0,11.045361017187261,79.76214641043707,77.92945527847606,73.97972695272672,70.03570517957252
279,21,279,0,9.30929999999998,9.0,31.400636936215164,4.123105625617661,5.0,9.055385138137417,11.180339887498949,6.0,24.020824298928627,19.026297590440446,14.5,20.0,15.0,11.5,6.5,2.5,8.5,4.123105625617661,4.0,4.0,8.0,13.0,10.198039027185569,79.90619500389191,77.92945527847606,73.97972695272672,71.02112361825881
280,21,280,0,9.342666666666648,3.0,31.400636936215164,5.0990195135927845,6.082762530298219,9.055385138137417,10.198039027185569,6.0,20.09975124224178,14.035668847618199,12.5,18.0,13.0,9.5,4.5,0.5,5.5,4.0,4.123105625617661,3.5,7.0,13.0,10.04987562112089,79.76214641043707,78.77182237323191,73.68174807915459,70.57619995437555
281,21,281,0,9.376033333333313,0.0,31.25699921617557,6.082762530298219,6.0,8.06225774829855,9.055385138137417,5.0,17.029386365926403,11.045361017187261,11.0,16.0,12.0,9.0,3.0,2.0,4.0,4.123105625617661,4.123105625617661,4.0,7.0,13.0,9.219544457292887,79.63039620647382,77.64663547121665,75.66372975210778,71.56814934033156
282,21,282,0,9.409399999999978,1.0,31.25699921617557,5.0,5.0990195135927845,8.06225774829855,9.055385138137417,6.082762530298219,17.11724276862369,12.041594578792296,11.5,16.0,12.0,8.0,3.0,2.0,3.0,4.123105625617661,3.1622776601683795,3.5,7.0,12.0,10.04987562112089,80.50465825031493,78.40918313565064,76.4198926981712,72.3394774656273
283,21,283,0,9.442766666666644,1.4142135623730951,31.25699921617557,6.0,6.0,9.055385138137417,9.055385138137417,7.0,20.024984394500787,14.035668847618199,13.5,17.0,13.0,8.0,5.0,1.0,3.0,4.123105625617661,4.0,3.5,7.0,12.0,10.04987562112089,80.30566605165541,79.30952023559341,75.23961722390672,71.17583859709698
284,21,284,0,9.47613333333331,7.0,31.25699921617557,4.0,5.0990195135927845,10.04987562112089,10.04987562112089,6.082762530298219,22.090722034374522,17.029386365926403,13.5,18.0,14.0,10.0,6.0,1.0,6.0,4.123105625617661,3.0,3.5,7.0,12.0,10.04987562112089,80.22468448052632,78.16009211867653,75.1065909225016,72.06247289678588
285,21,285,0,9.509499999999976,7.0,31.144823004794873,5.0,6.082762530298219,10.04987562112089,11.045361017187261,6.082762530298219,24.08318915758459,18.027756377319946,14.5,19.0,16.0,11.5,6.5,1.5,7.5,3.0,4.0,4.0,7.0,12.0,10.04987562112089,81.15417426109393,79.1012010022604,76.05918747922567,72.02777242147643
286,21,286,0,9.542866666666642,9.0,32.14031735997639,5.0,6.082762530298219,10.04987562112089,11.045361017187261,5.0990195135927845,25.079872407968907,19.026297590440446,14.5,20.0,17.0,13.5,6.5,0.5,8.5,3.0,3.0,3.0,7.0,11.0,9.055385138137417,81.00617260431454,80.00624975587844,78.02563681252464,73.02739212103907
287,21,287,0,9.576233333333308,9.0,32.0624390837628,4.0,6.0,10.04987562112089,11.045361017187261,5.0990195135927845,24.020824298928627,18.027756377319946,13.5,18.0,16.0,12.0,7.0,2.0,8.0,4.0,3.0,3.0,8.0,10.0,9.0,81.00617260431454,80.02499609497022,77.05841939723393,73.10950690573696
288,21,288,0,9.609599999999974,8.0,32.0624390837628,5.0,6.082762530298219,10.0,11.045361017187261,5.0990195135927845,24.0,18.027756377319946,14.0,18.0,16.0,12.0,7.0,1.0,7.0,3.0,3.0,3.0,8.0,10.0,9.055385138137417,81.05553651663777,81.09870529176159,77.1621668954417,73.24616030891995
289,21,289,0,9.64296666666664,3.0,32.01562118716424,5.0990195135927845,6.0,9.0,9.055385138137417,6.082762530298219,20.0,14.0,12.5,16.0,15.0,9.5,4.5,1.5,4.5,3.0,2.0,2.5,10.0,10.0,8.0,81.15417426109393,80.22468448052632,78.40918313565064,75.53806987208503
290,21,290,0,9.676333333333304,1.0,32.0,6.0,7.0710678118654755,10.0,10.0,5.0,19.026297590440446,12.0,11.5,14.0,14.0,9.0,5.0,2.0,3.0,2.0,3.0,2.5,11.0,11.0,8.0,81.15417426109393,81.2219182240853,79.40403012442127,74.54528824815154
291,21,291,0,9.709699999999971,4.0,32.0,5.0,6.0,9.0,10.0,6.0,21.0,15.0,13.0,15.0,15.0,9.0,6.0,1.0,4.0,2.0,3.1622776601683795,2.5,12.0,11.0,9.055385138137417,81.2219182240853,80.39900496896712,77.52418977325722,73.824115301167
292,21,292,0,9.743066666666635,8.0,32.01562118716424,4.0,5.0,10.0,11.0,5.0,22.0,17.0,13.0,13.0,14.0,8.5,8.5,2.5,4.5,2.0,2.23606797749979,2.0,13.0,12.0,10.04987562112089,81.30190649671138,80.50465825031493,78.63841300535,73.824115301167
293,21,293,0,9.776433333333305,8.0,32.0624390837628,4.0,7.0,9.055385138137417,10.0,6.0,25.0,18.0,14.0,14.0,16.0,9.0,10.0,2.0,5.0,2.0,3.0,2.5,13.0,11.0,10.04987562112089,81.49846624323675,80.75270893288967,77.92945527847606,73.16419889536138
294,21,294,0,9.809799999999967,8.0,33.13608305156178,3.0,6.082762530298219,9.055385138137417,10.04987562112089,6.0,23.021728866442675,17.0,13.0,12.0,15.0,7.5,9.5,3.5,4.5,3.1622776601683795,3.0,2.5,13.0,10.0,10.198039027185569,81.61494961096282,80.89499366462674,78.08969202141856,73.348483283569
295,21,295,0,9.843166666666637,5.0,31.064449134018133,2.23606797749979,5.0,8.06225774829855,9.055385138137417,10.0,22.02271554554524,17.029386365926403,14.5,13.0,15.0,4.0,8.0,2.0,1.0,4.123105625617661,4.123105625617661,4.0,12.0,9.0,10.04987562112089,81.61494961096282,81.88406438373708,78.08969202141856,73.348483283569
296,21,296,0,9.8765333333333,5.0,32.14031735997639,3.0,6.082762530298219,9.055385138137417,9.055385138137417,9.0,23.021728866442675,17.0,14.5,12.0,15.0,4.5,9.5,2.5,1.5,4.123105625617661,4.123105625617661,4.0,12.0,8.0,10.04987562112089,82.60750571225353,80.89499366462674,78.08969202141856,73.348483283569
297,21,297,0,9.909899999999968,2.0,31.25699921617557,3.0,6.082762530298219,8.06225774829855,8.06225774829855,11.045361017187261,22.090722034374522,16.0312195418814,15.0,12.0,16.0,3.0,8.0,1.0,0.0,4.123105625617661,4.0,4.0,14.0,9.0,11.180339887498949,81.88406438373708,81.21576201698781,79.42921376924235,73.7563556583431
298,21,298,0,9.943266666666633,8.06225774829855,31.25699921617557,3.0,6.0,8.06225774829855,9.055385138137417,9.055385138137417,26.076809620810597,20.09975124224178,16.0,14.0,18.0,7.0,10.0,3.0,3.0,4.123105625617661,5.0,5.0,14.0,9.0,11.180339887498949,81.88406438373708,81.39410298049853,77.6659513557904,73.00684899377592
299,21,299,0,9.976633333333298,8.0,30.4138126514911,5.0990195135927845,7.0710678118654755,9.055385138137417,10.04987562112089,7.0710678118654755,27.16615541441225,20.09975124224178,16.0,13.0,18.0,8.5,11.5,3.5,3.5,4.123105625617661,5.0990195135927845,5.0,14.0,8.0,11.180339887498949,81.04936767180853,80.60397012554654,76.90253571892151,73.00684899377592
300,21,300,0,10.009999999999964,8.06225774829855,28.635642126552707,5.0,6.082762530298219,8.06225774829855,10.198039027185569,6.082762530298219,25.179356624028344,19.1049731745428,15.0,12.0,18.0,9.0,10.0,2.0,4.0,5.0990195135927845,5.0990195135927845,5.0,14.0,9.0,10.198039027185569,80.89499366462674,80.4114419718985,76.68767828015137,72.03471385380801
301,21,301,0,10.04336666666663,1.0,29.614185789921695,5.0990195135927845,6.082762530298219,7.0710678118654755,8.246211251235321,8.06225774829855,20.223748416156685,14.142135623730951,13.5,11.0,17.0,6.0,6.0,1.0,1.0,5.0990195135927845,5.0990195135927845,5.0,14.0,8.0,10.198039027185569,82.03657720797473,80.4114419718985,76.68767828015137,72.27724399837061
302,21,302,0,10.076733333333296,0.0,30.4138126514911,5.0990195135927845,5.0990195135927845,7.280109889280518,8.246211251235321,7.0710678118654755,17.26267650163207,12.165525060596439,12.0,10.0,15.0,5.5,4.5,1.5,0.5,5.0990195135927845,5.0,5.0,14.0,8.0,10.198039027185569,81.04936767180853,80.4114419718985,76.68767828015137,72.78049189171504
303,21,303,0,10.110099999999962,1.0,30.4138126514911,5.0,6.082762530298219,8.246211251235321,8.246211251235321,6.324555320336759,18.24828759089466,12.165525060596439,11.5,10.0,15.0,6.5,5.5,1.5,0.5,5.0990195135927845,5.0990195135927845,5.0,14.0,9.0,11.180339887498949,82.20097323024831,80.60397012554654,77.87810988975015,72.03471385380801
304,21,304,0,10.143466666666628,2.23606797749979,29.427877939124322,6.0,6.0,8.06225774829855,9.219544457292887,6.082762530298219,20.09975124224178,14.142135623730951,13.0,11.0,16.0,7.5,6.5,0.5,1.5,5.0990195135927845,5.0,5.0,13.0,8.0,11.180339887498949,80.89499366462674,80.23091673413684,77.27871634544663,71.58910531638176
305,21,305,0,10.176833333333294,3.0,29.274562336608895,5.0990195135927845,6.082762530298219,7.0710678118654755,8.06225774829855,7.0710678118654755,21.213203435596427,15.132745950421556,13.5,12.0,16.0,7.0,7.0,0.0,2.0,5.0990195135927845,5.0,5.0,14.0,9.0,11.180339887498949,81.88406438373708,80.06247560499239,76.2954782408499,72.3671196055225
306,21,306,0,10.21019999999996,1.0,29.274562336608895,6.0,6.082762530298219,8.06225774829855,8.06225774829855,7.0710678118654755,20.09975124224178,14.035668847618199,13.5,11.0,15.0,6.0,7.0,0.0,0.0,5.0990195135927845,5.0,5.0,13.0,8.0,12.165525060596439,81.74350127074322,81.04936767180853,77.10382610480494,73.348483283569
307,21,307,0,10.243566666666624,1.0,30.14962686336267,5.0,5.0990195135927845,8.06225774829855,8.06225774829855,7.280109889280518,18.24828759089466,13.152946437965905,12.5,12.0,15.0,6.5,4.5,1.5,1.5,5.0990195135927845,5.0990195135927845,5.0,13.0,9.0,11.045361017187261,80.75270893288967,80.89499366462674,77.10382610480494,72.18032973047436
308,21,308,0,10.276933333333291,1.0,30.14962686336267,5.0,6.0,7.0710678118654755,9.055385138137417,7.0710678118654755,18.110770276274835,12.165525060596439,12.0,11.0,14.0,5.5,5.5,1.5,0.5,5.0990195135927845,5.0,5.5,12.0,9.0,12.165525060596439,81.61494961096282,80.75270893288967,76.94153624668537,73.16419889536138
309,21,309,0,10.310299999999955,2.23606797749979,29.154759474226502,5.0,5.0,8.06225774829855,8.06225774829855,7.0710678118654755,19.1049731745428,14.142135623730951,13.0,12.0,15.0,6.5,5.5,0.5,1.5,5.0,6.0,5.5,13.0,9.0,10.04987562112089,81.49846624323675,80.75270893288967,77.78174593052023,72.99315036357864
310,21,310,0,10.343666666666625,5.0990195135927845,30.066592756745816,4.0,5.0,8.06225774829855,9.055385138137417,6.0,20.024984394500787,15.033296378372908,12.5,12.0,14.0,7.0,7.0,1.0,2.0,5.0990195135927845,5.0,5.0,12.0,9.0,12.165525060596439,82.49242389456137,80.62257748298549,76.6550715869472,72.83543093852057
311,21,311,0,10.377033333333287,4.0,31.064449134018133,5.0990195135927845,6.0,9.0,9.055385138137417,5.0,20.024984394500787,14.035668847618199,12.0,12.0,14.0,8.0,7.0,1.0,3.0,5.0,5.0,5.0,12.0,9.0,11.180339887498949,81.39410298049853,80.50465825031493,77.52418977325722,73.55270219373317
312,21,312,0,10.410399999999957,4.0,32.14031735997639,5.0,6.0,9.055385138137417,10.04987562112089,5.0990195135927845,20.024984394500787,14.035668847618199,12.0,11.0,14.0,7.5,7.5,0.5,2.5,5.0,5.0,5.0,13.0,10.0,11.045361017187261,81.2219182240853,79.30952023559341,76.53103945458993,72.56031973468694
313,21,313,0,10.44376666666662,1.0,30.066592756745816,6.0,6.082762530298219,9.055385138137417,9.0,5.0,18.027756377319946,12.0,11.5,12.0,14.0,8.0,5.0,2.0,2.0,5.0,5.0,5.0,12.0,10.0,11.045361017187261,81.2219182240853,80.30566605165541,76.32168761236873,72.3394774656273
314,21,314,0,10.477133333333288,0.0,30.01666203960727,5.0,6.0,8.0,9.0,5.0,16.0,10.0,10.0,11.0,12.0,6.5,4.5,1.5,1.5,5.0990195135927845,5.0,5.0,11.0,10.0,11.045361017187261,81.15417426109393,79.1580697086532,76.23647421018367,72.24956747275377
315,21,315,0,10.510499999999952,1.0,29.068883707497267,6.0,5.0990195135927845,8.06225774829855,9.0,4.0,16.0312195418814,11.0,10.5,11.0,13.0,8.0,4.0,2.0,2.0,6.0,5.0,5.0,12.0,11.0,10.0,80.02499609497022,79.05694150420949,76.10519036176179,71.17583859709698
316,21,316,0,10.543866666666618,2.0,30.01666203960727,5.0,6.082762530298219,8.0,9.0,5.0,18.027756377319946,12.0,11.0,12.0,13.0,7.5,5.5,0.5,2.5,5.0,5.0,5.0,11.0,11.0,11.0,80.02499609497022,79.05694150420949,75.1065909225016,71.11258679024411
317,21,317,0,10.577233333333284,4.123105625617661,29.0,5.0,6.0,9.0,9.0,4.0,19.026297590440446,13.038404810405298,11.0,13.0,13.0,9.0,6.0,0.0,4.0,5.0990195135927845,5.0,5.0,11.0,11.0,11.0,79.00632886041473,78.02563681252464,74.06078584514209,70.11419257183242
318,21,318,0,10.61059999999995,5.0990195135927845,29.0,5.0,6.0,9.0,10.0,4.123105625617661,20.0,14.0,11.5,13.0,13.0,9.0,7.0,1.0,4.0,5.0,5.0,5.0,11.0,12.0,10.0,79.0,78.00640999302557,74.02702209328699,70.02856560004639
319,21,319,0,10.643966666666616,6.0,29.0,6.0,6.0,9.0,10.0,4.0,22.0,16.0,13.0,14.0,14.0,10.0,8.0,1.0,4.0,6.0,6.082762530298219,6.0,11.0,11.0,11.045361017187261,80.0,79.0,75.0066663703967,71.02816342831905
320,21,320,0,10.677333333333282,7.0,30.01666203960727,5.0,6.0,9.0,9.055385138137417,4.0,22.0,16.0,12.5,14.0,13.0,9.5,8.5,1.5,4.5,3.0,3.0,3.0,11.0,12.0,10.0,79.00632886041473,77.0,74.0,70.0
321,21,321,0,10.710699999999948,7.0710678118654755,30.01666203960727,4.123105625617661,7.0710678118654755,9.0,10.0,5.0,23.021728866442675,16.0,12.5,15.0,14.0,9.5,8.5,1.5,5.5,2.0,2.0,2.0,11.0,13.0,11.045361017187261,79.02531240052139,78.02563681252464,74.00675644831355,71.00704190430693
322,21,322,0,10.744066666666614,7.0,30.01666203960727,5.0,6.0,10.0,10.0,4.123105625617661,22.02271554554524,16.0312195418814,12.5,14.0,13.0,9.5,8.5,2.5,4.5,2.23606797749979,2.0,1.5,10.0,12.0,10.0,79.02531240052139,78.02563681252464,74.02702209328699,70.00714249274856
323,21,323,0,10.77743333333328,6.0,30.066592756745816,5.0,7.0710678118654755,9.055385138137417,11.0,4.0,22.02271554554524,15.0,12.0,14.0,12.0,9.0,9.0,2.0,5.0,3.1622776601683795,3.0,3.0,10.0,13.0,11.0,79.05694150420949,78.10249675906654,74.02702209328699,71.02816342831905
324,21,324,0,10.810799999999944,6.0,30.066592756745816,5.0,6.082762530298219,9.0,10.04987562112089,4.0,21.02379604162864,15.0,12.0,14.0,12.0,9.0,8.0,2.0,4.0,3.0,2.23606797749979,2.5,10.0,13.0,11.0,79.1012010022604,77.05841939723393,74.06078584514209,70.02856560004639
325,21,325,0,10.844166666666611,6.082762530298219,30.066592756745816,4.123105625617661,6.082762530298219,9.0,10.04987562112089,5.0,21.02379604162864,15.0,12.0,14.0,12.0,8.0,8.0,2.0,4.0,2.0,3.0,2.5,10.0,13.0,10.04987562112089,80.15609770940699,78.16009211867653,74.16872656315464,70.06425622241343
326,21,326,0,10.877533333333275,6.0,30.066592756745816,4.0,5.0,10.0,11.045361017187261,5.0,20.0,15.0,12.0,14.0,12.0,8.0,7.0,1.0,4.0,3.0,4.0,4.0,10.0,12.0,10.0,80.15609770940699,78.23042886243178,75.16648189186454,71.17583859709698
327,21,327,0,10.910899999999945,5.0,30.066592756745816,4.0,6.0,10.0,10.04987562112089,5.0990195135927845,20.024984394500787,14.035668847618199,11.5,13.0,11.0,7.0,8.0,2.0,3.0,4.0,4.0,4.0,10.0,13.0,10.04987562112089,80.30566605165541,78.31347265956222,74.33034373659252,70.34912934784623
328,21,328,0,10.944266666666609,3.0,30.14962686336267,5.0,6.0,9.055385138137417,10.04987562112089,5.0990195135927845,19.026297590440446,13.038404810405298,11.5,13.0,10.0,6.5,7.5,1.5,2.5,5.0,4.0,4.5,10.0,13.0,12.041594578792296,80.22468448052632,78.23042886243178,74.33034373659252,70.34912934784623
329,21,329,0,10.977633333333277,3.0,30.14962686336267,4.123105625617661,5.0,9.055385138137417,10.04987562112089,5.0990195135927845,17.11724276862369,12.165525060596439,10.5,12.0,9.0,5.5,6.5,1.5,2.5,5.0,5.0,5.0,10.0,13.0,12.041594578792296,81.2219182240853,79.30952023559341,74.33034373659252,70.34912934784623
330,21,330,0,11.01099999999994,3.0,30.066592756745816,4.123105625617661,6.0,9.0,10.0,5.0,18.027756377319946,12.041594578792296,10.5,12.0,10.0,6.0,7.0,1.0,2.0,5.0,5.0990195135927845,5.0,11.0,14.0,11.045361017187261,80.22468448052632,78.31347265956222,74.33034373659252,70.34912934784623
331,21,331,0,11.044366666666606,0.0,30.14962686336267,5.0990195135927845,7.0,9.055385138137417,10.04987562112089,5.0,17.029386365926403,10.04987562112089,10.0,13.0,10.0,6.5,5.5,1.5,2.5,5.0,5.0990195135927845,5.0,10.0,13.0,13.038404810405298,80.22468448052632,79.22752047110903,74.33034373659252,70.34912934784623
332,21,332,0,11.077733333333272,1.0,31.064449134018133,4.0,6.0,8.0,9.055385138137417,6.082762530298219,17.029386365926403,11.045361017187261,10.5,12.0,10.0,5.0,6.0,0.0,1.0,5.0,6.082762530298219,5.5,11.0,14.0,13.038404810405298,80.15609770940699,78.16009211867653,75.16648189186454,70.25667228100119
333,21,333,0,11.111099999999938,1.0,29.068883707497267,4.0,6.0,8.0,9.055385138137417,5.0990195135927845,16.0312195418814,10.04987562112089,9.5,11.0,9.0,5.0,6.0,0.0,1.0,5.0,5.0,5.5,11.0,14.0,14.0,81.05553651663777,79.1012010022604,75.16648189186454,71.25307010929424
334,21,334,0,11.144466666666604,0.0,29.068883707497267,4.0,6.082762530298219,8.06225774829855,8.06225774829855,6.0,16.0312195418814,10.0,10.0,11.0,9.0,4.0,6.0,0.0,1.0,5.0990195135927845,5.0990195135927845,5.0,12.0,14.0,13.0,81.02468759581859,79.05694150420949,75.05997601918082,71.11258679024411
335,21,335,0,11.17783333333327,0.0,30.14962686336267,4.0,7.0,9.055385138137417,8.0,5.0990195135927845,16.0312195418814,9.055385138137417,9.0,11.0,8.0,4.5,6.5,0.5,1.5,6.082762530298219,5.0,5.5,12.0,13.0,14.0,81.0,79.00632886041473,75.02666192761077,71.06335201775947
336,21,336,0,11.211199999999936,1.0,30.01666203960727,4.0,6.0,9.055385138137417,9.0,6.082762530298219,17.029386365926403,11.045361017187261,10.5,11.0,10.0,4.5,6.5,0.5,1.5,5.0,5.0,5.5,12.0,12.0,13.0,80.00624975587844,78.0,74.02702209328699,70.02856560004639
337,21,337,0,11.244566666666602,1.0,29.017236257093817,4.0,6.0,8.06225774829855,9.055385138137417,6.0,17.0,11.0,10.5,11.0,10.0,4.5,6.5,0.5,1.5,5.0,5.0,5.0,13.0,12.0,14.0,82.00609733428362,79.00632886041473,75.02666192761077,70.02856560004639
338,21,338,0,11.277933333333268,2.0,28.0178514522438,4.0,6.0,8.0,9.055385138137417,6.0,18.0,12.0,11.0,11.0,10.0,4.5,7.5,1.5,0.5,6.082762530298219,5.0990195135927845,5.0,13.0,13.0,13.0,80.0,79.0,75.0066663703967,70.02856560004639
339,21,339,0,11.311299999999934,2.0,29.017236257093817,4.0,6.0,8.0,8.06225774829855,6.0,18.0,12.0,11.0,11.0,10.0,4.5,7.5,1.5,0.5,5.0990195135927845,5.0,5.5,12.0,12.0,14.0,82.0,79.0,75.0066663703967,70.00714249274856
340,21,340,0,11.3446666666666,3.0,29.017236257093817,4.0,6.0,7.0,9.055385138137417,6.0,19.0,13.0,11.5,12.0,11.0,5.5,7.5,1.5,1.5,5.0990195135927845,5.0990195135927845,5.0,12.0,12.0,13.0,81.0,79.00632886041473,75.02666192761077,71.06335201775947
341,21,341,0,11.378033333333263,3.0,29.017236257093817,5.0,6.0,8.06225774829855,10.04987562112089,5.0,19.0,13.0,11.5,12.0,11.0,6.5,7.5,1.5,2.5,6.0,6.0,5.5,12.0,13.0,13.0,81.00617260431454,79.05694150420949,75.05997601918082,71.06335201775947
342,21,342,0,11.411399999999931,5.0,31.064449134018133,4.0,6.0,9.0,9.0,6.0,21.0,15.0,12.5,13.0,11.0,6.0,9.0,2.0,2.0,6.082762530298219,6.082762530298219,6.0,12.0,13.0,14.0,80.02499609497022,79.05694150420949,75.05997601918082,71.06335201775947
343,21,343,0,11.444766666666595,5.0,32.01562118716424,5.0,6.0,9.0,9.055385138137417,5.0990195135927845,21.02379604162864,15.033296378372908,12.5,13.0,12.0,7.5,8.5,1.5,2.5,6.082762530298219,5.0990195135927845,5.5,12.0,13.0,13.0,81.02468759581859,79.05694150420949,75.05997601918082,71.06335201775947
344,21,344,0,11.478133333333265,6.0,32.01562118716424,4.0,6.0,9.0,10.04987562112089,5.0990195135927845,21.02379604162864,15.033296378372908,12.0,13.0,12.0,7.5,8.5,2.5,3.5,6.082762530298219,5.0990195135927845,5.5,12.0,13.0,13.038404810405298,81.02468759581859,79.05694150420949,75.05997601918082,71.06335201775947
345,21,345,0,11.511499999999929,6.0,31.064449134018133,4.0,6.0,10.0,10.04987562112089,5.0,21.0,15.0,12.0,14.0,12.0,8.0,8.0,2.0,4.0,6.0,5.0,5.5,12.0,13.0,13.0,81.02468759581859,78.02563681252464,75.05997601918082,70.06425622241343
346,21,346,0,11.544866666666596,5.0,31.016124838541646,4.0,7.0,10.04987562112089,10.0,6.0,22.0,15.0,12.5,14.0,13.0,7.5,8.5,1.5,4.5,6.0,6.0,6.0,13.0,13.0,13.0,80.02499609497022,79.02531240052139,75.05997601918082,71.06335201775947
347,21,347,0,11.57823333333326,6.0,32.0624390837628,4.0,6.0,9.0,10.04987562112089,5.0,21.0,15.0,12.0,14.0,12.0,8.0,8.0,2.0,4.0,6.0,6.0,5.5,12.0,13.0,13.038404810405298,80.05623023850174,79.05694150420949,74.10802925459562,71.06335201775947
348,21,348,0,11.611599999999926,6.0,31.016124838541646,3.0,6.0,9.0,10.04987562112089,6.0,21.0,15.0,12.0,14.0,13.0,7.5,7.5,1.5,4.5,6.082762530298219,5.0990195135927845,5.0,12.0,12.0,13.0,81.02468759581859,79.02531240052139,75.05997601918082,71.02816342831905
349,21,349,0,11.644966666666592,4.0,32.01562118716424,4.0,7.0,10.0,10.0,6.0,21.0,14.0,12.0,13.0,12.0,6.5,8.5,1.5,2.5,6.0,6.082762530298219,5.5,11.0,13.0,14.035668847618199,81.02468759581859,79.02531240052139,74.02702209328699,71.02816342831905
350,21,350,0,11.678333333333258,5.0990195135927845,31.016124838541646,4.0,6.0,9.0,9.055385138137417,5.0990195135927845,20.0,14.0,11.5,13.0,12.0,7.5,7.5,1.5,3.5,5.0,4.123105625617661,4.0,12.0,13.0,14.0,81.00617260431454,79.00632886041473,75.0066663703967,71.00704190430693
351,21,351,0,11.711699999999924,4.123105625617661,32.0,4.0,6.0,9.0,10.0,6.0,20.024984394500787,14.035668847618199,12.0,13.0,13.0,7.0,7.0,1.0,3.0,2.23606797749979,2.0,2.0,12.0,13.0,14.0,80.00624975587844,79.00632886041473,75.0066663703967,71.00704190430693
352,21,352,0,11.74506666666659,5.0,32.0,4.0,6.0,9.0,9.0,6.0,21.0,15.0,12.5,13.0,13.0,7.0,8.0,1.0,3.0,3.0,3.0,2.5,12.0,12.0,13.0,80.0,78.0,74.0,71.0
353,21,353,0,11.778433333333256,7.0,32.01562118716424,4.0,7.0,9.0,9.0,6.0,24.0,17.0,13.5,15.0,14.0,8.5,9.5,2.5,4.5,2.0,3.0,3.0,13.0,13.0,13.0,80.0,79.0,76.00657866263946,71.0
354,21,354,0,11.811799999999922,10.0,31.0,4.0,7.0,10.0,11.0,6.0,27.0,20.0,15.0,16.0,16.0,10.0,11.0,4.0,6.0,2.0,2.0,2.0,12.0,12.0,13.038404810405298,81.00617260431454,79.0,75.0,71.00704190430693
355,21,355,0,11.845166666666588,11.045361017187261,31.0,4.0,7.0,9.0,11.045361017187261,6.0,28.0178514522438,21.02379604162864,15.5,17.0,17.0,11.0,11.0,4.0,7.0,3.0,3.1622776601683795,3.0,13.0,12.0,13.038404810405298,81.0,79.0,75.0,71.00704190430693
356,21,356,0,11.878533333333252,9.0,29.0,5.0990195135927845,6.0,9.0,10.0,6.0,26.019223662515376,20.024984394500787,15.5,17.0,17.0,11.0,9.0,2.0,6.0,3.0,3.0,3.0,12.0,12.0,13.038404810405298,81.0,80.00624975587844,76.0,70.0
357,21,357,0,11.91189999999992,4.123105625617661,30.0,5.0,6.0,8.0,9.0,6.0,21.02379604162864,15.033296378372908,13.0,16.0,16.0,10.0,5.0,1.0,5.0,3.0,4.123105625617661,3.5,11.0,12.0,13.038404810405298,80.0,80.00624975587844,76.0,71.00704190430693
358,21,358,0,11.945266666666583,4.0,30.0,5.0,5.0,8.0,9.0,6.0,20.0,15.0,13.0,16.0,16.0,10.0,4.0,1.0,5.0,3.0,3.1622776601683795,3.0,11.0,13.0,14.035668847618199,81.00617260431454,79.00632886041473,76.00657866263946,71.0
359,21,359,0,11.978633333333253,6.0,31.016124838541646,5.0,6.0,8.06225774829855,9.0,6.082762530298219,23.021728866442675,17.029386365926403,14.0,17.0,16.0,10.5,6.5,0.5,5.5,3.1622776601683795,3.0,3.0,10.0,12.0,14.0,81.02468759581859,79.02531240052139,76.02631123499285,71.02816342831905
360,21,360,0,12.011999999999915,11.0,32.0624390837628,4.0,5.0,9.0,11.045361017187261,7.0,27.0,22.0,16.5,19.0,17.0,11.0,9.0,4.0,7.0,3.0,4.123105625617661,4.0,10.0,13.0,13.038404810405298,81.09870529176159,79.1012010022604,75.1065909225016,71.11258679024411
361,21,361,0,12.045366666666585,11.045361017187261,32.14031735997639,5.0990195135927845,5.0990195135927845,9.055385138137417,10.04987562112089,6.0,27.018512172212592,22.0,16.5,20.0,17.0,12.5,8.5,3.5,8.5,4.123105625617661,4.0,4.0,10.0,13.0,13.038404810405298,82.09750300709517,80.09993757800315,76.10519036176179,71.11258679024411
362,21,362,0,12.078733333333249,9.0,34.132096331752024,4.123105625617661,6.0,9.055385138137417,10.04987562112089,7.0,26.019223662515376,20.024984394500787,15.5,19.0,16.0,10.5,8.5,3.5,6.5,3.1622776601683795,4.0,4.0,9.0,13.0,13.038404810405298,81.2219182240853,78.23042886243178,75.23961722390672,71.17583859709698
363,21,363,0,12.112099999999916,6.0,34.23448553724738,5.0,5.0,10.04987562112089,11.180339887498949,6.082762530298219,22.02271554554524,17.029386365926403,14.0,18.0,14.0,10.0,6.0,1.0,6.0,4.123105625617661,4.0,3.5,9.0,14.0,14.035668847618199,81.30190649671138,79.30952023559341,76.32168761236873,71.25307010929424
364,21,364,0,12.14546666666658,4.0,33.24154027718932,5.0,6.082762530298219,9.055385138137417,10.04987562112089,6.0,21.02379604162864,15.0,13.0,17.0,13.0,9.0,6.0,1.0,5.0,4.123105625617661,4.123105625617661,4.0,8.0,14.0,13.152946437965905,81.39410298049853,79.30952023559341,76.32168761236873,72.24956747275377
365,21,365,0,12.178833333333246,5.0,34.36568055487916,5.0,5.0990195135927845,10.198039027185569,10.198039027185569,5.0990195135927845,20.09975124224178,15.033296378372908,12.5,17.0,12.0,9.5,5.5,0.5,5.5,4.123105625617661,4.0,4.0,9.0,15.0,13.038404810405298,80.39900496896712,79.40403012442127,76.32168761236873,72.24956747275377
366,21,366,0,12.212199999999912,5.0,32.38826948140329,5.0,6.082762530298219,9.055385138137417,10.04987562112089,5.0990195135927845,21.095023109728988,15.033296378372908,12.5,17.0,12.0,9.5,6.5,1.5,5.5,4.123105625617661,4.123105625617661,3.5,9.0,15.0,13.152946437965905,81.49846624323675,80.39900496896712,76.32168761236873,72.3394774656273
367,21,367,0,12.245566666666578,8.0,31.400636936215164,5.0,6.082762530298219,9.219544457292887,10.198039027185569,5.0990195135927845,24.08318915758459,18.027756377319946,14.0,19.0,14.0,11.5,7.5,2.5,7.5,3.1622776601683795,3.0,3.5,9.0,15.0,12.165525060596439,81.39410298049853,79.30952023559341,75.32595834106593,71.25307010929424
368,21,368,0,12.278933333333244,10.0,31.400636936215164,4.123105625617661,6.082762530298219,10.04987562112089,10.198039027185569,5.0,25.079872407968907,19.026297590440446,14.0,19.0,14.0,11.5,8.5,3.5,7.5,4.0,4.0,3.5,9.0,15.0,14.142135623730951,81.39410298049853,79.30952023559341,76.32168761236873,71.17583859709698
369,21,369,0,12.31229999999991,8.06225774829855,32.2490309931942,5.0,6.0,9.055385138137417,11.180339887498949,5.0,24.020824298928627,18.027756377319946,14.0,18.0,14.0,11.0,8.0,2.0,7.0,4.123105625617661,4.123105625617661,4.0,10.0,15.0,14.142135623730951,80.39900496896712,79.30952023559341,76.23647421018367,71.17583859709698
370,21,370,0,12.345666666666576,4.0,31.25699921617557,5.0990195135927845,6.0,10.04987562112089,11.045361017187261,5.0,20.024984394500787,14.035668847618199,12.0,17.0,13.0,10.0,5.0,1.0,6.0,4.123105625617661,4.123105625617661,4.0,10.0,15.0,13.152946437965905,81.30190649671138,79.22752047110903,76.16429609731846,73.06161783043132
371,21,371,0,12.379033333333242,2.0,32.2490309931942,5.0,6.0,10.04987562112089,10.04987562112089,4.123105625617661,17.029386365926403,11.045361017187261,10.0,15.0,11.0,9.0,4.0,2.0,4.0,4.0,4.123105625617661,4.0,10.0,15.0,14.035668847618199,81.2219182240853,80.15609770940699,77.1621668954417,73.10950690573696
372,21,372,0,12.412399999999908,0.0,32.14031735997639,6.0,6.0,9.055385138137417,10.04987562112089,4.123105625617661,16.0312195418814,10.04987562112089,10.0,14.0,11.0,8.5,3.5,2.5,3.5,4.0,4.0,4.0,11.0,16.0,13.038404810405298,81.30190649671138,81.2219182240853,78.16009211867653,73.10950690573696
373,21,373,0,12.445766666666572,3.0,31.144823004794873,5.0,6.0,10.0,10.04987562112089,4.0,18.0,12.0,10.5,15.0,12.0,9.5,4.5,1.5,4.5,4.0,4.0,4.0,11.0,15.0,15.033296378372908,81.15417426109393,80.09993757800315,76.02631123499285,72.02777242147643
374,21,374,0,12.47913333333324,4.0,29.068883707497267,5.0,6.0,8.0,9.055385138137417,6.082762530298219,21.02379604162864,15.033296378372908,13.0,15.0,13.0,8.0,7.0,1.0,3.0,4.0,4.123105625617661,4.0,12.0,16.0,14.035668847618199,81.15417426109393,80.05623023850174,76.02631123499285,73.00684899377592
375,21,375,0,12.512499999999903,2.0,29.068883707497267,5.0,6.082762530298219,7.0,8.06225774829855,6.0,19.026297590440446,13.0,12.0,14.0,12.0,7.0,6.0,0.0,2.0,4.0,5.0,5.0,12.0,15.0,14.035668847618199,81.05553651663777,81.05553651663777,77.00649323271382,72.00694410957877
376,21,376,0,12.545866666666573,1.0,30.066592756745816,5.0,5.0,8.0,8.0,6.0,17.0,12.0,11.5,14.0,12.0,7.0,4.0,2.0,2.0,4.0,5.0,5.0,12.0,15.0,13.038404810405298,81.05553651663777,80.05623023850174,77.02596964660685,73.0
377,21,377,0,12.579233333333235,0.0,31.064449134018133,5.0990195135927845,5.0,7.0710678118654755,8.0,7.0,17.029386365926403,12.041594578792296,12.0,14.0,12.0,6.0,4.0,1.0,2.0,4.0,4.123105625617661,4.5,12.0,15.0,13.038404810405298,81.05553651663777,81.02468759581859,77.00649323271382,73.0
378,21,378,0,12.612599999999905,0.0,30.01666203960727,5.0,6.0,8.0,9.055385138137417,7.0,18.0,12.0,12.0,14.0,13.0,6.5,4.5,1.5,1.5,5.0,4.123105625617661,4.5,12.0,15.0,13.0,81.00617260431454,80.00624975587844,77.0,72.00694410957877
379,21,379,0,12.645966666666569,1.0,32.01562118716424,6.0,6.0,9.0,9.055385138137417,7.0,20.0,14.0,13.5,15.0,14.0,7.5,5.5,0.5,2.5,5.0,4.0,4.5,12.0,14.0,14.035668847618199,82.00609733428362,81.0,78.00640999302557,73.02739212103907
380,21,380,0,12.679333333333236,4.0,31.016124838541646,5.0,6.0,8.06225774829855,9.055385138137417,7.0,22.0,16.0,14.0,16.0,15.0,8.5,6.5,0.5,4.5,4.0,4.0,4.5,12.0,14.0,13.038404810405298,82.00609733428362,81.0,77.00649323271382,73.02739212103907
381,21,381,0,12.7126999999999,5.0,32.01562118716424,5.0,7.0,9.0,10.0,6.0,23.0,16.0,13.5,16.0,15.0,9.5,7.5,0.5,4.5,5.0,5.0,5.0,12.0,13.0,13.038404810405298,82.0,81.00617260431454,77.00649323271382,73.06161783043132
382,21,382,0,12.746066666666566,6.0,32.0624390837628,5.0,6.0,9.0,10.0,6.0,23.0,17.0,14.0,17.0,15.0,10.0,7.0,1.0,5.0,5.0,4.0,4.5,12.0,14.0,14.0,83.00602387778854,80.02499609497022,77.02596964660685,73.10950690573696
383,21,383,0,12.779433333333232,6.0,33.015148038438355,5.0,7.0,9.0,10.04987562112089,5.0,23.0,16.0,13.0,16.0,15.0,10.5,7.5,0.5,5.5,5.0,5.0,5.0,12.0,14.0,13.038404810405298,82.0,80.00624975587844,77.00649323271382,73.06161783043132
384,21,384,0,12.812799999999898,6.0,33.06055050963308,5.0,6.0,10.0,10.04987562112089,6.0,23.0,17.0,14.0,17.0,15.0,10.0,7.0,1.0,5.0,5.0,5.0,5.0,11.0,14.0,13.0,82.0,80.00624975587844,77.00649323271382,72.02777242147643
385,21,385,0,12.846166666666564,6.0,32.01562118716424,5.0,6.0,8.0,9.055385138137417,5.0,22.0,16.0,13.0,16.0,15.0,10.5,6.5,0.5,5.5,5.0990195135927845,5.0990195135927845,5.0,11.0,13.0,14.035668847618199,82.00609733428362,81.0,77.0,74.02702209328699
386,21,386,0,12.87953333333323,6.0,32.0624390837628,5.0,6.082762530298219,9.055385138137417,10.04987562112089,6.0,23.021728866442675,17.0,14.0,17.0,15.0,10.0,7.0,1.0,6.0,4.0,4.0,4.5,12.0,14.0,14.0,82.00609733428362,81.0,77.00649323271382,73.00684899377592
387,21,387,0,12.912899999999896,6.0,32.0624390837628,5.0,6.0,9.055385138137417,10.04987562112089,6.082762530298219,23.021728866442675,17.029386365926403,14.0,17.0,15.0,10.0,7.0,1.0,6.0,4.0,4.0,4.5,11.0,13.0,15.033296378372908,81.0,80.00624975587844,78.00640999302557,73.06161783043132
388,21,388,0,12.946266666666562,6.082762530298219,31.064449134018133,5.0,6.0,9.0,10.04987562112089,5.0,22.02271554554524,16.0312195418814,13.0,17.0,15.0,11.0,6.0,1.0,6.0,5.0,5.0,5.0,11.0,14.0,13.038404810405298,82.00609733428362,81.0,78.0,73.00684899377592
389,21,389,0,12.979633333333227,6.0,33.06055050963308,5.0,6.0,9.0,10.04987562112089,5.0,22.0,16.0,13.0,17.0,15.0,11.0,6.0,0.0,6.0,5.0,5.0,5.0,12.0,15.0,13.038404810405298,82.00609733428362,81.0,77.0,73.00684899377592
390,21,390,0,13.012999999999892,6.0,33.06055050963308,5.0,6.082762530298219,9.0,10.04987562112089,6.0,23.021728866442675,17.0,14.0,17.0,15.0,10.0,7.0,1.0,5.0,5.0,5.0,5.0,12.0,15.0,13.038404810405298,82.00609733428362,81.00617260431454,77.0,73.00684899377592
391,21,391,0,13.04636666666656,5.0,32.0624390837628,5.0,6.0,9.0,9.055385138137417,6.0,22.0,16.0,13.5,16.0,14.0,9.0,7.0,1.0,4.0,5.0,5.0,5.0,11.0,14.0,13.038404810405298,82.02438661763951,81.0,78.00640999302557,74.00675644831355
392,21,392,0,13.079733333333223,1.0,31.144823004794873,6.0,6.0,8.06225774829855,8.06225774829855,6.0,19.0,13.0,12.5,16.0,13.0,8.5,4.5,1.5,3.5,5.0,5.0,5.0,11.0,14.0,13.038404810405298,83.02409288875127,81.0,78.0,74.00675644831355
393,21,393,0,13.113099999999893,1.0,32.0624390837628,5.0,5.0,8.0,9.055385138137417,6.0,17.0,12.0,11.5,15.0,13.0,8.0,3.0,2.0,3.0,4.0,4.0,4.0,11.0,13.0,13.038404810405298,82.00609733428362,80.00624975587844,78.00640999302557,73.0
394,21,394,0,13.146466666666557,1.0,32.0624390837628,4.0,5.0,8.0,9.055385138137417,7.0,17.0,12.0,11.5,15.0,13.0,7.0,3.0,2.0,3.0,5.0,5.0,5.0,11.0,14.0,13.0,82.02438661763951,80.02499609497022,78.00640999302557,74.0
395,21,395,0,13.179833333333224,1.0,32.0624390837628,4.0,5.0,8.0,9.0,7.0710678118654755,17.029386365926403,12.041594578792296,11.5,16.0,14.0,8.0,2.0,3.0,4.0,5.0,5.0,5.0,11.0,14.0,13.0,82.05485969764375,80.05623023850174,78.02563681252464,74.02702209328699
396,21,396,0,13.213199999999889,2.0,31.064449134018133,5.0,6.0,8.0,9.055385138137417,7.0,20.0,14.0,13.0,17.0,15.0,9.0,4.0,2.0,4.0,4.0,4.123105625617661,4.0,11.0,14.0,13.0,82.05485969764375,81.02468759581859,77.02596964660685,73.00684899377592
397,21,397,0,13.246566666666554,10.0,30.01666203960727,5.0,5.0,9.055385138137417,9.0,6.0,26.0,21.0,16.0,19.0,18.0,12.5,7.5,1.5,7.5,3.1622776601683795,4.0,3.5,12.0,14.0,13.038404810405298,82.09750300709517,81.09870529176159,77.10382610480494,72.06247289678588
398,21,398,0,13.27993333333322,10.04987562112089,32.0624390837628,6.0,6.082762530298219,9.0,10.04987562112089,6.082762530298219,28.0178514522438,22.0,17.0,20.0,18.0,13.0,9.0,3.0,7.0,2.0,3.0,2.5,13.0,15.0,13.0,82.02438661763951,80.00624975587844,77.02596964660685,73.00684899377592
399,21,399,0,13.313299999999886,9.0,32.0624390837628,5.0,7.0,9.055385138137417,10.04987562112089,7.0,28.0,21.0,16.5,19.0,17.0,11.0,10.0,3.0,6.0,2.0,2.0,2.0,12.0,14.0,14.0,81.05553651663777,80.05623023850174,77.05841939723393,72.06247289678588
400,21,400,0,13.346666666666552,9.0,33.06055050963308,5.0990195135927845,7.0,9.0,10.04987562112089,6.0,27.018512172212592,20.024984394500787,15.5,18.0,16.0,11.0,10.0,3.0,6.0,2.23606797749979,3.0,3.0,12.0,14.0,13.0,82.05485969764375,81.02468759581859,76.02631123499285,72.00694410957877
401,21,401,0,13.380033333333218,9.0,32.01562118716424,5.0,6.0,10.04987562112089,10.04987562112089,6.0,26.0,20.0,15.5,17.0,16.0,10.5,9.5,3.5,6.5,3.0,2.0,2.0,12.0,14.0,13.0,82.05485969764375,80.05623023850174,76.05918747922567,72.02777242147643
402,21,402,0,13.413399999999884,8.0,33.015148038438355,5.0,6.0,10.0,11.045361017187261,6.082762530298219,25.019992006393608,19.026297590440446,15.0,16.0,15.0,9.5,9.5,3.5,4.5,3.0,2.23606797749979,2.0,12.0,15.0,13.038404810405298,82.02438661763951,80.05623023850174,76.05918747922567,72.06247289678588
403,21,403,0,13.44676666666655,7.0710678118654755,33.06055050963308,4.123105625617661,7.0710678118654755,9.0,10.0,7.0,25.019992006393608,18.0,14.5,16.0,14.0,8.0,10.0,3.0,4.0,2.0,3.1622776601683795,3.0,13.0,16.0,13.0,82.15229759416349,79.1580697086532,76.16429609731846,72.17340230306452
404,21,404,0,13.480133333333216,9.0,33.06055050963308,4.0,6.0,9.055385138137417,10.0,7.0710678118654755,26.019223662515376,20.024984394500787,15.5,17.0,15.0,9.0,10.0,3.0,5.0,3.0,3.1622776601683795,3.0,14.0,17.0,13.0,82.09750300709517,80.15609770940699,76.16429609731846,72.17340230306452
405,21,405,0,13.51349999999988,8.0,33.06055050963308,4.0,5.0,9.0,10.0,6.0,23.0,18.0,14.0,16.0,14.0,9.0,8.0,3.0,5.0,4.0,3.0,3.5,14.0,17.0,14.0,80.15609770940699,78.10249675906654,76.16429609731846,72.17340230306452
406,21,406,0,13.546866666666547,5.0,32.0,5.0,7.0,8.0,8.0,7.0,24.0,17.0,14.5,16.0,16.0,9.0,8.0,1.0,4.0,4.123105625617661,4.0,4.0,15.0,17.0,16.0,81.0,78.0,76.00657866263946,72.0
407,21,407,0,13.580233333333211,5.0,33.015148038438355,4.0,6.0,10.0,11.0,8.0,23.0,17.0,14.5,14.0,13.0,5.5,9.5,2.5,1.5,4.123105625617661,4.123105625617661,4.0,16.0,17.0,12.041594578792296,84.02380615040002,83.02409288875127,81.02468759581859,76.02631123499285
408,21,408,0,13.613599999999876,5.0,33.0,4.0,6.0,10.0,10.0,8.0,23.0,17.0,14.5,14.0,14.0,6.0,9.0,3.0,2.0,4.123105625617661,4.123105625617661,4.0,16.0,15.0,12.0,83.00602387778854,82.00609733428362,79.00632886041473,74.00675644831355
409,21,409,0,13.646966666666543,5.0,33.0,4.0,6.0,10.0,10.0,8.0,23.0,17.0,14.5,14.0,14.0,6.0,9.0,3.0,2.0,4.123105625617661,4.123105625617661,4.0,15.0,13.0,13.038404810405298,82.00609733428362,81.00617260431454,78.0,73.0
410,21,410,0,13.68033333333321,6.0,32.0,4.0,6.0,9.0,9.0,8.0,24.0,18.0,15.0,15.0,15.0,7.0,9.0,3.0,3.0,5.0,3.0,3.5,16.0,12.0,12.165525060596439,81.00617260431454,80.0,77.0,72.0
411,21,411,0,13.71369999999988,6.0,32.0,4.0,6.0,9.0,9.0,8.0,24.0,18.0,15.0,15.0,15.0,7.0,9.0,3.0,3.0,5.0,3.0,3.5,15.0,10.0,13.341664064126334,80.00624975587844,79.0,76.00657866263946,71.00704190430693
412,21,412,0,13.747066666666544,6.0,32.0,4.0,6.0,9.0,9.0,8.0,24.0,18.0,15.0,15.0,15.0,7.0,9.0,3.0,3.0,5.0,3.0,3.5,15.0,9.0,13.341664064126334,80.0,78.00640999302557,75.02666192761077,69.00724599634447
413,21,413,0,13.780433333333209,7.0,31.0,3.0,5.0,8.0,9.0,9.0,24.0,19.0,15.5,16.0,16.0,7.0,8.0,2.0,4.0,5.0,5.0,4.5,16.0,11.0,15.132745950421556,79.0,78.0,75.0,70.00714249274856
414,21,414,0,13.813799999999874,8.0,31.016124838541646,4.0,6.0,9.0,9.0,8.0,26.0,20.0,16.0,17.0,16.0,8.5,9.5,2.5,4.5,5.0,5.0990195135927845,5.5,14.0,13.0,17.0,79.05694150420949,78.05767098754612,75.02666192761077,69.02897942168927
415,21,415,0,13.84716666666654,5.0,30.01666203960727,5.0,7.0,8.0,9.055385138137417,9.0,26.0,19.0,16.5,17.0,16.0,7.5,9.5,2.5,2.5,6.0,6.0,6.0,14.0,15.0,18.027756377319946,79.05694150420949,77.02596964660685,74.02702209328699,70.00714249274856
416,21,416,0,13.880533333333206,5.0,31.0,5.0,7.0,9.0,10.0,9.0,26.0,19.0,16.5,16.0,16.0,7.0,10.0,3.0,2.0,3.0,4.0,4.0,14.0,16.0,17.0,78.05767098754612,77.05841939723393,74.02702209328699,70.02856560004639
417,21,417,0,13.913899999999872,5.0,31.0,5.0,6.0,8.0,10.0,9.0,25.0,19.0,16.5,16.0,16.0,7.0,9.0,2.0,2.0,3.1622776601683795,3.1622776601683795,3.0,14.0,16.0,15.033296378372908,79.05694150420949,78.05767098754612,75.02666192761077,71.00704190430693
418,21,418,0,13.947266666666538,4.123105625617661,31.0,5.0,7.0,9.0,9.0,7.0,23.021728866442675,16.0312195418814,14.0,15.0,15.0,8.0,8.0,1.0,3.0,2.23606797749979,2.23606797749979,2.0,14.0,16.0,16.0312195418814,80.02499609497022,79.02531240052139,76.00657866263946,72.00694410957877
419,21,419,0,13.980633333333204,3.1622776601683795,30.0,5.0,6.0,7.0,8.0,8.06225774829855,22.0,16.0,14.5,15.0,15.0,7.0,7.0,0.0,2.0,3.1622776601683795,3.0,3.0,14.0,15.0,14.035668847618199,80.00624975587844,78.00640999302557,76.02631123499285,72.02777242147643
420,21,420,0,14.01399999999987,4.0,30.0,5.0,6.0,9.055385138137417,9.0,7.0,22.0,16.0,14.0,15.0,15.0,8.0,7.0,1.0,3.0,4.0,4.123105625617661,4.0,13.0,15.0,15.0,81.0,80.0,76.0,72.0
421,21,421,0,14.047366666666536,5.0,31.016124838541646,4.0,6.0,9.0,9.0,7.0,22.0,16.0,13.5,15.0,14.0,7.5,7.5,0.5,3.5,4.123105625617661,4.0,4.0,13.0,15.0,15.033296378372908,81.00617260431454,79.00632886041473,75.0,71.0
422,21,422,0,14.0807333333332,2.0,31.016124838541646,5.0,7.0,8.0,10.0,8.0,22.0,15.0,14.0,15.0,14.0,6.5,7.5,0.5,1.5,5.0,5.0,5.0,13.0,15.0,15.0,80.02499609497022,79.00632886041473,75.0066663703967,71.0
423,21,423,0,14.114099999999867,4.0,31.016124838541646,5.0,7.0,9.0,9.0,6.0,22.0,15.0,13.0,15.0,14.0,8.5,7.5,0.5,3.5,5.0,5.0,5.5,14.0,15.0,14.0,81.02468759581859,79.02531240052139,75.02666192761077,72.00694410957877
424,21,424,0,14.147466666666531,5.0,31.0,5.0,6.0,8.0,9.0,6.082762530298219,22.02271554554524,16.0312195418814,13.5,15.0,15.0,9.0,7.0,0.0,4.0,5.0,6.082762530298219,5.5,14.0,15.0,14.0,81.02468759581859,80.02499609497022,76.05918747922567,72.02777242147643
425,21,425,0,14.1808333333332,5.0,31.016124838541646,5.0,7.0,8.0,10.0,6.0,23.0,16.0,13.5,15.0,14.0,8.5,8.5,1.5,3.5,6.082762530298219,5.0,5.0,13.0,14.0,13.038404810405298,82.02438661763951,80.05623023850174,76.02631123499285,71.06335201775947
426,21,426,0,14.214199999999863,4.123105625617661,30.01666203960727,5.0,6.0,9.0,9.0,9.0,24.020824298928627,18.027756377319946,16.0,16.0,15.0,6.5,8.5,1.5,2.5,5.0,6.0,6.0,14.0,15.0,14.0,81.05553651663777,80.09993757800315,75.05997601918082,71.11258679024411
427,21,427,0,14.24756666666653,6.082762530298219,29.0,4.0,7.0,9.0,10.04987562112089,8.0,25.019992006393608,18.027756377319946,15.0,16.0,16.0,8.0,9.0,2.0,4.0,6.0,6.0,6.0,13.0,14.0,14.0,81.00617260431454,80.02499609497022,76.05918747922567,72.06247289678588
428,21,428,0,14.280933333333197,5.0990195135927845,30.0,5.0,7.0,8.0,9.0,7.0,24.020824298928627,17.029386365926403,14.5,15.0,15.0,8.0,9.0,1.0,3.0,6.082762530298219,6.0,6.0,14.0,15.0,14.0,82.00609733428362,80.02499609497022,76.05918747922567,73.06161783043132
429,21,429,0,14.314299999999864,4.0,29.017236257093817,6.082762530298219,7.0,9.0,9.0,5.0990195135927845,22.0,15.0,13.0,15.0,16.0,10.5,6.5,0.5,4.5,6.0,6.082762530298219,6.0,14.0,14.0,15.0,82.0,80.00624975587844,76.02631123499285,72.02777242147643
430,21,430,0,14.347666666666528,4.123105625617661,28.071337695236398,6.0,7.0,7.0,8.06225774829855,4.0,21.02379604162864,14.035668847618199,12.0,13.0,15.0,10.0,7.0,0.0,4.0,6.082762530298219,6.0,5.5,15.0,13.0,15.033296378372908,82.02438661763951,81.00617260431454,77.00649323271382,72.0
