,video_id,frame_seq,gap,time_seconds,m1,m3,m4,m5,m6,m7,m8,m9,m10,m11,m12,m13,m14,m15,m16,m17,e1,e2,e3,b1,b2,b3,m_0_16,m_1_15,m_2_14,m_3_13
0,2,161,1,5.372033333333337,20.667971014676795,155.7829035288228,20.667971014676333,31.4295899163409,41.6576273636713,41.657627363671324,32.67893151035941,104.49596151830896,73.0723122892238,62.61637893147508,66.94003683026949,63.44431342273401,33.485350535343514,39.03557805081664,6.132848083396311,16.436032863502078,20.667971014676336,21.304056890178643,20.805687122920972,48.38817137799606,49.890719158428055,46.50293478302215,400.00000000000006,389.20868091146974,378.4623795502762,357.4573238324005
1,2,162,0,5.405400000000004,16.14414705591163,151.5411029468671,17.017425192460877,32.733670931773695,43.3860915637312,48.73048977266864,32.73367093177414,98.20101279532244,65.46734186354874,56.83840820239766,67.53380759532183,56.5328253625994,29.58041889243077,35.32537628062937,2.1390798785846528,18.090504116032207,21.525529407882175,21.525529407882175,21.513031921767833,51.704616493793765,55.67719341116526,59.19520587167554,399.99999999999994,394.16559443602387,383.44001400987264,361.5552128592551
2,2,163,0,5.438766666666671,11.072730647165715,166.45964153672924,16.609095970747894,33.67639554433053,44.63560422746587,50.133920270469915,35.01504876259279,95.57248357586101,61.89844605901769,55.8028202671735,63.156680302381574,59.51064885635424,27.654221560974293,33.43225444578138,0.9887542904480142,15.603778646136107,22.82701901113825,16.60909597074835,16.592532936584576,48.69614880457584,45.57539307534853,55.36365323582666,399.99999999999994,394.05544468588414,377.4891843367009,360.5445009492601
3,2,164,0,5.472133333333337,11.563881692554972,150.77457068717044,17.34582253883314,29.482229201608796,46.61549738810586,46.25552677022114,36.568204741197704,94.12317773381447,64.64406387079724,57.947074912515745,62.874547269022514,53.01960255600943,23.126270259870125,34.75510502122552,5.584468670707338,11.30033660425488,17.345822538832685,23.1277633851104,23.126270259870125,47.369434253882446,45.06994715417932,52.037467616498745,400.0,394.2334015870168,376.93642671792605,359.2256146301867
4,2,165,0,5.505500000000004,11.574769902869859,150.5832634724573,17.362154854304336,28.936924757173735,40.92299144496512,46.2990796114783,36.60263628543382,93.31877833418318,64.7049308168378,57.94016544814258,63.25639433362812,58.343929667293196,26.0091451169651,31.863726294652224,2.9945846253685886,14.333629779853709,17.362154854304336,23.149539805739263,23.14914856464702,52.65758358091898,45.72629781882961,46.299079611478184,400.0,382.6682650112,377.2913389522725,353.78866918099925
5,2,166,0,5.538866666666671,6.04950604018926,145.31412168668828,18.148518120566877,30.84654934652108,42.77646743846659,42.34654228132335,32.57758702817385,86.61574500463612,55.77368988218492,51.56037449886571,59.77495689906664,55.44395702793645,27.220871090862147,27.292457865591587,3.239301556506234,14.836359062672727,24.198024160756137,18.148518120566873,18.147247393907946,49.4664613380296,47.24727132141743,48.396048321512275,400.0000000000001,394.3795432748832,376.28705633447896,363.77606897967553
6,2,167,0,5.572233333333338,12.462026766865423,143.448700676565,19.70419442263938,24.924053533730845,43.61709368402944,43.61709368402933,31.772058831581596,88.11983634178839,63.54411766316273,56.46711833654399,60.17561557549925,58.7761826551382,28.128601699244882,28.128601699244427,3.848440530991411,8.60651246021689,18.693040150298362,19.704194422639816,18.787386955838883,46.95097447809303,46.461172955966504,49.84810706746226,400.0,388.12761793504336,375.7254569822341,356.53159462593635
7,2,168,0,5.605600000000004,6.421612990679669,141.85806758942604,19.26483897203767,32.74392994821522,45.407660918649995,45.407660918649995,34.58144428244417,91.94350573815802,59.20434645509769,55.058325989104105,67.98377334996849,60.8627234409696,31.822191780835965,26.18469393621308,6.9356059009514865,18.21060159019862,19.26483897203812,19.264838972037662,19.24908803526114,48.808862917926035,47.17695564711403,51.37290392543513,400.00000000000006,393.0320938601883,374.4411643596497,361.66852739952395
8,2,169,0,5.638966666666671,6.6436383882989185,152.9480416621143,19.930915164897655,33.87604178319199,46.505468718094455,40.41167465319721,33.8760417831915,93.95523512235236,60.16070432456334,56.65830542159665,64.22363150574802,62.5908273149239,29.98917030480243,29.989170304803338,4.0820104770600665,9.198130274975483,26.57455355319702,27.392422813365926,26.669135116794223,49.74610101377493,49.63724740105317,53.1491071063936,399.99999999999983,386.24630340826775,380.1415344406559,360.9642259473829
9,2,170,0,5.672333333333338,6.63358126806618,139.4630596054003,19.9007438041999,33.824760330875336,39.801487608399576,46.43506887646621,35.72292839005919,94.97842960487951,61.15859741200525,56.8757227292499,63.867854354772135,62.87171505469769,29.692613752218676,30.228996452258343,3.984557200298241,9.00356675067269,19.9007438041999,19.90074380419945,19.88447295148535,50.15178245374727,42.374233303165965,46.43506887646621,400.0,379.56607730499854,360.41779936486193,347.2348732568787
10,2,171,0,5.705700000000005,13.957971269072376,153.69621542583724,13.957971269072829,35.58598393558355,41.87391380721688,48.85289944175309,31.210972585634746,93.1112818443456,57.55018986172238,49.36101264661693,60.30848269689204,59.334508493131125,31.381448845185332,31.654161622238007,4.304965980624274,16.615999916165947,20.936956903608333,20.936956903608333,20.920965896789767,45.659910672323804,44.72489543671327,48.852899441753316,400.0000000000003,393.0600397203485,372.24891428410183,358.3829741552793
11,2,172,0,5.739066666666671,7.114555037959958,142.4688536089749,21.343665113881663,36.277254969090556,35.57277518980227,42.68733022776266,29.334061900781137,93.57736134425444,57.359376480492905,53.598630380533905,61.45065903500699,59.964597345925085,31.99049014469483,32.2716369507375,4.116792517051181,9.820056296770417,21.34366511388122,21.343665113880764,21.326993429795948,53.69903995412051,45.82692938493028,42.68733022776266,399.99999999999983,393.6220403650985,372.41144972138153,365.3446973265108
12,2,173,0,5.772433333333338,14.48571936680312,137.8048037422,16.19552660357778,28.971438733605794,36.21429841700713,43.457158100408925,36.93148285987895,95.26494547348219,66.77586684905418,58.475544503500714,69.76537735318652,68.02847999169626,32.42208408114857,25.76397752876983,4.052760510143344,17.079490721319416,21.728579050204917,16.19552660357861,14.618886125875179,54.422783993356916,46.89622876023304,43.457158100408904,400.00000000000006,392.7874326058749,371.9333626195802,358.5032638121089
13,2,174,0,5.805800000000005,15.05153389413772,142.98957199430674,15.05153389413772,30.10306778827453,45.154601682412704,45.154601682412704,33.65625295293396,91.55490639477364,62.05906407309407,52.68036862948247,60.20613557655088,60.20613557655088,30.10306778827544,30.10306778827453,0.0,15.05153389413772,22.57730084120658,22.57730084120658,22.57730084120658,52.68036862948156,52.68036862948156,53.21520841901904,400.0,392.49598385860315,385.65425388529434,362.4889378843106
14,2,175,0,5.839166666666672,0.0,121.15650656307635,16.80138449112514,30.055230270613045,37.56903783826724,30.980222252000434,38.31305140884673,84.0069224556269,54.70134477942497,53.08329634571601,80.79018760908912,69.91458543094268,37.54672180550551,7.768287270104338,23.04591890131087,21.751204356292874,23.760745813994742,15.02761513530698,18.773360902752756,48.422323983652404,41.94875125856515,52.59665297357398,400.0,385.847004756738,370.9264755271599,349.61416377839606
15,2,254,1,8.475133333333334,22.676310995091413,187.35290893004262,8.43795064721558,20.47640265068491,45.78662826158854,48.1448165660182,32.06914655384852,83.29434605094379,62.892770793207795,51.57545435813688,45.119174668065625,33.752133978210395,7.4450792822443645,43.856170146970385,25.625696993796282,0.7976870659548467,11.596853927406208,14.341758334961646,14.341748706644694,46.44865311132338,42.360506898305346,54.61178870910029,400.0,402.2876486878186,403.7402388537903,391.4336111534976
16,2,309,1,10.310299999999955,13.745684176978857,141.9370855210755,14.16872693951629,31.118116052436168,37.956511040742086,37.956511040742996,38.4203552712098,97.19666493590354,66.1008785836566,59.286815551731024,38.98627170522377,41.677631684874314,1.941623985319211,56.864591570045604,23.357159823395932,11.149919915695364,6.8728420884895405,9.71966649359049,5.82487195595786,56.210975574987515,56.03795957629586,69.49731465079199,400.00000000000006,396.08386327564637,378.1000238254787,353.8012008024786
17,2,310,0,10.343666666666625,14.228547426992314,136.336290199295,14.666450985149748,32.211244226917145,35.748782977622845,39.769999084793206,39.76999908479275,100.61102372060579,68.42289359947503,61.35682782782487,41.70113517412051,42.23882889413085,2.2403905000423947,58.63848735444026,24.046858033787203,11.201952500211519,7.114273713496095,10.06110237206021,7.766687066813347,53.59014076101198,55.02399068103887,71.4975659552457,399.9999999999998,395.9302653370728,377.29133895227216,348.61756014634204
18,2,311,0,10.377033333333287,18.65555636581215,136.60069798578343,14.634622453262454,25.87060194201709,36.76903385433843,40.411172086629364,38.19748601356125,96.86804627269528,71.03824222284034,61.5819532128221,39.17416336662541,40.54241732623336,2.073431000329265,56.90883968923754,24.786446729823183,11.41965804749816,8.18100265763479,5.174120388403235,5.957167239524324,55.61426094283911,52.5409520489502,62.62609633991111,400.00000000000006,392.77333709933794,377.19657020256165,350.8114674374279
19,2,312,0,10.410399999999957,15.18310869796932,130.44446583610593,15.650390221740414,30.602533935866024,34.37222421358001,38.14708848913829,38.7094837639734,99.85130773310327,69.26643351109003,61.7619855147575,44.31081024646005,45.45976961195038,6.210884117226215,54.96578247548905,22.036173490962028,7.96684088335337,7.59155434898459,8.487615789607,8.086072515621026,53.89269778507787,54.04444713523708,64.97323939138595,399.99999999999915,395.6540131907988,380.07084815503737,352.68060761267066
20,2,313,0,10.44376666666662,11.849287583000342,143.55634551274073,16.285288097677054,31.844003542621074,35.76662089220576,39.69462213601565,35.76662089220623,95.53201062786322,63.688007085242134,57.8126055968869,38.758054148948304,37.706305566384344,2.472728050495789,57.29792012031294,23.395811554691363,11.84895477590544,8.831937506844163,5.5858077347786175,6.3888131983399035,53.057359345933264,55.25036702872626,63.688007085242134,399.99999999999955,391.006541434562,374.8114450557426,350.7958413506237
21,2,314,0,10.477133333333288,16.445619088164317,136.54932954585868,15.95459401862981,28.204004054128376,35.89783654191612,36.1187483903292,36.77352221320396,97.04800668264075,68.85474881461964,60.62501314917813,39.461162038378234,41.72665347350494,3.9530513817005613,56.40611328274326,21.59152041232869,10.564587610743274,5.640800810825443,11.281601621651076,6.727122526753419,49.40158364148442,51.55148877890065,64.3150246238275,400.0000000000001,391.4975848635109,375.123856779102,346.920714718629
22,2,315,0,10.510499999999952,17.32592327296817,139.6860591539147,12.606460891022925,29.415075412386514,33.87884566575679,38.05211953235953,38.741942211303076,97.4682265230432,68.40610506556911,59.699499767451925,38.11574238210687,39.62409148391134,0.2753335662023346,58.59816550264213,26.683413872398205,10.259168097194106,9.396301169339585,5.942742655202626,6.799541982737537,55.425843979006004,55.090655289716096,63.17222095237109,399.99999999999966,395.20355698206333,382.1188148399311,352.40514052763393
23,2,316,0,10.543866666666618,17.34831477100411,139.86658518245008,13.715047060478948,26.381419763220876,34.96664629561251,39.27391793727107,39.27391793726996,96.29877482319128,69.93329259122505,61.33547830381599,38.74713562151669,40.97928119269977,0.6065612965173841,56.434463027957236,23.340478689980273,10.408591848234437,4.33707869275102,12.267111016735914,9.802030551717507,53.81411822700329,55.97347644260435,69.93329259122504,399.9999999999991,390.7464806400835,377.2261301348639,350.23085329476095
24,2,317,0,10.577233333333284,13.592553320611751,133.33333333333312,13.592553320611751,32.03795542214727,36.52888944275443,36.52888944275443,41.772383209167906,100.6012206389499,68.5642187394587,61.83351307669932,45.549549227771195,42.96840810486424,2.5811411229071837,56.3296092116766,21.560119967811488,9.109909845554284,10.131291070892248,10.13129107089296,9.641321253211572,52.23014978117749,54.203963581047674,64.07591084429409,399.9999999999993,399.2551443114718,380.64542785913545,353.086758706303
25,2,318,0,10.61059999999995,18.1888658537083,133.117771816651,13.641649390281309,27.659637920889345,36.66083116545615,36.66083116545524,37.49730756251527,96.46102790437222,68.81187152261666,59.8063353025359,41.75061642659739,42.500782397087505,4.824343224015138,54.335297276373694,24.095848327989415,6.76442763045543,9.09443292685415,6.430735193625541,7.398188536559701,55.382942855851525,55.22773610333638,64.30735193624723,399.99999999999994,395.50328479193354,376.84327713018956,344.0593576130818
26,2,319,0,10.643966666666616,18.823529411764582,142.42584423926215,14.881306636086618,28.62476484846225,33.27561323230745,42.3529411764697,37.940036462581176,99.82683969692417,71.21292211963062,61.89363646409902,37.825384615945495,39.38685956806307,0.6730495483263894,61.220586915772856,25.252819053207986,11.334154393817471,10.52267283529349,13.31024529292407,10.324580071327546,56.724615932952474,57.07460169808223,66.55122646461581,400.0000000000008,389.99245844895336,374.7312762657598,350.80135646188944
27,2,320,0,10.677333333333282,19.271514380096196,141.0412872602441,15.235469850447858,29.306011393337794,34.06754625474969,43.36090735521675,38.842979033094124,102.20263876424977,72.90773279847234,63.36711043057653,38.66890597141469,39.69453286814769,0.3464955732206363,63.02061485735567,26.181205512545603,11.96102718757379,9.63575719004821,10.773104045815149,10.228549321471064,58.155817009339216,58.34985453034278,68.13509250949939,399.9999999999998,389.7422584214085,374.74300880224945,350.2170266597098
28,2,321,0,10.710699999999948,19.9843932867376,141.31100010951027,9.992196643368574,30.390079668827696,39.9687865734751,40.279832405261416,41.19888219255187,101.03983552012772,70.65550005475514,60.76593708050973,40.872666992064524,41.10132526894313,0.0,60.05137996526378,27.52474007927117,12.747698935986364,4.996098321684737,7.065550005476376,5.659292352747343,55.27813843542117,56.364265250595054,70.65550005475559,399.9999999999995,394.28048174355695,378.71611668356724,348.3323318564284
29,2,322,0,10.744066666666614,15.42778431679754,139.70452881671596,11.499191491521172,31.281182789245875,36.36363636363616,41.46092454906055,41.46092454905964,98.91978551807593,67.64027359177554,59.98552087240728,37.57192452051413,40.94044189131887,2.2024921270647155,59.64003191129905,25.609369242143657,10.062365992275545,7.27272727272723,11.499191491521172,10.882902274907337,50.18227160096262,53.80990569259848,67.64027359177577,399.9999999999996,394.90976058875106,378.9153724832667,352.7460163717167
30,2,323,0,10.77743333333328,21.065400147556602,143.06648356882434,10.532700073778061,26.85322160350756,32.03395667582387,36.86445025822365,43.42743492713824,101.30026556275872,74.47743646372606,64.04690109825356,38.879340236680264,43.010453253539026,2.241348551699957,60.340618852631906,26.119767762622814,9.653913042943714,5.266350036888982,7.447743646372447,5.947630797321835,56.370648542104846,54.61272810939863,73.91674515341639,400.0000000000007,393.99197435189035,378.3717659582937,351.5461231764655
31,2,324,0,10.810799999999944,21.62754670644318,140.9943545072762,10.81377335322159,27.569820671822768,32.44132005966477,37.848206736274726,44.58632974682207,104.00354180254173,76.46492468277356,65.72822609522495,40.77639274437729,47.77001824414015,0.0,59.68288879881993,24.774029312718085,12.772256738972828,5.40688667661057,7.646492468276821,6.045337296405023,55.86010197903465,58.14192046836388,75.8892708895081,399.9999999999998,393.8129211266907,376.97285419160977,349.4455423958221
32,2,325,0,10.84416666666661,16.475498044528944,137.7344629381728,10.983665363018996,33.4055140577532,32.95099608905789,32.95099608905789,44.276570588859606,104.9213160593173,71.60473765253538,63.32354425427775,40.911106814207415,48.371727189892226,0.3669157561812426,60.23533663975195,24.64450829017278,12.719746214282623,5.491832681509498,7.766624260474716,6.17641522905069,57.48346846839286,59.012284119148035,71.60473765253444,399.99999999999994,394.5720310072134,377.4611351872063,349.4980917213586
33,2,326,0,10.877533333333275,16.935036435505364,135.94989528895545,11.290024290337096,34.33726835970919,33.87007287101073,33.87007287101073,45.51154290662409,107.84780560341223,73.60195350836113,65.12143292464498,42.850873190982384,48.17201887576448,0.0,62.320006225891575,25.948410427556155,13.271563354986483,11.290024290336984,12.622630890408493,8.74858952292152,52.30373199571295,56.904957970201394,67.97494764447772,399.99999999999966,393.5751695177726,376.01883107425067,348.07348128925037
34,2,327,0,10.910899999999945,17.24522454236848,144.16934372313017,11.496816361579391,29.31124548594316,34.96620189096746,40.64738405664632,41.84904324458862,99.23291082430787,69.93240378193454,61.11656399044523,35.21199267181191,35.960491591822574,5.483568174861375,63.248158740910185,32.65733331438287,12.67566649322589,11.496816361579313,8.12947681132889,9.07961733404386,48.88023381983453,55.19365949296866,69.22000078648247,400.00000000000045,395.095918480146,382.90612475089455,353.6556010868357
35,2,328,0,10.94426666666661,17.49449587041096,140.4410844212311,11.662997246940817,29.73492527456488,35.4716213223306,41.23492221135925,42.45395079805216,100.6672742566814,70.9432426446621,62.00618933083524,41.47102162029978,41.87170781952955,4.547473508864641e-13,58.60035663738108,27.547176197059798,7.312523135947231,11.662997246941044,8.246984442272034,9.215782582288966,49.6850887045141,56.396582541616,70.22054221061555,400.00000000000074,395.0383023977779,382.66363283957514,352.98634871684044
36,2,329,0,10.977633333333277,11.984430354239818,138.34102997486426,11.984430354239274,30.554422117780604,36.44922195286843,42.37135986070326,43.62398496964679,97.5461958415591,66.99500235922923,60.830524878167125,42.20202338429681,44.301963552696634,0.3048300244454367,53.95491432679273,21.710671741037913,7.4852706002639025,5.992215177119637,8.47427197214084,9.551340765948225,52.09206417740552,56.42742452507014,72.15582579176171,400.0,394.07642634711556,381.34223874633295,350.83895347393474
37,2,330,0,11.01099999999994,18.287074463378968,134.65822626413785,12.191382975585979,25.133179865349472,36.574148926757985,36.574148926757985,38.55253803025245,93.24614953529408,68.1519026828597,58.897531481086844,42.44708459013691,45.053793519324245,6.058836970542416,49.139985894806614,22.22747749076916,8.066707361942917,12.191382975585979,8.62060957407936,6.393482035775378,47.73095404119158,50.54901774842074,67.05260636572343,400.0000000000004,393.9628007081995,375.86253181710754,350.8598687063665
38,2,331,0,11.044366666666606,12.541403536056583,132.28059871077636,12.541403536056919,25.85476573632878,37.62421060816952,37.62421060817036,39.65940022922836,89.78278585580061,63.948861358194264,57.563720640739575,43.47669832244674,47.55263879017639,6.614464794122341,43.9414985512235,15.910469369645398,8.187634799211082,6.270701768028177,8.868111485943192,6.614464794122341,49.91239379780927,50.41294789033782,68.97771944831119,400.000000000001,392.85833974150086,374.25111591494067,348.51790965417666
39,2,332,0,11.077733333333272,12.738595105969354,128.02129640281314,14.242182297397463,26.2612865719448,31.846487764924063,31.846487764924124,38.74292449961624,91.19446266240084,64.95434502109669,58.48055982626465,44.03589849204536,47.65629954256565,7.129973497453648,45.03335592433132,16.513461934516727,7.942716590427608,6.369297552984845,9.007546982221017,6.72360195096644,50.907271914461035,51.79390074316052,63.69297552984813,400.0000000000006,392.73318030538064,372.91679651052857,347.695980605192
40,2,340,1,11.3446666666666,0.0,167.0698131603057,14.943178368585327,29.21966268285611,47.254479126888846,47.11529037350473,54.48447108753887,98.45702312936977,69.24125836127797,69.23661485540032,59.97270936270883,55.2668985999066,3.154792417214992,40.82238081004937,10.371775739539544,9.590990994141862,14.497012422617049,14.497012422617006,14.60278496797838,42.41560373646894,37.3088494557598,58.43932536571202,399.99999999999983,400.0000000000003,388.8774605665285,366.69490130685807
41,2,341,0,11.378033333333263,5.367797881523278,182.82060811731822,15.649685614207065,30.36485025651059,49.48865120646533,56.93409423095714,54.344811573237244,104.22378228852321,74.57183141574782,71.43712937084268,59.37888488402706,58.675395688807214,5.1002966653441035,44.715531971163045,12.662805513957665,8.046157670327375,11.386818846191469,11.386818846191485,11.343763272920455,33.67954522115127,30.60177999206428,53.27387285098669,400.00000000000017,399.1888046812184,383.6567587752557,364.5560787065276
42,2,342,0,11.411399999999931,9.005263989665472,185.9537953063865,12.08182946173401,28.19093541071255,52.509261124122716,52.50926112412317,56.954290276876606,101.96249670796334,74.2593092319248,71.2222281882407,57.59034708037575,58.704100770890705,1.2993793056008371,43.50600353573907,13.341841084293264,8.794013514690732,12.081829461733932,12.081829461733953,12.042461778692598,32.67010825510431,31.23150973818923,56.525519132765346,400.00000000000006,399.4319331684288,391.1644539130167,378.90658171708435
43,2,343,0,11.444766666666595,4.386080927612884,193.43561715063134,17.54432371045233,26.31648556567834,52.632971131356435,57.18749866541714,57.68988751347822,101.73438836559247,75.71549616336246,75.19136110859017,61.70675053940829,59.77688779490575,3.2123664671149754,40.85690430608088,12.299821415911424,7.85380851085506,13.158242782839096,13.158242782839189,15.304544423174661,40.9179759119196,37.79110969297892,57.68988751347858,400.00000000000006,403.90066360713274,390.7552581305117,368.66569166214686
44,2,344,0,11.478133333333265,6.27147245589065,177.88222104088598,13.303802104754823,22.17300350792458,48.981765716077234,48.78060771743485,53.949245968869896,94.07208683835965,72.19006923643893,69.42751837256105,57.979007628387535,56.238298392431375,3.3341276904084225,36.80930530495095,12.171574580647757,8.047432698536113,14.023438730388909,13.30380210475486,13.256170335358888,32.27007122041891,29.59205701125552,48.981765716077234,400.00000000000006,404.15735323636545,395.07787714181484,372.7439511210676
45,2,345,0,11.511499999999929,6.566648551405994,176.99523829220993,19.144905906801995,27.859930322207823,46.66480575854721,51.07653892404765,51.28716472041132,103.09847352521112,75.58780125584353,72.76125459140735,61.71878092557711,58.345085505207976,8.746092749444529,42.99335382344407,12.913598856959311,7.9239316806150555,9.286643440735947,9.286643440735835,11.77958358960825,32.971493898229824,31.270470997203347,46.66480575854721,400.0000000000003,395.1191230657008,386.0943649477257,367.2923247209899
46,2,346,0,11.544866666666596,6.9705031207548656,187.88059863664313,14.786670074903272,25.13250641766351,54.441369739781784,54.441369739781784,55.106665747242594,100.53002567065352,75.39751925299001,72.29997980227063,59.97337936119288,57.44848306831386,3.8157140605867426,41.263614134746945,13.631603019419686,8.638549676198295,11.021333149448843,14.78667007490316,12.496818168687469,36.00104938947675,32.71017332235351,44.63299747960733,399.99999999999943,399.7265995503621,389.88112058300965,365.0374685933923
47,2,347,0,11.57823333333326,7.324361399315438,181.5644041610031,15.537316839952682,25.895528066587936,52.0493672424914,51.7910561331755,52.81672117052867,99.62208556812166,74.15350743929122,70.80639540288837,61.95006998412953,55.76095737867422,6.336472429394803,40.5534235481266,11.965617703880298,6.77855190121295,10.358211226635252,15.537316839952796,15.472781513638552,32.77282484412558,28.646749773821966,52.04936724249049,400.00000000000034,399.6310117039309,388.74354313642266,373.03944046283
48,2,348,0,11.611599999999926,7.61939317759491,183.89433452381414,16.163173753211037,26.938622922018368,54.14596195411163,54.145961954112536,54.94422557947553,103.6349515995129,77.14047653770643,73.54255272498312,56.878737953788004,59.19011994641869,3.498307880738139,45.25935820705081,14.649164250591411,10.588628317591656,10.77544916880722,10.77544916880722,13.43100347069128,36.07630002011297,27.986463045905793,54.145961954111634,400.0000000000001,399.60067149822015,388.51434494290584,361.6202853397895
49,2,349,0,11.644966666666592,7.723072753075721,169.64410968712633,16.383111345890804,27.30518557648463,49.45179433267661,49.14933403767273,50.34827446740624,99.65457582448786,72.85932263401689,69.27431613682143,59.64636033475472,53.87629623038015,6.776470634207271,42.67163686490903,12.211065895304273,7.380314552106938,10.922074230593825,16.383111345890693,13.586488152742277,34.888759700868945,30.326383432293824,44.02828879654896,400.0000000000008,399.5897243547174,377.79958394508316,361.089786770509
50,2,350,0,11.678333333333258,0.0,173.64382639432117,17.325923272968488,28.87653878828069,46.56201971797243,52.297636036849504,53.2457066262592,98.85734495131584,70.25965125842275,69.99109927521044,60.33715454759522,58.406365602072356,6.654326187249126,39.408781513086524,12.41221464979094,8.826463750962375,8.167518557755992,12.913980737100985,11.739886356260513,38.89160590267852,35.06450638565957,46.56201971797154,400.0000000000007,399.5411168119596,393.39978874903284,376.10513967403006
51,2,351,0,11.711699999999924,6.035716402834528,175.4515382054315,13.49627216964872,24.885896255159984,48.28573122267704,54.321447625511574,60.65819913284647,104.19261971772757,79.38745456123539,76.13889289564031,68.32843758146555,67.24993372961967,7.149436824333634,35.88634590900301,7.149436824333634,3.531230353624778,8.535791995526168,12.071432805669282,12.037494604474205,35.34709398307973,30.85912634152737,54.655736612240965,400.00000000000017,405.5175020198813,393.48056890480206,374.65223704784563
52,2,352,0,11.74506666666659,6.222713912870606,181.42172740666422,12.445427825740987,25.656906740765827,50.169123459486194,56.34907108548917,57.37058756472503,101.29844340847332,75.70258205194888,72.40632126587502,59.94234755543084,61.815545916537985,3.9625349946497863,39.985580400557865,10.734867530960628,6.123917719004339,6.222713912870381,12.445427825741072,12.391927619632042,40.92217958111132,32.85301741018816,50.16912345948529,399.99999999999994,399.99999999999903,386.61035964382893,367.6144282541158
53,2,353,0,11.778433333333256,6.4216129906795265,180.83426369976144,12.843225981358513,25.686451962717342,51.772699090678884,58.150178838667316,59.20434645509796,103.54539818135845,78.12229376756142,74.74336485795743,61.66957079754775,63.49021767410841,3.8156110072602587,40.92581755503079,11.446833021781003,6.488475570721903,6.4216129906793,6.4216129906793,9.587448977633812,35.44450834155532,33.62386146499466,51.77269909067979,400.0000000000007,399.4325872441776,385.7780997776332,372.674922604332
54,2,354,0,11.811799999999922,0.0,179.8696846282775,13.287276776598194,26.574553553196935,53.562725072958536,53.14910710639373,61.251319479102186,100.5364919165998,74.27813527082063,74.06053146415047,64.51083290212455,59.23230753661642,1.0274992123695483,38.62188215907986,14.928959144433065,9.44896334512714,6.643638388299164,6.643638388299164,9.912345342862409,30.059388722663925,35.337914088172056,53.562725072959445,400.0000000000004,406.1323039058357,392.4810559891334,378.92042654780766
55,2,355,0,11.845166666666588,0.0,180.09338777030015,14.874102932718028,33.91817326856066,46.56330736664197,46.56330736664106,53.629340800444844,101.75451980568208,67.83634653712141,67.41347007083914,56.06946636169323,53.95517176357271,1.4230829025812,46.10788604362574,14.678083652335772,10.124218364076569,6.6519010523776005,9.407208683836064,7.196733535909743,38.99247153072042,33.9100325929312,47.036043419179336,400.00000000000045,399.61264430286224,386.03956879129186,366.0963652818288
56,2,356,0,11.878533333333252,7.102208242284377,178.12247653131644,7.102208242284602,22.45915446243942,49.715457695990196,49.715457695990196,58.56630951614131,94.75527648202684,72.42859683401487,68.55386016184639,60.839198862754756,57.20139109570346,1.0662540006876498,34.977312610786385,8.843636123348915,3.8677841201408683,14.204416484568888,14.204416484568435,14.133092244406043,33.86924472771943,29.72967037210924,50.22019609518167,399.9999999999998,405.8214467697094,391.20211151716086,384.1106397986882
57,2,357,0,11.91189999999992,0.0,178.2717642191499,14.80466420395217,30.520597132347884,44.413992611856095,52.342392259021636,52.342392259021196,97.36247765332655,67.03096810379124,67.00649978098158,60.91098430980469,60.82264350587457,8.61322838318506,36.26390001330651,8.613228383184833,4.284528990609715,10.468478451804133,14.804664203951942,14.752914256326676,36.838115238852424,36.308070415271686,59.21865681580932,399.99999999999966,414.7948824666821,407.19555397631945,384.99243899353627
58,2,409,1,13.646966666666543,19.677756499670345,134.68804220759966,16.726594830092004,18.92398180882848,34.92615537530369,36.67665892533218,47.897678355035914,103.0553728642898,84.21969225967402,74.24462542339234,84.69505403517735,92.0635237362377,40.69597346390276,14.374632782081335,4.898197291701081,24.07692174988904,10.891569456908583,12.782445821214107,11.04799927081092,66.30681674798427,67.04084054962243,70.71216185516423,400.00000000000017,398.0845232896285,389.705968794077,367.9485900634835
59,2,410,0,13.68033333333321,18.64148990447037,132.41694217637883,16.646188948270677,17.639862200381156,33.6992244949884,36.94640108778498,49.710639745254255,102.34804558926827,84.83909442379901,75.41234686020277,85.02672626814035,91.56506954017243,38.77783992461673,13.717331129796548,4.2207172707065865,22.01744701259213,12.427659936313615,12.876455599593058,11.870767323862253,71.34708011397538,68.67144684415246,74.39824126712357,399.99999999999994,401.3604517416994,391.10850142983975,369.19649831581074
60,2,411,0,13.713699999999877,18.530045202840466,132.03261242806872,17.02945022648457,17.82813461408341,32.88051259425265,35.55853600854707,48.76492422975514,101.96076681736348,84.25706643599293,74.75724987738704,85.18628917543731,92.2780358981114,40.256091690473795,12.742389833254038,5.546352717599348,21.33212583692091,12.560301875706362,13.013887590167963,11.960211885900321,62.09070760266428,68.06370283700215,81.08593781889569,399.99999999999994,398.5095118986911,391.3840426754985,372.06601329385995
61,2,412,0,13.747066666666544,18.656724482236438,128.4276943883572,15.158295515483822,15.747185069803349,34.028951967664526,34.02895196766454,49.75126528596433,99.14751091581647,83.43540835953111,73.92972450011928,82.30890188962178,92.51790531143183,37.908292035548016,11.378190964531427,6.710946383424471,20.912297512087775,8.122480578224659,10.118029458320372,8.863962468191744,65.57906387995155,72.92688477851681,81.67171317607635,399.99999999999983,399.0519121005638,392.6380678859248,371.30702085944137
62,2,413,0,13.780433333333209,14.064478309867155,135.52993067155066,17.05568518846775,16.43021170424339,34.11137037693573,35.906167055308046,48.840049728010925,96.20374096076614,79.92549582935793,72.66839782149873,84.14030777672292,90.9680151006462,38.95294563007462,8.140727963139284,8.54922327311749,21.922581635502638,7.7785892440473186,10.23341111308074,9.862243912333497,64.97993252297846,72.71216517613937,81.21085591476896,400.00000000000006,398.27417021774454,391.85339285838245,372.9513294479362
63,2,414,0,13.813799999999874,12.841865878351088,132.06123364446447,16.804349528559932,17.59247665149792,32.44588750450229,33.90982831058928,49.234163178240564,96.24066785386887,78.74769927555394,72.2034062608625,83.92401300875758,91.46250520632634,38.566770649932664,8.033934339419375,10.171135735636994,21.478874031990244,8.09404656732945,10.082609717135789,8.845099414801894,58.909042121206994,68.63330847399851,72.28605371436113,400.00000000000006,397.4589247881499,390.0578758182204,368.58799845014295
64,2,415,0,13.84716666666654,15.566350786039639,135.92731460433242,17.06574098530291,19.307681882689387,34.131481970605826,37.13906763541042,48.86884514795757,100.696548934813,81.45919910212562,73.4063934437279,83.64313663991538,93.32331904097009,39.90342129387602,11.697715283410275,8.139701628812986,22.6699138160227,9.284766908852605,11.624763874381928,10.584593693145166,66.76741824464722,70.36518624175386,72.00044009392282,399.9999999999999,402.05668831036485,393.5316947603939,369.897721437054
65,2,416,0,13.880533333333206,15.936149390901628,132.02311356845593,16.859708390372305,17.866127416250034,34.13148197060593,33.891719470227955,47.80844817270477,98.13023660646041,80.33596741661997,71.93570885891302,83.33866291190623,90.12090772733654,39.50779587808586,10.534436371592847,7.899607450490407,22.09840774754241,10.793322294408588,13.041620949116275,11.959195714114855,64.28006704926543,66.51479231938555,68.9591096743783,400.00000000000006,399.86309399870635,391.3141288493075,369.1158424205272
66,2,417,0,13.913899999999872,14.053750917076643,133.34301474237873,15.545312568813863,16.41767989675679,34.085352627781326,35.58615288983365,50.28022782309368,96.13036352760079,79.86453429428802,72.48534885687025,85.9946423311967,92.6766584582831,39.365790661747155,6.071919002439358,10.836487023492055,23.474213176894295,9.640793592895548,11.609052786346654,10.429755607060656,58.220697037742696,66.73300453876993,68.66316412996764,400.0000000000002,398.6354487932461,391.90744962184453,369.7121788383334
67,2,418,0,13.947266666666538,17.44529402754971,132.33857221352903,16.899993311863643,16.479180550502676,34.213036410322786,37.227808459943695,47.92268262662699,98.36471093935448,82.01143865302747,72.81423816091615,83.16732143556067,90.80363817714249,39.69905690655662,10.426509397159862,6.608351026368837,22.125738251249686,11.13895763542946,12.617144408158072,11.870556473292197,63.24436685976724,69.16740740932738,76.56385280897067,400.00000000000006,400.47086193511416,394.16328321237665,372.20576004066294
68,2,419,0,13.980633333333204,18.91091906318084,131.96083558467862,15.364824618706495,15.057497079978434,32.68323378763967,32.4319586308003,50.429117501815504,99.3757174583348,84.57220108453802,74.82012849059163,87.31894903136015,93.75075376432096,40.46277156631311,8.092554313262553,7.631768302543037,24.37366002535441,12.607279375453961,14.50401282838604,13.468391104991042,64.9132292601206,69.21389869350338,75.05427631488695,400.0,399.4795890059629,392.7139849098645,370.43171782430846
69,2,420,0,14.01399999999987,15.93614939090163,134.756692831245,16.8597083903722,14.480761412016946,34.131481970605776,35.63431333764776,48.868845147957735,95.88456091277278,81.45919910212571,73.19677306891276,85.75532840584901,91.57846071045617,40.179612901789824,6.5995499452213835,8.889981985033728,22.632574223906772,12.30628083525936,14.072770532367265,12.597376218966929,66.1896038623687,68.90706560451872,73.33107398592486,400.00000000000006,399.86309399870623,392.437836773665,370.59308653496424
70,2,421,0,14.047366666666536,13.97040995855296,130.53618123979643,15.228613855044063,16.32032046670792,33.88322111311443,33.64520256408335,49.9820581453829,95.1871290423111,79.05762222463497,71.78180534175931,86.13816641011101,91.5236212211521,39.22648842096123,5.681412237593918,9.756891554057233,23.205973298386766,9.217232654219794,12.946760608662979,11.081422331907902,63.34459280446157,67.75969539729698,69.7698225131815,399.99999999999994,399.73298398158494,392.65083631287087,370.8409810255632
71,2,422,0,14.0807333333332,7.480988547781563,128.6556041977428,16.526043855137804,15.620762685697398,33.22098041807542,33.22098041807542,49.35184954646212,88.18686270668091,72.57715653047924,68.74012867597378,83.5669945378553,87.39946390441594,36.50427071649028,1.8970723364475361,13.346574569047448,20.685753406011145,9.10101536560695,12.78351883418438,10.850678894074917,61.99977317753513,68.75450043609823,68.84135573719101,399.9999999999998,398.4776481570297,388.8416065334672,367.2761594692888
72,2,423,0,14.114099999999867,4.327391569001315,133.30894787710312,17.105517106817846,15.068397500116498,33.97071288476317,35.48724942110905,48.98274662604626,84.70254130694666,69.77709241420759,67.34058361403424,81.03845858077511,86.39299392669363,35.15495842565815,0.26285900789048355,14.340419208250978,18.964790643362562,9.306407458602104,13.07201781849748,11.186111113564436,57.3908833894364,66.99010493684682,73.50199101274491,400.00000000000017,401.47490433473706,395.7996365261386,374.07540643127214
73,2,424,0,14.147466666666531,5.523965378336691,131.9807182803587,16.922292095907597,17.468312311457954,34.25817897909932,34.25817897909908,49.050247657643474,87.34156155729006,69.8732492458321,67.33462931357508,82.25859110877855,87.90654289495433,36.459805398408776,1.3320641005130938,15.815233775183287,18.71186771011719,9.319232221343908,13.090031808087376,11.106992663551296,59.608657530598805,66.80664754282617,70.54190801450787,399.9999999999998,403.52877561574843,398.49198609198515,376.4348816563515
74,2,425,0,14.1808333333332,5.55008163416285,132.60469797006428,18.535815416794943,17.55089916382407,32.653816793803024,34.17835485746315,48.920217786271216,88.85465629028685,71.30870568765997,68.95475958952977,82.12425174450141,88.63107183290458,36.74210385248,2.7176688692582047,14.581900707095087,18.61457064212334,9.363291775690413,12.693522327183835,11.908065206695824,60.40238228770647,66.37346120116621,70.82525126122914,399.99999999999983,401.55196887792385,395.867583947882,375.2206311343743
75,2,426,0,14.214199999999863,6.544881217335591,134.1744990834747,18.767065688559452,19.081443767880078,32.724406086677725,34.252239816034574,49.02597092387868,92.41708066179437,73.33642513816103,70.03989277996118,82.61215054212596,87.52076352642803,36.32955657353955,6.451042756048992,12.42674551954724,18.150227062508066,9.383532844279788,14.634799306623899,12.019311240217746,64.66564061928273,69.67126176532986,67.8763050656305,400.0,401.46976901019366,396.06296397680995,375.3222926145377
76,2,427,0,14.24756666666653,7.621163174291202,132.8095654321168,16.835699726188103,17.84068558514149,32.584372054733905,34.08287785066697,49.928798696786075,91.31412987169244,73.57482138367098,69.7886898849465,82.62306095429722,88.98752875866546,36.13560786516234,4.6199901832914065,14.205032057339622,18.345770146928544,9.271545158773561,13.023049340964262,11.875866881945967,66.92276236460589,70.87179961671387,76.34868943894163,400.0,400.28159919879084,395.2967378419422,375.5957881623067
77,2,428,0,14.280933333333197,6.565125132363607,131.30250264727138,17.09175547910976,18.112026263250215,32.82562566181756,32.82562566181779,50.68817052870862,91.20563318509,73.18797780906174,69.99555259180602,84.9438218257078,90.23871548678153,37.230946724253954,2.5101718096941568,15.178695161744827,20.326508443344323,10.941875220605969,13.221118132791611,12.016467003047978,70.66721965807182,73.0597271641866,74.34035966503805,399.9999999999999,399.9940137235384,393.9379008671278,374.9760044203502
78,2,429,0,14.314299999999864,4.841536516609103,134.67828409315368,16.910760044073914,17.4564081626655,30.963130686735724,32.4780143000565,51.35224953384899,88.01748272740187,70.57691631371165,69.15853628047137,83.26029749371753,88.14789376047986,34.46991530547359,1.7211185297353495,15.509084651924809,17.924355958846263,9.312881434558278,12.625182601581866,11.838632980776424,74.43599917551632,75.74823319266267,78.21741618510036,399.9999999999998,398.7557194879011,391.26385429054744,372.84546661983455
79,2,430,0,14.347666666666528,3.4129494057037073,129.30529850441653,18.379295028126744,17.40269561858863,30.678599553894745,32.197700298073826,48.50712500726651,86.26056610640266,68.87057912206068,67.40032269210667,81.92170745763292,86.44119208642371,36.063938906186536,1.2726171920470506,17.608570197184008,17.76341335363088,11.11175821580339,13.040861368408676,11.071285685945895,68.85681613243452,68.41164205765,73.40618678688163,400.00000000000017,401.7086395644947,393.0467286799798,372.83719147285944
80,2,431,0,14.381033333333194,4.752048555920005,129.45298984994668,19.593198134121607,19.00819422367948,30.390827366869175,30.390827366869175,48.925334343762565,86.74278585109951,67.80625466197208,67.86544233973802,81.24193111672707,88.22892993756068,35.951722898096136,1.2094735889855883,17.390399134061,16.677243392348373,10.625903603416534,14.25614566775966,13.188562601807917,66.49695429482989,69.35921450143343,70.7720279699582,399.99999999999994,399.9209553107489,393.16417701613585,371.80642553023796
81,2,432,0,14.41439999999986,3.0736284216968865,128.67091128085525,18.505693669963,19.439332987180713,29.56121157710326,32.41913129320703,49.202061609573114,87.61188980762346,68.21101010666247,67.24509015583294,82.4851018938017,87.18183185396856,36.23887701630804,1.5006149665264275,16.272902559084287,16.282646812113626,9.719666493590381,14.579499740385549,12.677273191238783,66.41682864833456,67.05994934827447,75.36659733854738,400.00000000000006,399.95276125225246,395.74980149138526,375.4012786457403
82,2,433,0,14.447766666666526,3.064774199526006,127.22504891225292,18.452384193118213,17.93613114978459,30.99061118177214,30.99061118177214,49.06032489811161,85.88206047875858,68.0145141887739,67.07341210294533,79.03478742224002,86.60035731169398,34.34409888552511,1.7792545787450535,15.774063702320063,16.013291208705937,9.321146832351166,13.092721119651868,11.886616723549196,66.026791762507,68.68819777105,73.6184025627069,400.0,399.2449247924828,393.2715577841072,372.40474728594234
83,2,434,0,14.481133333333192,6.899628939308998,129.38414074463435,17.249072348272147,17.590671299042654,31.009975264469514,32.545484615816015,49.031076010602945,90.55352281330978,72.96989634151639,69.01226625476204,80.79731347987229,87.48830941728477,35.526964833844204,5.407375870869487,12.179229765229707,18.506364896378045,11.231782168266776,14.636323231968763,12.714913730007368,66.95038835259868,68.5877619807872,74.07065790441,399.99999999999983,401.2832732586836,395.599116673387,373.8109185093271
84,2,435,0,14.514499999999858,6.79113232630645,130.57706964730357,16.772859549514806,22.110324956862456,32.213169064088675,33.71713421154536,48.26006271034878,93.56001804345532,71.48453114270912,67.77885047467885,79.6023416325337,87.57632404131948,35.74543838421209,9.0738420513768,12.785868345122026,19.110061290021008,10.737723021362871,11.055162478431361,10.861113970587553,70.39101712583295,68.87871011727009,68.40190838592603,399.9999999999999,401.45300699634026,393.1649212848999,371.6338192514822
85,2,436,0,14.547866666666524,6.920249514094351,128.23952446900728,18.633342069945442,21.047117222324026,31.294528287677966,32.82562566181766,49.17761272708213,95.33883869349424,74.35646285155087,70.61300934519318,80.86604650300319,87.79540756839958,35.573405934563084,10.1019609717913,12.30767328766592,16.950748071310727,9.786710717838133,11.78476027241284,11.209853002595878,71.96262327362791,71.94247978215873,74.34035966503818,400.0,403.99382998539414,398.63580601418107,377.58190288361817
86,2,437,0,14.58123333333319,3.457616023697404,130.99756805965922,18.619832127400052,19.559229896766205,29.54188425634111,31.080102513348375,50.6514195116874,90.75830431916495,71.2805803926645,69.750139506403,82.33505826324472,88.14034304041786,35.01025432841698,4.433033806118942,14.931518930391576,17.716831310300563,10.93394190917888,14.669422422574614,12.722653984419594,70.79590697505029,69.418554699271,72.69221407248327,399.9999999999999,400.02390950255426,394.6441198726147,373.1567117540775
87,2,438,0,14.614599999999855,1.5495962859072072,128.00828403977272,18.659610235697922,19.601014868817842,29.483080080713485,31.146499872637985,49.2469403698403,87.57618503826617,68.07650030035651,67.46259092133164,80.45101984532391,85.89843604505779,34.43254866548227,3.374145855059055,16.09833444100468,17.114643433492233,11.281231245425909,12.778298327721112,12.602231506847033,69.96271104285114,70.12532048164923,74.44516023610225,400.00000000000006,401.1509435129502,396.89635157207397,374.8133565218271
88,2,439,0,14.64796666666652,3.434014098717219,126.86346843217505,18.49273187161566,18.99602739005637,29.540506248775664,30.867947594215714,50.30566943554663,89.78485815947457,70.79401424435673,69.2161476284374,82.67260473431531,88.07130309415857,35.53471607001279,3.4648362607947547,15.833495935958126,16.840715779212474,11.180339887498986,12.664018260037597,11.724038975480369,67.80603984788144,66.55708724224604,75.31380890195861,400.0000000000002,399.6726254663556,394.2900235125274,372.14637513793133
89,2,440,0,14.681333333333187,5.583253878037219,130.99383778504432,20.190178605002732,21.062094854033756,29.584356847853883,32.66598103490293,50.41602866199595,96.58073380144752,75.62404299299406,72.74738603702224,84.94416486940861,90.34282075111821,37.52165443985257,8.088023202856448,12.92888438092075,18.526752656789427,11.273366724380121,13.230526596482639,12.709750747345936,74.42575045781206,73.34004290964543,75.94046296490471,400.0000000000001,399.6551529617404,395.4147080061715,373.7349086462245
90,2,441,0,14.714699999999851,17.293773006168227,134.19468057239288,18.853580517096546,22.417478887828068,31.66441675366185,33.02857558497666,49.43760440991265,107.85193648455645,85.47083975322583,76.63126891431125,85.90193566280414,92.45695255567807,40.048031778843665,18.322832933890368,4.213939431133213,19.446550115525838,7.98355851699914,10.503066029911547,9.738882240841178,68.92132047364521,70.73175371072466,70.52626138809651,400.0,401.36129211120056,395.80133844624936,373.78390586786503
91,2,442,0,14.74806666666652,25.00361064343548,133.6785197203998,17.227254955147373,22.331253227072224,34.454509910294746,34.454509910294526,48.97502013854034,113.37507053235832,91.1180275507222,78.51458972614307,86.75081809143217,94.22986974021251,41.70137889016951,22.643189427023913,1.4525430888127175,24.28116354845099,9.864297492117657,11.87818712046784,10.394439550439984,75.56314579036388,74.39905097450685,73.45425134034686,400.00000000000006,400.10641249470905,394.8954392987564,374.21002698929993
92,2,443,0,14.781433333333185,29.75038780540726,140.42373875477023,18.82878719896389,22.387998880818525,32.985141501927785,36.26849077343698,46.30609332181452,116.98118043949253,94.64901060140011,79.6817863661795,87.82911271408022,94.50690856073425,45.18157205422813,25.59475562065154,1.6149257451861558,26.41520021145368,9.511285279985156,11.908370625469482,10.46326487636702,73.50768118603042,74.53583326817466,72.08050375798513,400.00000000000017,401.4186334930198,394.6865922633671,372.820479620487
93,2,444,0,14.81479999999985,27.819546175090558,128.4164439250034,16.96653020002805,20.20394467974827,30.874775024002492,34.10645478606696,45.20350027490862,110.13793285267352,89.93599126435069,75.71084363623481,84.0720208969741,93.04686254382261,43.68523348615588,21.13306729663907,0.2684781689227975,26.04238238551352,7.832488990924352,9.715006931621952,9.358381888166832,51.01085209533562,60.062401790447836,87.61029663284435,400.0000000000002,395.37213732434805,387.6336462187887,369.04560904357487
94,2,445,0,14.848166666666517,18.913490909265015,133.05912152721118,20.270539053973895,19.23032184298576,32.685262110017604,34.34398994660078,47.28372727316252,105.55803571867095,86.40717200900633,76.76357185874792,84.87168612954247,90.90209611844591,40.80915263919303,17.234810396857938,2.2550692815646016,21.765219245664184,7.927340475329557,10.429106303497484,10.41385926655181,72.1824872957489,70.8345132982293,74.64080286540398,400.00000000000006,401.31210692360975,393.9509683190555,370.816289768584
95,2,446,0,14.881533333333184,8.188529973162897,131.33375389934918,18.310109655786764,17.337186469611556,30.563115780999592,33.48712115481126,47.7469243630118,91.25964989754216,73.994219427402,69.75820307714162,84.5143767806328,87.56737823652747,38.48893973799352,4.617904717878446,12.951254603779944,21.34220829073581,9.249277428425257,11.580330143945583,10.176671519649119,70.35344235470598,71.16949620297964,68.4426260716509,399.99999999999994,399.9913293857943,392.78169082506747,369.7960694057968
96,2,447,0,14.914899999999848,4.325493534653676,130.56436137319255,18.415125156233998,18.916308541522852,30.73840697036405,30.738406970364053,48.020771284250735,88.77805461710157,69.89721849883767,67.79628038861358,84.2848716090898,88.9635339924389,38.85259741288485,1.3740492683731418,16.414717603897202,19.891702490891362,10.813733836634345,14.50814636958242,12.479716294111995,72.08095015020689,68.60396526321267,70.41393324021706,400.0,401.6104863022937,394.69387830064693,374.38014879557835
97,2,448,0,14.948266666666514,6.174166446616527,126.50617389333624,16.472008500293718,24.00603496035868,30.098479392363227,33.48411884782811,45.147719088544825,91.45517570928136,67.65117981006101,63.906872914681,80.45510693018014,85.63565707615146,38.5141245308007,7.806614857271256,19.79614369250703,21.56773078905678,10.588608100291,9.108665100394647,9.063725903055229,59.74185375587331,68.0361024351746,92.85430519620006,400.00000000000006,397.74003138514377,391.1340678576377,372.58963320359237
98,2,449,0,14.98163333333318,5.499933234388887,130.55381159728478,18.368332928620653,17.054568974644603,30.84944784861633,32.17849638443108,48.165194731646444,88.55247249895469,71.49913204705459,68.51904113879834,81.32303092494192,88.30438090299833,37.03994016135425,3.025251657157696,14.563871759778522,18.219384178844166,9.278688677912946,11.105130747281935,10.089020350232772,71.07402130437873,70.7540427637179,70.18530157247417,399.9999999999999,399.7614250276914,392.81230089895297,371.28858146575806
99,2,450,0,15.014999999999846,6.300281144737575,135.33317218485456,19.923238316783873,20.386631382999422,30.90274962411172,33.755564893140146,47.76202714264647,94.21965843189902,73.91684097543943,70.70238976312612,84.69522152925026,90.6585934775402,39.99869416119907,6.260581804233652,14.342772402961145,18.18732570081363,10.804893023225292,14.087856916993402,13.168314101247972,73.57382046813063,74.7243102330741,85.6930881868905,399.99999999999994,400.93287787952397,392.6623594975926,369.49890637126185
100,2,451,0,15.048366666666512,4.338353966586375,129.57995897797275,19.9988236332079,18.65996597207003,31.01998930531055,32.356385067384366,48.431460841555655,90.54852515419064,71.89439248061322,69.71162581842691,83.63835772036066,88.40404834320566,37.94522789375719,3.903188332207492,15.237540467931012,17.596021307866522,9.329982986035025,11.681375550876572,10.213586447324474,69.61416793247918,71.84595352068266,72.10678405849197,400.00000000000006,398.42059671364945,393.1928727983076,370.34210682174216
101,2,452,0,15.081733333333178,3.3803031481935504,134.06641960166905,21.16404534696891,18.698913092338998,32.31682955914877,33.39493163448489,47.468893145840475,88.9732775955279,70.33955202307438,69.26887474955493,82.57241815901784,89.20534631784358,38.59158201498599,2.6757835186172088,17.637558967786504,15.715517285399528,10.6894571301295,12.46594206155932,11.532250094321967,72.05771954360671,73.4898290324441,81.85639811725463,400.0000000000002,399.39679998271197,390.9302688245035,367.6489561133379
102,2,453,0,15.115099999999844,1.5140223282089553,131.26669630465767,21.196312594925075,18.418876576128316,29.12280096104452,30.88011758221018,46.32017637331505,85.87323235085519,67.45474976957256,67.10112486340518,81.88131633578075,90.38110695887235,40.23234228263277,0.6610948262404008,19.643960551144573,16.999581246182856,10.705754551443782,13.710055289671324,12.938570170705816,71.77600970610547,70.45382005362455,86.35237995767886,400.00000000000006,399.3260798540159,392.52908566698056,372.13239779676695
103,2,454,0,15.14846666666651,3.0363866030452207,135.96944632975618,21.30885842684296,16.973917125946407,32.205743359757996,33.709361816689366,47.45416683569383,86.10980413306578,69.14032982445407,68.78071522064624,82.5914237343801,88.52777051378473,38.19112480347599,0.19286071153373996,17.155195486916682,16.506054555412902,10.73524778658595,12.51934268456553,12.324269858985986,74.48186601037565,73.03305871397578,79.07732465022978,400.00000000000006,399.60797304044496,391.10792874959077,370.7159457852925
104,2,455,0,15.181833333333175,1.5355114656827853,131.24806147081475,21.55193044404648,17.507524381296285,30.86339848983681,32.573117099223005,48.21603804530529,87.3488758518662,69.92901963147717,69.59047136207937,84.71124416395833,90.25908383212686,39.49441106430481,0.6983294687205444,18.408740717104706,17.477634758810723,9.340151608299418,11.178692206421964,10.154874357644246,74.54667078591518,72.80084711411394,82.97447045225259,400.00000000000006,403.93000126020183,397.0833837813083,373.4356307996363
105,2,456,0,15.21519999999984,2.165724537018908,139.04558726889545,21.439579088313902,20.14240252865184,34.00256494539096,35.75085810007813,43.852579579776794,86.85878490941442,66.71697137133093,65.56305215483326,76.85408529032873,86.95972013555547,38.55519381167994,4.521905447048994,17.67570732439549,15.195066886844302,10.719789544156887,14.118796610739729,13.176686014224458,55.83729398177769,61.192182011177636,84.24083850117746,399.99999999999994,397.76289038310466,389.4090758598693,373.39126040327693
106,2,457,0,15.248566666666507,1.5154559589466554,137.23037368147328,21.270437992924936,16.943312705559247,30.64820004950229,32.147675554822136,46.090793616989245,84.45863252180024,67.51862280557293,67.1538418336363,80.63044900025,87.50626898321627,38.22955910529197,0.04583879988638273,18.977263152986552,16.45612915923232,12.21799654722288,13.971813586578039,13.041138567692485,71.82939942205337,71.87523822193975,78.86197509304948,399.99999999999994,399.27878944712273,390.70852942256266,370.2212693145229
107,2,458,0,15.281933333333171,0.0,134.44502324996503,21.04242603462971,18.23868630980677,31.80306325956393,33.28788142910157,45.59671577451694,84.80816869217031,66.57576285820323,66.44582782743794,80.30390388365447,87.01413018455924,38.25558363939763,0.9481841512147184,19.000151645496885,16.921440237064417,12.08702372380934,12.362808798349269,12.180519480990256,74.28658138556051,72.64549343153482,79.6841459535276,400.00000000000017,394.9986547964943,386.52026508377065,367.9791403976856
108,2,459,0,15.31529999999984,3.380303148193698,129.3821793465103,21.164045346969,17.236231714498366,30.57259489751672,30.57259489751672,44.486638797763916,85.74250711887713,68.62931175404646,66.9030686922506,80.22932778741506,87.35166035585758,39.56643171574194,1.5462958865697374,17.412228831797393,16.36262192697427,10.689457130129556,12.465942061559343,11.503504247056696,73.30379651362699,71.71064317594903,77.15685402925179,399.99999999999966,400.12567120154694,390.7724010596998,372.082176274913
109,2,460,0,15.348666666666505,3.3369270997737472,130.5246190489861,20.892468326955004,16.68463549886878,29.995244014872426,29.995244014872206,45.16577363843417,79.77977901321431,63.11998500856431,64.44129142915551,80.34604724822293,86.64253155705694,38.46488646673663,3.9477957174435687,21.174540666287953,17.01322780417263,10.552290021225009,12.305979098843805,11.339123257467122,75.72135675298995,71.51461471115721,77.72963236623725,399.99999999999994,398.03260340309083,389.6182134938916,368.0102634981081
110,2,461,0,15.38203333333317,5.630538835730368,133.48058952647415,18.804521345015214,17.459559752101114,31.3883845524834,32.8314010932016,47.77670630974941,89.12245914394487,71.66505946462404,68.5505862476108,83.1037403298011,89.2880616205415,38.875074382341154,2.117848004208895,15.942831586162583,19.532404474652026,7.808152492583501,9.105792314374144,7.291960924902924,70.67356221308881,71.39147679078678,70.29072174160898,399.99999999999994,401.02294170966036,395.14497848840296,376.40478492973784
111,2,462,0,15.415399999999837,14.272762447289235,132.03383051571694,18.577181352164644,19.148920235307283,32.65717249479468,35.639902682688756,48.3889119136129,100.05316062745622,81.03522757435265,73.90452328486799,86.03329509727087,87.17939536224605,38.290167943489905,13.227512562296397,5.934147239727054,21.013416841714843,9.416715220625049,9.791034263141098,8.718886726526307,74.14605681178432,69.5332400428345,75.9199852510052,399.99999999999994,401.1218372258685,395.50203926625295,375.266216175665
112,2,463,0,15.448766666666502,16.087231298154467,134.41967925234556,17.352310949974463,19.512384789629053,33.16467693301653,34.74045528264853,46.42197169068874,99.0679302080832,79.64335639345651,71.30654526140677,84.28181034117961,88.41552310995678,40.32457683279392,12.004468899226708,8.048213496785934,23.67490040299674,8.043615649077212,9.976877321708985,8.794578302259652,66.41080968424382,66.42124835285182,71.00425203698444,400.0000000000001,399.6390115652274,395.77217292158844,374.95674769098827
113,2,464,0,15.482133333333168,15.498230820526988,134.15837622246542,16.716992215006943,18.488271611769292,31.950421341617993,35.08561225990619,44.722327855683254,95.21059640106657,76.7273807301382,68.7242595390029,80.05338453851141,84.76184191744198,38.04241380242058,12.328471055444766,6.870504134561884,22.081704197515137,7.598632825003122,9.611594732131923,8.484832378766782,73.86512626905977,72.51985273222243,68.40457919159222,400.0000000000002,396.77380191939824,388.76494748138185,370.1712020463362
114,2,465,0,15.515499999999834,9.685414570626794,132.41948956465163,16.914849363354598,15.988269793144603,30.97061811645356,32.48586805528285,43.31449074037695,85.60777901866513,69.74171056652246,64.56621403431905,75.13360639126415,84.94486770696187,36.99509435956702,4.610555129557156,13.43515764752965,19.087698236366805,9.188391037848692,9.685414570626849,9.276436920669084,55.44653598805496,58.978221217295754,81.22188889917764,400.00000000000017,395.4805139783843,387.96402729965,370.0094578530342
115,2,466,0,15.5488666666665,3.0905543201052725,135.3242891504959,18.543325920632213,18.79910801618832,32.78027876057834,35.8424364091324,43.515399924563866,81.07920678756362,62.292113784517674,62.01130970826762,74.70441797802584,84.67757447569306,36.270511997141625,1.036813299262576,18.532476678158332,16.88973352867754,12.362217280421488,12.742681903503405,11.705667032365511,61.26624041096204,63.8874480593139,74.18939857339471,400.0000000000001,396.4140432986059,388.34447592657733,370.9083673079299
116,2,467,0,15.582233333333166,3.454236585380664,133.74632773038155,17.062670056643423,20.318429157226973,34.12534011328682,35.830941122517736,43.69302074754156,83.0454798537399,62.730305896675375,61.26892250100843,72.69241208827111,84.15750888163882,35.00552940297575,3.8278629616564785,17.41955028927805,16.984986136626162,10.923255186885356,11.246179533979044,10.877972884997632,62.216642195621546,65.55446472981964,80.34349357471338,399.99999999999994,397.9934158977504,391.2813079176981,372.56147447242404
117,2,468,0,15.615599999999832,3.4651846545935414,134.00008400770247,17.046454572973367,20.38282763232166,34.408428654568816,34.23349905846775,45.60372586075323,86.12918435552838,65.74725612947915,63.72781199330325,74.18973070889058,84.84290936443381,34.39810020106722,5.995999117617316,15.386862169451547,16.266657893248635,9.298066130712689,12.778969590302253,12.451022091128607,53.591035175641025,60.41901503206634,75.99743256253842,400.0,397.8931380953176,389.66305741171374,370.1913708231123
118,2,469,0,15.648966666666498,4.400056651094085,132.37700417570372,17.11220442576466,17.737195414117835,31.151966052858622,31.11309895593595,47.08266222305058,85.16411663878252,67.54122790414597,65.55432141683423,81.15293959635642,83.10903640986555,35.28497713599302,2.282112949093971,14.470100787112983,18.683232385440647,9.46267962653139,11.32533896976359,10.206812860233867,65.95557204524636,66.35682267365848,73.18195068899232,399.99999999999994,399.7670011414418,392.3243344458416,374.9902944161536
119,2,470,0,15.682333333333164,5.573905741865067,131.54889907214175,17.005156348144286,17.626237607384297,32.61128783169633,32.46438939191166,45.256228141593624,84.6313591551994,67.11871316394203,64.29257628198752,78.35193300014748,82.00796022284021,35.237563191075424,3.551993927738067,14.787589782842701,17.01687467472857,9.275539826260545,12.46363213898673,11.636867135644081,68.00805110179715,65.83821380702813,74.22042023088991,400.0000000000003,401.1812458599654,392.68277782385894,370.570424438931
120,2,471,0,15.71569999999983,4.341099619065895,130.783506413827,16.88291538146267,18.67177546991939,30.734556095224317,32.26754268799479,46.45179443093418,85.30288366557085,66.63623266146296,64.63756623617951,76.5972863431781,82.45912284298993,33.34165391671468,5.1733657699682,14.457885326716905,16.857697585029086,9.335887734959638,12.65637152475191,10.818825754686145,65.38504874286701,66.21121361867938,73.68688935761853,399.99999999999994,398.0873562195679,391.37667475208815,370.6654716135963
121,2,472,0,15.749066666666495,4.37253140687647,128.54424319621077,17.00515634814418,17.626237607384372,29.413196841069038,29.413196841069038,46.7881292479392,84.63135915519942,67.11871316394195,65.10458498241167,80.1945953812683,84.65367868895385,35.90398756022773,1.3830048669533426,15.380392203661586,19.298085705778362,9.27553982626052,11.254491536262417,10.123989364138254,64.52382137280148,63.539476271767114,66.54656665198466,400.0000000000001,399.86853505874586,395.9767194211797,374.16454107174076
122,2,473,0,15.78243333333316,6.470353651363516,132.05378543302362,17.333388585570624,19.411060954090015,31.542364094116703,32.99245952814818,47.495372132648754,90.55776067839655,71.24305819897305,67.63300226642298,81.10529114081862,86.41575663218168,36.56979645188676,5.944100578400935,14.241702908655611,18.043513430881376,9.415747602237165,12.940707302726604,11.827854958036028,67.52739641858341,66.86358823216295,78.48025469566929,399.99999999999983,401.25399865044204,394.466887052336,373.36272303090647
123,2,474,0,15.815799999999829,5.638838744346125,136.28664337448635,17.203257268841288,20.865461753601856,32.99119178625673,34.442040117138674,47.33318577620355,90.24852563942798,69.4498727377151,66.645729596818,81.21759288009218,85.54705982532914,36.319417151709445,6.093323848851924,13.950504601318812,17.99935794825342,9.3835948739135,11.385600306429867,10.242396338037338,65.30279309065656,64.2204263543473,70.39433643711267,400.0,400.9924096034963,393.9278627636209,373.34773174654975
124,2,475,0,15.849166666666491,5.517332216955367,134.87765903304032,18.362791580309914,21.64075741325403,30.757295239780163,33.69987796627513,46.31324332089518,91.10990182552743,69.46986498134264,66.73648660502079,80.93236146780578,85.19449129783868,37.01703052156233,7.499616709956513,13.608990168356058,17.51514075750606,9.308041714698682,11.14026171488426,10.785208892702144,69.85852075817138,67.52060304102008,73.51489836474522,400.00000000000006,399.73062392634773,389.7529849136171,369.5598929556697
125,2,476,0,15.88253333333316,8.360845155503194,130.74814765191547,18.630839623165244,20.713866957073648,29.661807601648594,32.64091436014332,45.45080632764273,92.66124666397374,72.02318368346714,67.71358516215093,78.99586632199203,84.96532725312488,36.81167574198628,9.949101551888134,11.501161393982784,16.993065450624954,9.31541981158262,11.302879982183601,10.944011707076982,69.32533961355676,67.01714805351867,74.58802085492829,399.9999999999999,398.29396489066335,391.3030770852726,371.1941219306919
126,2,477,0,15.915899999999825,8.422034146567814,134.72531719052503,18.767189747826908,22.11734522417188,32.87979746107155,34.44204011713889,45.78343884631054,94.66637155240703,72.55028660917537,68.16964382817969,79.27148519450031,84.48697995723342,36.412627361866726,12.181257110251977,11.031225383072751,17.981855734181295,9.383594873913454,11.385600306429879,11.006005389055758,67.31720803040224,66.59087220271022,71.94089403333669,399.99999999999983,399.88380359505,394.1668354783588,372.08777061003275
127,2,478,0,15.94926666666649,12.808320576686624,129.00285668375463,18.70345045993811,18.895943871980244,32.617977385690345,34.20649703028973,45.28425167693164,95.55879716342007,76.67706787716155,69.94371319381742,81.1129426415996,84.95143779283035,37.95955127647494,11.792490258420116,8.329930199320302,20.98311395814528,10.983044284767194,11.30773617780439,10.11067537257162,67.85628412961734,66.06564592762561,68.36007695012682,399.99999999999983,399.58060039534456,392.5389810305063,372.5988668272044
128,2,479,0,15.982633333333157,17.215088582154966,135.73977937709017,17.215088582155193,19.278580881550617,32.76728670313421,35.847360423389325,43.751450431644216,97.24595558838621,78.17801961574615,69.39059915865516,79.84795651628474,85.20735216206981,38.86818737107399,14.172735764979734,6.007952904984222,21.82470590839887,11.020831149137797,12.565680840413986,11.704196119500693,66.52488103661244,63.16646050060456,71.76245323868869,400.00000000000017,399.41049081043786,390.57925103308287,369.73861960634997
129,2,480,0,16.015999999999824,21.714611435900252,132.08482480227875,16.890003896871566,18.4893253963953,32.244552894027684,35.34882638790344,46.16589716609881,103.1615460104185,84.67306383315415,73.67015470093952,85.65246837931056,89.586360307218,41.57682208500114,15.203689466274682,4.847116839743194,26.10217577675303,10.748184298009189,10.857305717950108,9.202497188497716,72.64653996459629,66.71559575696023,72.16638028663309,400.0,399.57245256196796,394.3459528992777,371.08485703290756
130,2,481,0,16.04936666666649,27.33165026942628,130.41875027690494,16.745730200853416,16.950369935266647,33.38835663605635,34.9029479212824,44.20115698042613,104.88430906290206,88.05060513585103,74.20101569256997,83.9168257868788,89.47151137678065,42.823887672851924,17.749567509985468,0.7041150747763822,25.768655861604202,12.128697414088002,12.128697414088007,11.353855580767572,63.61484113082935,62.71513853528177,69.75648739293266,399.99999999999983,397.96927415201895,392.83337148251945,367.9315876773093
131,2,482,0,16.082733333333156,29.214021858688813,135.15492337211316,16.890003896871594,18.489325396395493,33.81488648945025,35.34882638790347,44.76581828473077,109.2872901152791,90.79979766753354,75.88417129535367,84.93856133545285,90.67519663135499,43.3782545702461,21.03769598831741,2.3431327264952415,27.632806636599184,9.21272939829359,11.178280399963732,9.933064812534838,70.47577657536141,66.59748792461068,69.24884574914844,400.00000000000006,401.5060427135799,394.81200534038084,369.1867123241213
132,2,483,0,16.116099999999822,28.72814569523958,134.41661203637207,16.609095970748083,19.68691970922595,33.21819194149572,36.238027572541135,43.813641981812715,108.80841165746767,89.13632007531398,74.70627766169889,83.91794965784584,88.63845377205405,42.51320405690683,22.36983832259375,2.551365583995107,25.67610233780806,10.569424708657879,10.676731263903683,10.549466684384186,71.99246557984634,69.31687620337203,73.98597296060463,399.9999999999998,399.515237747401,392.926920111494,367.8873779120674
133,2,484,0,16.149466666666488,28.876472088147292,135.29762333832824,16.717957524716827,18.489339202629967,34.955729369862354,36.475543690291296,44.17930573753389,108.07792776654918,89.72054924320808,75.1863092118972,82.9482833111681,87.69972718358429,41.2913938143372,22.497221088221636,4.087780659467398,24.32469950068912,12.253134780852218,12.5327099489085,10.599374792312915,72.48356482293167,66.77029020711137,75.99071602144001,399.99999999999983,398.3218489741973,390.32903312918893,364.8567437891604
134,2,485,0,16.182833333333154,17.085607202028296,138.2468204098664,18.703450459938118,18.70345045993808,34.206497030289924,35.859261152092444,48.25045235011119,102.56070020028616,83.88917958322133,75.243573788243,85.244868809693,91.2257427478936,40.20918660116331,14.126207246714785,5.000647510725003,22.485498607926843,10.872659128563507,11.307736177804445,9.991343484115305,73.65132781467878,67.33210160709575,69.96466452622941,400.0,399.5806003953445,394.07554706085847,368.99432982132595
135,2,486,0,16.21619999999982,6.39173969019669,134.87844757475088,18.66717590844989,17.05247038914526,34.14015497536181,35.78971363101929,48.15687263754116,89.96646582707717,72.92649246668626,69.67758069105548,85.47275509920735,87.38009691453146,38.4647266090343,3.3775844646363566,14.026909600195381,20.901287392925724,10.851572065819667,10.961743134679459,10.033412674360704,71.56505436246982,66.43907323378653,71.46182220881626,400.0000000000002,404.19263271387393,398.6037091392022,374.91725583360403
136,2,487,0,16.249566666666485,1.546604941176744,126.83103534382488,18.62358967520748,14.005103398901845,30.97073981152247,30.97073981152224,48.16873715129126,82.10127238110204,68.12088136174094,67.2043071126443,82.53688995456992,86.55328362632497,36.69979717566332,2.6809427758965967,18.38504203245941,19.328894545321987,10.936148417227084,10.93614841722704,10.778996516573102,74.06229930716626,68.72049572373191,65.03101368055059,400.00000000000006,404.63749143740114,399.2068680350087,374.9041837025717
137,2,488,0,16.28293333333315,10.961864100447084,144.20632182359117,18.79176702933784,17.29682091582621,31.319611715563255,32.922856440550255,44.098413686458684,91.04261507236747,73.75086943613366,68.05523581242221,77.61884474776343,85.70579282158565,37.87783766929931,9.077995631888484,9.870833678341796,18.849724554423688,12.527844686225247,12.527844686225247,12.52684113395975,65.17128741844897,65.72627405096603,70.5386911611222,400.0,403.28484924412527,398.27045811256903,376.2298910939471
138,2,489,0,16.316299999999817,23.262916083399205,146.1687885396682,19.98433794335681,21.57642688552698,30.745135297472288,33.959111888284895,44.68633812667444,109.15605552105973,87.62363559779564,76.10220873611058,84.89647227739863,90.14945328811962,42.924493842543825,21.629644431039083,1.3438955009474967,23.05370211976242,12.298054118988903,12.39376026372662,11.538639616907005,68.67541780982185,66.85526460502979,70.73051852315167,399.99999999999983,399.84341010808123,391.5420441828219,368.22674711064246
139,2,490,0,16.349666666666483,35.13132985895386,148.5562705416414,21.204668516139257,25.748526055311864,30.292383594484587,34.96769911447788,45.46381203648932,127.26406834882667,101.52468748699084,84.01990911790097,93.83529812762208,96.37986269061685,49.64588818152913,32.01313092810028,5.11600832911995,28.841384958733443,12.116953437793814,12.489869721178788,10.671043642700056,72.18857987341266,67.97750471634384,72.7174961983118,400.00000000000006,397.9184494441769,386.44462844849096,360.0877693885223
140,2,491,0,16.38303333333315,34.106454786067026,147.53542312454096,19.969007102361953,24.577239510599185,32.29417942106854,35.36315901866486,46.107918266008724,124.46019708211972,99.89228825251061,82.9331634550822,92.88953155149773,95.74204472512622,48.21844383883854,30.061100368240545,4.132487033590223,28.470275713716887,12.288619755299647,12.384252479757347,10.779208434962186,74.27505455948494,67.50947844254517,73.7477176029489,400.00000000000006,398.01305651617963,387.76449507727057,361.1187127135303
141,2,492,0,16.416399999999815,31.313066812504882,146.47417298723443,20.25248291168223,23.368249513479398,32.75262077475188,35.83131592066853,46.762456540221976,121.52488349118646,98.15901133109823,82.56631680624719,93.83730413112823,96.07085532456847,48.20904403656425,26.549228261522217,1.7173944050401815,28.06954462008241,12.463066407189077,12.560056713614882,10.919062241880965,74.27965418520648,67.72915530696594,74.77839844313412,399.99999999999983,399.6570391687706,389.0905160176882,361.89196518215954
142,2,493,0,16.44976666666648,28.358536972825313,146.3019770245322,18.876583228183886,22.02268043288122,34.642801908842,36.18011785401933,47.217668268576226,116.40559657380075,94.38291614091953,80.22877210791728,91.60694803457625,92.29335663677091,44.75002748197528,24.45330645318859,0.9533452808260563,25.98819235531846,12.584388818789275,12.682323282735656,11.811948029434859,73.43618698203153,68.38345699365345,73.93328431038687,400.00000000000006,399.33442925742054,387.39495747574836,361.3118346810773
143,2,494,0,16.483133333333146,25.690059067680057,145.82766888391876,19.230022270406934,20.832524126273977,35.40042305753254,36.9966282458938,48.181770692289525,113.78891643129445,92.95892128496851,80.1090533675324,92.57434645078717,93.45813427359701,44.96149149117923,20.7495899278332,1.782143576764497,27.20803940221151,12.8200148469379,12.919783004128432,12.0039752636564,75.8018017255975,68.1487818973115,75.33463318891292,400.0000000000002,401.2339525716292,392.02383855165937,363.94083743299893
144,2,495,0,16.516499999999812,22.64850378930741,145.60651158396166,19.41300324797772,19.41300324797772,37.34866523826292,37.34866523826269,48.6402385701941,110.05458900998411,90.6517735406277,79.19626814289688,91.05773644266503,92.13605174264399,43.13261199915712,18.33136009964187,2.995320277719202,24.9510179134013,12.942002165318444,13.042719654479443,12.086117320597168,75.87146263462853,67.24494023479707,76.10307202285851,400.00000000000006,400.8137496002611,389.95835879130306,362.95336872255456
145,2,496,0,16.549866666666478,19.68652036945823,144.4050963056892,18.045977005336873,18.120393721072965,37.874884663285286,39.679450346425504,49.32554922882345,105.1100627145505,87.01068357196814,77.03047841364844,90.7163565986657,90.14226732648524,41.283169626266044,14.454747745973236,3.895605775510603,24.480806820840144,13.124346912972115,13.226483448808482,12.255780801639162,76.92796247218752,69.83385932309983,77.17531689551564,400.0000000000001,400.89724261385635,391.23433798852045,363.9086112846944
146,2,497,0,16.583233333333144,25.054406556712422,141.67032149697476,21.66572633436727,20.068453290270305,36.702932934569006,38.3678828741809,45.12132955372787,111.86063967320337,91.79894478339708,79.13652604143749,89.66112848370642,92.18622503895335,45.946656919272414,20.69569136680343,0.6060231732591319,25.826687567065164,13.332754667302874,15.091653558091002,14.155691288714024,73.82372288919811,70.87441011266958,80.0138864781465,400.00000000000034,399.76731362502,392.0749508970316,369.9989560763829
147,2,498,0,16.61659999999981,23.01141911077654,137.72739968237073,18.03445300446051,18.330119479545093,36.068906008921246,37.74402612029949,44.387662640739585,103.61301697592958,85.39553941534044,73.72108811063481,84.57938976371804,87.91884879961492,42.02658598812161,16.93004535471414,1.2649466045064628,23.75063744621275,13.11596582142587,11.935709060503447,10.625551477853946,71.50490165953948,65.61531026895767,80.3520184629021,399.99999999999983,399.5024204636574,389.776101745361,367.9270968453233
148,2,499,0,16.649966666666476,17.81901007979454,137.1363659825369,16.213035926555808,17.819010079794744,35.528308190188554,35.52830819018833,43.67728609573906,95.52336524335702,77.70476486641493,68.52795913309103,81.93241511418228,84.37669957462924,39.61696253492437,11.97699385619012,5.856505567231011,24.990364323609697,11.292801599193583,11.74469094285318,10.471314628554865,74.74621880046823,68.5670676844581,80.66286856566832,400.00000000000006,397.89612139573245,387.48413680605165,367.6669825212399
149,2,500,0,16.68333333333314,14.674697195934378,136.16471234492806,17.899551026754178,19.714831977928096,34.03153332669968,34.03153332669968,42.25875312688661,94.49344463610024,74.82656735813522,67.21649959003093,79.06528949469521,83.14659492407725,38.9924719699294,12.824101863891656,6.692140520236762,21.0567351197285,9.72329523619987,11.797776300908883,10.518364360282362,70.19245146562207,65.63099245631281,76.23474103494253,399.99999999999994,396.25327737150275,387.3756700221008,369.03360580825023
150,2,501,0,16.716699999999808,12.932762756848518,133.29580258753742,16.121124032684442,19.514862254855636,30.478124124967156,32.1223136829541,43.57755035361092,92.1212788103239,72.62925058935149,65.72277284046834,75.04525730439309,82.28342633586294,35.383853671625275,12.698976447141376,6.619310530147345,19.24402395712991,11.342783287689219,13.227844740834234,11.213716043966883,71.11426810399132,66.56937127027766,78.6014780064943,399.9999999999999,394.9667244372277,386.3645703423453,366.8684688878785
151,2,502,0,16.750066666666473,2.4078697394559425,136.22032264439332,17.02621020983239,22.39448309314718,34.09495937493813,34.094959374938135,46.25366726787575,87.43253207739563,65.05705786459463,63.81168657481703,84.76470205856731,83.87286875139921,38.379235616426854,2.4525415947122156,19.752080859893226,22.944438720778976,11.918347146882617,12.395268132556776,11.897867075174418,73.69786147416318,67.31314575239173,80.09560717568084,400.00000000000017,402.51415772044777,395.8035447934488,374.65400848752506
152,2,503,0,16.78343333333314,1.694352551025817,130.47614825441852,20.332230612312422,22.285728350676607,32.19269846949485,33.929383393078915,47.56274263463738,90.19941145792158,67.96444940241953,67.74768829332561,82.69907614518365,85.1699631763505,36.513659168736126,5.8141484631340745,16.282641272731553,17.775258744620146,13.554820408208355,11.980881785512306,11.003011228584683,75.01411321559453,68.69065946644469,81.39948985727624,400.00000000000006,402.518402957289,394.4786063823569,373.1616763019834
153,2,504,0,16.816799999999805,11.625064443571306,124.59853998493104,19.92868190326529,25.131306697406387,31.553746346836597,34.87519333071415,46.9723537130283,103.44587843267577,78.33617044256756,72.19935924712172,84.37946705491584,88.46497373072145,39.963590862461615,16.479568698542266,10.162825209765515,19.923212729520287,13.28578793551008,12.090249517023851,11.60446908663954,73.5391201644992,67.30388304331967,73.14728212554402,400.00000000000006,397.80134539666074,391.5505636530968,368.38500761174623
154,2,505,0,16.85016666666647,16.38628811974481,129.45167614598438,21.30217455566815,23.17371089589638,32.77257623948985,34.45019793088769,47.97014130271049,108.59548080853703,85.46042313806723,76.9281962534917,89.40523932886947,91.0132106224338,42.77407181550802,17.80980863124887,6.9305598159317015,22.888148349530752,11.470401683821413,13.512479345902438,11.428808624510054,74.66889481569899,67.20912925758148,70.63231515686243,399.99999999999994,397.6706020900522,389.56999994354186,366.70521216189906
155,2,506,0,16.883533333333137,16.53516630990961,133.2803097907589,21.389037052067508,21.452224891508926,31.304168009661232,34.551521391801586,47.96863312602688,107.26112445754427,85.80889956603535,77.25362442189567,89.80320034084014,93.07351348998168,43.78808863804363,15.398560380159779,7.7945807266345355,23.84519740953715,11.51717379726712,13.264917669359695,11.496254199128998,76.62163139000637,69.13803136160294,70.76748225796584,400.0000000000002,401.41868373069514,393.5595198660358,370.43245178656275
156,2,507,0,16.916899999999803,19.632271302195026,132.60869028663342,16.360226085162388,21.51851774111542,34.35647477884104,35.99249738735753,49.5150290076447,106.79356097598124,85.32450019524019,75.21547673662815,88.01234527668703,93.73329827106636,41.833214176443335,15.406426046266915,5.941761706443003,25.35285484877545,11.452158259613661,13.190035951901722,12.264920279178,72.47544135510975,69.53467078080598,72.0035835406217,400.00000000000006,397.7419620890371,388.70602660787495,365.82577653688526
157,2,508,0,16.95026666666647,11.829272348527482,134.95273514123494,17.873630729860224,19.566092263638183,32.497510417927515,34.16105154436059,50.475862967996775,99.44981567201326,79.88374583088105,73.93183620078526,87.74327812840443,92.6179046910936,39.809450261961274,8.936815364930112,10.561690885826465,21.93581953210105,12.999004167171051,13.100165258367504,12.186566406722818,71.49452291944061,68.24477187764779,73.11939844033714,400.00000000000006,399.45508336277635,387.20139298653606,365.9687191743785
158,2,509,0,16.983633333333135,3.6141791321473056,137.47189650380682,19.39572053362201,19.462950269119435,33.98097271494151,35.55882097830727,48.73114473623062,89.42446213033764,69.9696119151629,68.69317688991146,85.66443235683084,90.51336249023632,39.59959608947838,0.8081550222342457,18.587565511387766,20.20387555585637,12.930480355748045,13.031108179668982,12.1223253335138,75.96657209001984,69.50133191214576,72.7339520010828,400.0000000000001,400.9621866924057,393.61712821986214,369.0924588819538
159,2,510,0,17.0169999999998,3.58979079308881,136.61028926849036,19.264838972038092,17.94895396544342,33.75167044357899,35.318871448736445,46.99747744930503,87.41711833113463,69.4974597177228,67.42693640213326,81.87556563116186,88.29717862184111,38.529677944076184,1.6054032476698694,17.659435724368223,19.264838972038092,11.237822733688915,12.943174772669849,12.040524357523793,72.24314614514282,69.03233964980308,75.45395264048261,400.0000000000001,397.8550738570698,387.33160624441206,367.9141540390477
160,2,511,0,17.050366666666466,1.5666170143976619,139.64877142112843,18.799404172771023,17.515310694503647,32.89895730234884,34.465574316746725,45.674342242992076,82.00458220887374,64.53625502034161,64.29201762038883,80.58181526836836,86.75459491516995,38.18358406896186,2.0979991246681493,19.161725338636415,19.59064960412411,11.077655144027538,12.630470162943238,10.993515413261548,72.60009415407495,70.53006835106902,72.13246428603355,400.0000000000001,399.71151702976834,389.492623319205,369.0871221246385
161,2,512,0,17.083733333333132,7.006124277801497,136.37668809347227,17.232787158373323,19.058718549010553,34.46557431674665,34.46557431674642,45.67434224299221,88.41329114060245,69.37478269283264,65.83404874234236,83.37425351349611,87.26275185989232,39.85943928458096,2.475770529899819,16.24870112372969,22.729531701056544,12.630470162943247,12.63047016294322,12.542039030942021,71.55955949698802,69.73187202482097,75.21393384798432,400.0000000000001,397.7634120826798,387.71793004096224,365.7304244988359
162,2,513,0,17.117099999999798,15.914414711429883,129.75935826742807,17.16590428405519,17.447331306546534,32.80840641255439,34.36725701180055,43.72288693400869,93.9567545304306,76.60948145111878,68.6807881534886,79.87974051211677,86.92039334741833,39.69661432367843,10.2764157094133,8.3762655961051,22.63198118049013,12.581449529152332,11.034661204049703,10.93274775338216,72.83908767681532,66.34002352115237,73.41160318049188,399.9999999999999,394.4825789258966,384.2376143929612,361.9974384954096
163,2,514,0,17.150466666666464,21.254110078840682,138.79936144782712,16.301158299578734,16.623984852743323,35.86254825907322,37.492664089031315,45.759531945098054,99.7705465609509,83.2796168686964,72.61627385817724,82.7944130331731,87.66410539070307,39.52165173730032,14.372824671085937,3.2448544124928276,23.687919358955355,11.410810809705119,9.915607490513771,9.0016986450579,79.43866463630093,71.53144140229193,75.00304473546903,400.00000000000006,399.12546396613465,389.84314649356054,371.70215566553645
164,2,515,0,17.18383333333313,19.76207268673204,141.37730771272908,16.41150809174157,18.34862385321097,34.50321988563125,36.1425974377839,47.847357102404736,102.2267029518099,83.95573199973579,74.0090883333636,85.74223648377483,88.9351279159381,39.60058811228555,14.697975908848548,2.877484223818783,22.199815048855044,11.488055664219122,9.98273064861319,9.107989693267996,78.74504887711942,71.78668061918313,83.7147794355018,400.0000000000001,398.98870561265755,388.06189932440384,368.0168624893547
165,2,516,0,17.217199999999796,18.054394978057147,137.60244514194002,17.836426484896872,18.054394978057292,33.94994441073197,37.176274622673894,45.47414334962591,98.98024634582522,80.99967031575478,71.98392168404541,81.01707155138547,85.99706228988839,38.15226237997524,15.271971598075652,3.651993208235467,21.063516382853095,14.622945420931627,11.75617027275664,10.600924729461326,80.76807201446036,72.26519893872023,79.12687474859081,400.00000000000017,395.5849369549055,386.18853069151936,364.5164014419045
166,2,517,0,17.25056666666646,18.546365332304294,141.35202100776206,18.322457341480035,13.679123176189993,36.53210297960492,36.53210297960515,45.27744797969753,95.72512026593074,82.108259474734,72.37132242223618,82.76517874666604,89.4373017304373,41.17046985650791,8.774034559583697,5.842928508909495,23.352430443199637,11.611861413201874,12.076518158172227,10.856662542957451,75.82308546875367,72.73771067857047,81.299955041975,400.00000000000006,397.4084073801508,386.43790003109865,369.00090081666264
167,2,518,0,17.283933333333128,4.72249751568555,137.00330748554424,16.69655008738971,18.667310492566642,35.06275518351819,36.77033731665303,47.224975156856395,86.19366575028582,67.53336567702567,65.29211883712878,84.96562708434408,86.80851088778593,38.99484236445346,0.44866019298467563,18.53979700687796,22.72729214140054,11.687585061172726,12.155271940807443,10.927046635591637,69.65328888506468,64.77109409688865,76.80413040199258,400.00000000000006,395.8174188552604,387.5794019302897,369.4731879731017
168,2,519,0,17.317299999999793,3.703417957169157,132.86963549543015,16.562188602646724,16.89018457453989,33.289587094028846,33.28958709402908,47.10770933398252,82.51228506292418,65.6247333980211,64.06748906619373,80.00987525074675,85.4012488047041,36.07491006104124,1.0877332608861252,18.898183089134818,18.434714134496403,9.937313161588099,10.474847804329029,10.872603333814027,66.39902166452794,65.670713307239,76.18606757217478,400.0,395.4515174526784,383.9463979915865,367.74026569802305
169,2,520,0,17.35066666666646,2.339021309713985,137.63505777877154,18.268340426133754,16.866922533154714,34.772051591653934,34.77205159165371,47.04283014457812,84.02590194075117,67.16291057329445,65.7194843411014,82.12735440870586,86.36132803163355,37.63151844766094,1.002268582794727,18.632417409904633,20.138264841615637,10.060511056352658,13.638720737961375,12.530801842452206,70.73571637011287,64.76121779364911,74.44557714352044,400.00000000000017,393.72406030647437,385.03729505643156,368.1860271518249
170,2,521,0,17.384033333333125,3.676073110469206,138.44698468210714,16.521893746570676,20.335031682136936,36.20512133401569,34.68000436422551,44.87219087044346,83.8273644284909,63.522713537246915,62.11820749418928,81.14489040408387,82.97694813663134,37.366344170083835,0.9541967357017711,19.713704559599933,21.90835705171412,9.999999999999922,12.520253861513847,10.95417852585706,67.06094658512478,64.8853780277247,75.69497823323354,400.00000000000006,396.75712497221286,385.1359886192535,368.37847752373176
171,2,522,0,17.41739999999979,4.606228954327418,137.58097277031422,16.366703482788342,20.144024586995048,34.354254840120724,35.97579819768778,44.71839423755355,84.96588549169374,64.83584281649293,62.452840466781595,78.94178378184131,85.44446565256908,37.81619159345871,1.7804962265086033,18.579091059222378,20.90147744162516,11.515572385818608,12.402651029223927,11.621608521940573,67.9298016852814,64.44622211167717,76.61101820449944,399.9999999999998,398.395535598451,390.09415760408905,368.6782032577368
172,2,523,0,17.450766666666457,8.628074982447735,140.3085965656105,16.101843402903274,22.939917002271446,35.39360687280736,36.989504719377855,42.4203180863321,89.86576400809989,66.92873666105088,62.36001961800855,78.86155585206859,84.20857983679537,39.38849039012689,7.672838459629816,15.43495060617522,23.159473831914056,11.329217483914347,12.201940657349708,11.488113921491163,70.20670683636848,67.28416824366195,78.65447435496237,399.99999999999983,396.8558745754763,388.37905913065237,370.7753630919682
173,2,524,0,17.484133333333123,19.880652022663053,140.94448214170032,14.55431715872634,18.325531714371323,35.686862538444075,37.10637359968182,45.7150468500315,98.34512312919037,80.07294412495776,69.86817827454422,81.22234615328,87.36584611754199,38.78319916089333,13.398860351503913,4.8997238978777204,24.21594311066474,11.365012311990858,13.73239662562544,11.608576619587097,67.89886616943556,64.88365146304932,77.21520176723415,399.99999999999983,395.2737557804912,385.18506558932876,365.64266791760224
174,2,525,0,17.51749999999979,17.816736319939185,138.58168577485793,14.15022686247258,18.290128643596553,36.244959127994406,37.795005211324906,45.98491864978971,95.93333562235907,77.84977560660812,68.78233972392115,81.37077931182546,85.36666579588825,37.513829404576086,11.899172455455187,5.723711525539898,23.59808486567192,11.049470803447841,11.376126464593467,10.408865142051923,66.31867544645115,64.8097392916302,76.71229890146077,400.00000000000006,395.76545299078293,385.59328621377745,364.746361780205
175,2,526,0,17.550866666666455,19.239042814157305,139.68183494745668,15.63142001103721,17.73411097599203,37.61973038831645,37.61973038831645,44.239683014237066,96.69688742904596,79.01903978607959,69.23750802277004,79.44512670689824,84.82243718536733,38.03983602268681,14.09226194357393,4.848850655584897,22.788670958753187,12.539910129438816,13.289210349852816,11.283080779822058,62.766192998681504,61.412594154101384,76.46735546960723,400.00000000000017,398.82495203421087,390.21554379027555,370.9844553458134
176,2,527,0,17.58423333333312,21.949546592213107,137.6448348908045,15.828043142282148,22.222222222222165,35.83225665910457,37.53950042476478,44.145334965510216,104.1158412590707,81.90740286312344,70.7445951608455,81.22699836177537,84.29637995565906,38.73931617734968,21.03921565262067,2.5578179949030755,23.494720927727485,10.974773296106497,13.260869028663379,12.054298623252123,63.71292096394848,61.89919547665352,74.75746189513997,399.99999999999994,398.1589671015945,388.4077550222152,367.70568071520455
177,2,528,0,17.617599999999786,25.19667014088331,144.97983651197853,15.704248666307327,22.373473146755945,37.63314149018739,40.89797096429797,46.276049100325615,109.43997429666965,87.08777646060085,74.30113399386812,86.33536554960051,91.29063736666683,42.80907757751265,20.305437145121232,1.8349408796279931,27.48685551158394,12.598335070441602,13.351126370195104,12.113404131757022,64.76316718808636,61.5496920435603,75.26628298037456,399.99999999999983,398.47400638653744,386.78829979617285,364.08970388649306
178,2,529,0,17.650966666666452,23.435406829969192,138.87906703421532,17.105456595235673,20.661638420148723,37.45697395273811,38.9941434379627,47.37974077930107,108.46116421199407,87.83756469045191,76.00493007374632,86.16074137674036,88.32743738781937,40.05621625588526,20.989291358389437,0.9450482601514523,23.57088660563261,12.77053854678541,13.231716463377122,12.045907823297057,64.61364104528587,65.46187948366583,77.5720174712718,399.9999999999998,396.96659831310404,389.07016585983104,366.5866907945541
179,2,530,0,17.684333333333118,20.46940558111879,139.22913789232322,16.010225178232712,19.418983195829423,37.808963114873315,39.52987121534583,49.571076431002346,105.31422287610174,85.94569779598137,75.56565193844438,85.86984908254726,88.4101038693052,37.748186131220905,17.88801234384175,1.0761443005719684,22.57131844160972,12.657194353847572,13.413502686304918,12.20707891163795,64.06060707696497,64.65179364551943,75.61792622974708,400.0,398.46587208850036,388.5953704946834,367.652406246422
180,2,531,0,17.717699999999784,12.86528216740085,133.06037778862103,17.625544923431924,16.660034117568582,35.14256904595192,36.73673641985547,48.82031326768096,95.77110354775971,79.22661471359456,72.6693749605538,85.48569504030206,84.23486700629894,36.24600937338869,10.613369213892042,7.084914013495222,20.638662561051433,12.865282167400792,12.152807934045384,11.612164733581096,65.17374129410234,65.30442482004298,76.74506422374544,400.00000000000017,396.2134169566029,387.1211866155755,367.71723630847947
181,2,532,0,17.75106666666645,2.2586077137341745,131.58207356098816,17.640290164193743,16.67397162788283,33.5766175455985,35.28058032838749,49.19929905755074,85.23065022434827,68.5999808468508,67.30053815414158,82.00018344164607,81.68235327326761,33.054337511361155,2.701556431217,13.666697240274289,17.321744176626794,13.169832928111301,12.162974773124464,10.806225724868,62.61254317055915,63.08928842312679,73.62160419893037,400.0000000000002,396.5448825794512,387.7576249476168,369.59132275957467
182,2,533,0,17.784433333333116,5.081439559778152,129.19254041542524,16.1490675519281,16.776447931444963,35.497410699715225,35.38813159781616,49.501672266392845,87.32095721134014,70.59361446999085,67.74946605923662,81.08067694736701,80.40780825900708,31.624828352914847,5.971709609194249,10.429464669578238,15.8965227625024,11.698352379642621,12.237727011096776,10.89206189282578,65.68880570113453,65.68880570113453,75.79695726035555,400.00000000000017,394.94587989147357,387.9804723561722,368.4551789755478
183,2,534,0,17.81779999999978,13.056983426353039,138.49022283921877,17.48913426367713,19.585475139529535,34.97826852735472,38.133124668277155,47.23711875684636,97.20787854197567,77.63465513841503,70.7499575416382,83.4277498009219,83.73719295517947,36.781538562899414,13.010678076742579,6.352961727562729,19.630886164800586,13.056983426352984,13.528505625004064,13.081006066346617,65.27375141780567,64.10161825773883,69.95653705470853,399.9999999999998,396.57248493965545,389.0925647088992,368.2875426373575
184,2,535,0,17.851166666666447,16.04921072182867,135.92721643191936,17.382687592286253,20.996505051040618,34.76537518457273,36.332946062320524,45.06547321683976,99.38356800011645,78.40394190307649,70.19889773344892,83.07372242516362,81.00017818491676,37.210693911339376,17.00306277002437,2.1489458489830895,20.30188315223529,11.457106349530937,12.688015132243406,10.763579647099675,69.06787360240514,66.42881729663634,75.68761598274364,399.9999999999999,396.91700659008023,388.5771858238011,370.67516843304196
185,2,536,0,17.884533333333113,16.06177127300763,138.11471045973371,17.60888162408321,19.481504037173156,34.97036997701125,36.36138121943866,45.10074268850131,98.23167920292506,78.76506092625038,70.41511677739379,81.48913831982748,84.1178202011123,37.94809907344063,14.905185560901828,4.278599232303918,19.435467100988376,11.136834596077632,11.994737945934956,10.682515730327395,65.94076463903673,64.59845899752963,72.87609630056404,400.0000000000001,394.7532674574567,386.7224721637298,369.1150900128561
186,2,537,0,17.91789999999978,15.057872267813336,137.61463710288584,15.951555563507966,18.097310186995834,35.06325782070077,36.81573641072702,47.004793681546005,95.89341524742107,77.8232898180946,70.11249454446204,82.20689985338174,84.48555592607681,36.5461377813009,12.006764690739033,5.696640181737621,21.121388981519317,11.555275088503963,12.796730754461162,10.86743665439161,66.08102610815547,65.73046363543313,76.33613556441061,400.0000000000001,398.4444394280748,388.4814315650138,367.6266433641308
187,2,538,0,17.951266666666445,16.885804245700275,140.44108442123076,18.082709600487195,18.440817822303107,35.91136895661899,36.16541920097393,46.00264067854316,99.29367160908934,80.88450781826423,72.20474485137993,81.86613955847372,86.77587623349348,38.44100646691629,14.375857764357306,5.532752503099914,20.810588406617967,11.436509720986482,13.039627332776238,11.04225814694314,67.84363405481878,64.36590391001312,74.67962035299858,400.0000000000003,398.41753516955185,391.4227946049548,375.2604479900824
188,2,539,0,17.98463333333311,16.70115051810945,142.0746491026211,17.88496718418938,19.786950008622853,35.51866227565533,38.921896592872265,43.9257124326392,98.20785145376684,78.43327921414922,69.90009681431138,81.82111558511588,84.53423910894662,39.34958261446354,14.569101662214507,4.785132242372811,22.141689579755962,9.730474148218061,12.182800652858939,10.977929600705636,66.04411646366157,65.15213064760758,78.64506330093047,399.99999999999994,396.86576952968665,384.9383443986903,368.62475000666063
189,2,540,0,18.017999999999777,15.187926684392835,140.39136842346147,16.089328697417823,21.359310959742544,35.54681524513419,38.555934525610596,44.28003493956603,96.72164396074952,75.36368320842692,67.54372091956668,80.17698551525427,82.1162198719694,37.118451788968855,15.043186903061724,5.97773697336936,19.99482414399438,11.32041216786185,12.907255755789347,11.056459960979964,66.70589636739373,64.50307675830965,74.26742576815064,400.0,395.2915460785609,385.2434560432952,365.7772148145902
190,2,541,0,18.051366666666443,18.296015803457898,137.53407553105578,16.126701132049575,18.296015803457863,34.04012196332798,37.21996739994082,44.06264094248324,96.613731476128,78.36624584203751,69.10741950549766,79.87806932175215,82.44670470625704,37.21739391953247,15.054799807739073,4.446428400253012,19.839694603423368,12.93723684332132,12.9372368433213,10.983930010635618,69.88171934162114,67.79528265745643,80.6335056602481,399.99999999999983,396.85909767689463,386.77794717887167,365.05374768431034
191,2,542,0,18.08473333333311,16.313600049693807,137.3211460814958,16.076585998061148,19.786950008622945,35.51866227565542,37.3449078609487,45.49958148416214,97.58048585404876,77.84379318574469,69.59984614209964,81.04420920810026,85.19487077242525,37.72110136576396,14.213011481402418,5.227614954623164,22.16305367587779,11.6458468863419,12.897033248517152,10.949796487623473,69.8401962549558,67.5846028881511,74.01870366740415,400.00000000000017,397.19125826450824,388.70909700592557,369.2628575646476
192,2,543,0,18.11809999999977,15.753507711617194,134.35847517316333,17.062415577936665,22.117576127390976,35.83040672716598,37.58559706372689,44.23515225478177,99.06949631784316,76.95936733582721,68.93378516035466,80.03752389125418,84.88211930756654,38.43317394200574,16.33664141340489,5.454792548901423,22.124268761900453,11.246011804472676,13.816740270689088,12.125356657430984,65.36505647581924,62.813323012265414,77.62315513603951,400.00000000000017,395.9918498095453,385.3669431012444,366.8760841870137
193,2,544,0,18.15146666666644,20.074978357367552,128.71766275856936,17.214151925275157,20.541900733505283,35.712624127663595,38.76816578638624,44.089741367832104,101.77043888307409,81.25371468778377,71.05804341643591,82.47380486849238,84.00451278532717,39.38345489639221,18.248620285637912,1.8534475378540947,22.84074403614227,12.41330148604133,13.155036430195446,11.978250505833103,67.07451437985401,67.01918758767914,74.30454331915523,399.99999999999994,397.41955805916166,388.2957142471381,369.8119106698135
194,2,545,0,18.184833333333103,24.609515772047885,125.74401152948893,15.338294825496583,17.401555484132263,33.71524387418607,36.75618182387354,45.19768500499973,102.38177420822105,85.0583825710474,72.64467898996486,81.95254344880095,80.18141134529776,36.063264320267876,21.07458784859955,2.5436471699248386,22.760931713105265,10.791986579568634,11.623325265472248,10.367717446304823,64.65574269331205,68.0001676759909,73.51236364774685,399.99999999999994,394.14249840015526,382.0424220356369,360.66877274472665
195,2,546,0,18.21819999999977,25.923642180742632,138.93751281152745,15.29881194569618,15.524359422308933,38.17880599290171,39.608769779125886,46.072815872654736,102.71783202282066,87.24985348394738,74.30161999896768,87.23115792344686,83.37145487840894,39.246544643187804,17.406045814486788,0.8270792239368348,24.499301531638707,9.259720574629288,10.211822944455616,8.88292432035962,60.58705772634505,61.79263083242239,74.84026982117908,399.99999999999994,392.9304000550365,378.69512727345625,358.6726651978027
196,2,547,0,18.25156666666644,15.78756837037302,132.03383051571686,14.018627660406242,14.686551394711538,35.74062799710105,35.6399026826887,47.083576103125324,91.39027116136008,76.86117803173376,68.8800255210275,82.62909053982173,79.50211634030597,34.06477585657194,10.020749627063765,4.065066459370655,20.306089378702154,6.382973411769089,9.026887567190643,7.418144947159135,57.199574203451334,63.72292345659514,69.93910606978504,399.99999999999983,394.30343973688286,383.5849326787768,358.4006721197478
197,2,548,0,18.284933333333104,6.3894847951509925,157.007665830226,20.205325027691952,18.852642754711518,40.410650055383904,41.9559314950491,42.09878492673742,87.45730665761951,68.62465547882367,65.45887262614349,81.66928816748975,77.03774086996225,37.254823411348866,8.092863561458103,11.796126326005606,19.242153324589253,6.389484795151079,6.930369309187455,6.581932353522575,54.43302495516366,62.056808566445625,59.070981564888555,399.99999999999994,397.5519836918637,388.5737619555652,368.4226303059791
198,2,549,0,18.31829999999977,18.58678890733107,166.45441211605396,15.566243059558797,17.317218116762895,46.87819242812543,46.87819242812566,45.02476710358383,96.34351463555446,79.13040240121377,69.77368173605169,86.64009335163666,83.03008946198509,39.85799376525085,11.45140578110761,6.243531317348243,23.879288024170364,7.744495378054588,9.796097889319773,8.817878353411118,55.215305394178245,62.9087563065504,65.51312121827468,400.0,397.7987774370536,387.56228180968935,370.4978244438034
199,2,550,0,18.35166666666644,12.481168691503065,157.28253564408757,14.018627660405928,12.765946823538172,40.72411188223299,42.05588298121846,43.78683636482598,82.97865435299789,70.2809414693034,64.00559560395016,76.75440199335515,78.0428451922844,33.649680086320586,5.478305481161556,8.374880793039893,20.261495868875613,6.192393784054856,8.336765269452707,7.24143827969624,54.473053440443834,61.07027012067539,65.18579139528225,399.99999999999983,397.82515660758514,390.9216801861261,371.3661983979731
200,2,551,0,18.3850333333331,3.410913794928993,153.82427079446325,16.848671258026414,15.925716862305347,39.9237223909768,41.43944423452165,36.64153406391121,70.97651831991317,55.25259231269519,54.33746568591937,64.43268867264408,68.79351763170496,30.03592985679154,4.274380807890111,12.55419262002772,15.339744157753785,9.152442133023404,10.232741384786845,8.049283409015516,54.07812123240694,60.244756015924736,64.35699276886207,400.00000000000017,400.48834388280557,390.4833419446114,372.47740874918026
201,2,552,0,18.418399999999767,18.400069793500666,165.60062814150476,19.92323831678377,29.392486761087977,43.030071020617584,45.94303533115373,47.467802409596466,115.10127514000204,85.78840109746932,76.57167597173338,78.33924995205632,77.00313103779649,30.22041183155841,37.42988680641906,5.344475657039538,10.865244781932688,7.640213126717797,10.25042154835642,8.786837581972918,60.68206735596925,64.67186689160638,78.06488475174015,400.00000000000006,399.4246135252826,391.88559037439273,370.79836365157234
202,2,553,0,18.45176666666644,9.26966094455131,147.0881640630255,21.389276779977017,23.061137669229648,39.73904660859332,42.91405771166467,49.35722464553394,103.01989129671426,79.9587678230988,75.24232825851072,86.7918784009313,89.60794401334624,38.964777133871735,14.696917591590136,9.699781553873663,19.381157450149658,9.26966094455129,11.094325970571157,10.192132894606175,65.41370710145469,64.84313171593271,80.89719841604696,400.0000000000001,397.413841308218,386.63818357435656,362.299642725974
203,2,554,0,18.4851333333331,8.583686046158347,145.0681034581881,16.964999141040902,17.760660760727635,37.9348913175932,39.82982941911262,62.50859776810325,103.86127103335899,86.31834242099225,82.66966529168496,85.74837252709574,113.32921722775939,37.03557283781299,3.552354502397293,18.235419778972414,17.269908042423367,10.729607557697879,12.512765103900938,11.595249439876056,66.56565821415091,66.14666255489374,71.46273056118376,400.0000000000002,397.89921788731573,388.1686711395977,369.0298740218248
204,2,555,0,18.518499999999765,12.74220649238525,142.57109956118427,15.529263862592163,17.276079300080976,35.573624551998996,37.21381370082463,48.12558807979042,93.53365700796996,76.28127561858486,69.89109735747309,82.97904283767753,84.48424834872492,35.629315816377016,9.591096091734585,8.003287839227369,21.320685379042743,10.926351925188769,13.202361263572877,11.096301602781978,60.4468505838895,61.94287801255234,72.69104115747359,399.9999999999998,394.4549243704473,384.1727711613304,370.4178339869206
205,2,556,0,18.55186666666643,15.437046038576034,132.42084747446523,15.437046038576268,18.999808683445313,32.29346507713887,32.29346507713887,46.993894422437336,96.72196438913416,77.77903004432379,69.74077682740165,81.28197043112743,81.58284065134683,34.8351301847689,14.723836401983249,4.578868663962908,20.6472188625512,10.861467690630706,13.123961344660273,11.752742977317439,65.92818700555995,64.77171709659189,76.86359175944318,399.99999999999983,398.4841434877321,391.9289542662291,371.7256985819141
206,2,557,0,18.585233333333097,12.058683057565386,145.70562176556882,17.948346630486224,19.501484087145958,33.20983072289761,36.021118913991124,45.75948485278792,94.98550002338351,75.51411205087588,69.27027211363713,78.78952062945291,83.28651315192928,35.69948572146211,13.749001728554845,6.321591947579577,17.39820057876102,10.469868867783584,10.888827983403097,9.887854460281005,50.92291122787793,57.944854469941504,70.31360082384971,399.9999999999997,401.6854634316223,400.62869176685905,384.13468739658066
207,2,558,0,18.618599999999763,9.748271929254923,126.8493299523271,17.024625020846536,15.718616178831418,30.9804928402966,34.049250041693085,48.66819269037007,90.99112422914506,75.27345172303087,69.98507452276613,82.42476814663735,85.45446591087318,35.68153394919989,6.328387386043801,9.933822108592267,18.16402911922637,10.789359891495291,12.710191561553629,11.727101159074437,51.54261523517539,59.385851503336994,67.81883360368462,399.99999999999983,395.7516269588056,383.50809399232907,365.1537934444885
208,2,559,0,18.65196666666643,6.304146235342233,127.23649791172957,16.88813661281459,18.60084508512464,30.617801590874183,32.25386943652042,49.52101781041529,91.25334135798022,72.65471221929037,69.20856947746859,82.55934942946442,85.50120550309714,34.78697962228796,6.7456572389031635,14.034714644273436,18.737936774730997,10.702860332564072,12.608292470684342,11.603467347752144,49.10276331818244,56.16696548225599,65.76391847746012,399.99999999999983,392.76042333100855,380.62084245697525,362.62623514381295
209,2,560,0,18.68533333333309,2.1550116417241214,125.40797655417249,18.34926293499561,17.03686293006813,30.514538711593755,32.03655121714396,49.61209371980238,86.68398718745264,69.64722909992501,68.33450151441173,82.62671515679199,86.43055001130404,35.33855356301615,1.5122562958181334,16.16165930868317,17.915134400153306,10.666763417794094,12.565769215725519,11.578502191295343,53.058857397450424,58.16156269008866,65.52440385216332,399.99999999999994,395.795330740164,385.3857394904458,366.13958549581713
210,2,561,0,18.71869999999976,4.826042091758369,125.47709438571835,16.787413603179807,17.06263544687041,30.560699584336913,33.713280689447586,51.18790634061105,89.57477347169501,72.51921164000248,69.84360529784203,85.3968155305422,88.37008500031425,36.13086950609102,2.2017248605274062,15.487346668496343,20.191886968768586,10.682899565659918,12.584778084880154,11.544941896868067,53.63175942310397,59.22075329982738,67.14965441271946,399.9999999999999,397.40925565784784,387.3000259500093,367.800136988669
211,2,562,0,18.752066666666423,8.147542144006048,125.90341367757841,15.129605937429806,18.405960018875156,30.297012279198103,31.80817494187371,49.002175424891654,90.297260416784,71.89349312739485,67.65917758532225,84.33307432339734,87.91347481276307,37.42415973251241,3.6512527417938827,15.535537215730528,22.970300237183892,10.698246955036915,12.476192670799053,10.679796182659402,56.82350644732111,59.6387026104635,65.05730553094827,400.00000000000017,397.48270825539277,385.4606734236902,364.82433881479267
212,2,563,0,18.78543333333309,2.123667629870321,126.28235592842994,18.082378290936568,18.268479711234384,31.53485542342155,31.570588982107598,50.12035575095858,88.13860299675245,69.87156967492045,68.68501317562459,86.81837847745146,87.34020193937465,37.24514959475948,0.521823461923077,16.959262512500004,19.89451948581734,12.013278256541438,12.383003790414133,12.132395489711541,56.22647802221127,59.096507062788135,66.09009252369935,400.00000000000017,397.3302114068108,384.25182241908414,362.0993430914669
213,2,564,0,18.81879999999976,19.67019090908312,128.92536627790136,18.00816762477865,18.19350527881976,32.93490330553646,34.428924651662086,46.74474610894239,102.58062417556368,84.39957151095541,74.30991024144885,83.09566129304221,87.27272201487744,38.63317049839611,16.940301816331726,2.0421185751195026,21.31229203851933,10.46847845180427,12.057081644422231,12.03921723604509,59.53703882189154,59.75053303656307,70.28835531925708,400.00000000000006,396.0385327587324,384.34270887338556,363.7778970758045
214,2,565,0,18.852166666666424,21.17306229258114,133.54983520000675,19.463100703240094,21.17306229258098,33.07338058171664,36.056425833018885,47.011827602725745,108.63452385042372,87.46550773429942,76.63823525064743,84.69852792830204,88.6819208293241,40.0302934490021,21.53463345317732,1.898189574900016,21.19800870097822,10.4801311478985,12.345910769460307,10.556926256464237,53.65424522550211,58.23608213043343,65.89212107603504,400.00000000000006,394.819424121362,384.58698126606197,361.424235352697
215,2,566,0,18.88553333333309,19.67019090908306,134.727590430275,17.945963060235933,19.67019090908315,34.39642919878544,35.92306879541579,45.26194997103323,102.39513547293687,82.74031847853244,72.7597565957899,84.59012079574325,85.55548594034508,40.01624171518142,16.995995959289644,3.4251897919048133,22.751057398262446,11.963975373490639,12.057081644422194,11.291987484694573,53.55920081108735,56.650225745245336,65.81885664345623,400.00000000000006,394.73187270339383,383.04870050835643,361.0223733228981
216,2,567,0,18.91889999999976,15.325220563538444,133.8807862461965,16.530376648837578,16.801384491125418,34.59616811542838,36.09757027971253,45.704707132393516,94.14773897287706,77.35938366710899,69.41338430970734,83.54078784709975,84.59756212745583,38.73912032989688,9.538778372688057,8.037046500603196,22.88750612455499,10.519330594714809,12.392088900800175,11.374228438569844,53.839868599196166,56.954571741298366,66.12150659535031,399.99999999999966,396.12804898499746,385.6743079878661,363.6589715176552
217,2,568,0,18.95226666666642,10.932248229765841,132.28250490664837,16.58637441792825,16.7890667589045,34.570804352403684,36.071105781815454,43.960432898518995,88.13860299675245,71.35649644032182,65.65191430319669,80.88263659807649,81.14354832903814,37.24514959475948,6.588021206778876,9.392822314615387,21.45998987158646,10.511618474473778,10.932248229765788,10.59953907031246,54.72623556918245,59.09650706278819,67.57469019304575,400.00000000000017,396.00565051205757,387.2331917275278,366.56496482769535
218,2,569,0,18.985633333333087,12.434104147239863,131.39999258560772,15.153771390601365,13.901751056270472,34.71346605775897,34.71346605775897,45.6360220345016,87.01260304208851,73.14270336806098,66.67440201010663,81.13447106529713,83.00358610072692,36.61512662688915,4.384516115448491,10.159244657746399,22.266646529037757,10.554996273911954,10.977361822146513,10.675343585439691,54.91106609061086,56.361722536019045,67.8535474751482,400.00000000000034,396.1417975487235,385.6577264862224,366.3874376227873
219,2,570,0,19.01899999999976,9.357525215046097,129.13723833081818,16.275101118101663,18.30108026660219,34.15817151651652,35.54012221865614,44.998897844546875,88.5387060917368,70.30609540843686,65.46249382799635,78.54021550695268,82.45614346731827,35.797492392397544,7.425486038051531,11.193643131988097,20.429322283793454,10.462031241005795,10.462031241005773,10.41784608323644,54.749106011902086,59.18223200476871,71.01862306080702,400.00000000000017,394.58643408114017,381.53293786891976,359.70222250735026
220,2,571,0,19.05236666666642,9.123252896280459,138.5072311309816,18.06062822107515,21.211132137106343,34.788843332117786,36.12125644215029,45.393805078920764,93.76184166572413,72.5532348037776,67.87188708644544,80.39007140293052,83.91683793083257,36.87491564980769,11.39770120084961,11.72833556284047,18.423681393154197,9.123252896280459,11.422544230422465,10.754801052534162,66.62282394114692,64.3267519828774,70.63657326983002,399.9999999999999,396.6538423490482,384.9835091074812,364.2174363605254
221,2,572,0,19.085733333333085,9.334565058599122,136.43321862727043,16.235167603708074,20.87272201142204,32.60423406499974,34.233809458002284,47.59712938469826,93.72991048651116,72.86045111693936,68.22063186781884,80.64949192470908,85.43690468736304,35.5373331997007,10.495481825818274,12.244728796788081,18.873454160462757,10.436361005710955,11.240304800501159,9.804989600435533,69.87781320873762,66.28725363674715,66.56402354702739,399.99999999999994,396.17504090500086,384.8966160379178,365.92507054017204
222,2,573,0,19.11909999999975,9.051945440786547,137.71441288249727,17.91946613144452,21.306788560323255,34.35616423236524,34.51693330991484,46.51449898598232,94.70405551763805,73.4630288580354,68.87018565324036,80.71578474563398,85.50501235716285,36.66581671411927,11.372139328516369,11.390349319434563,18.574190736727815,10.522672835293127,12.271439821557953,11.294746867113247,69.13423052155656,67.77758619813875,68.71232846473025,399.99999999999994,397.4005501151628,384.3066826085359,366.61209618034155
223,2,574,0,19.152466666666417,7.529099144241978,137.9632650598039,17.78035153558655,22.34467710539755,34.24896722250773,35.71365303754444,47.45767990994815,95.06455278757873,72.72801600145432,68.97179625434887,81.93899963497802,84.26876180224974,35.65077921081047,11.919713413948784,10.574230611919802,17.807329433565883,10.440981931775658,12.615886469111638,12.068709831623096,70.96744524259339,69.62196244056429,69.65003671668191,400.0000000000001,396.1551261414062,383.1854593706296,364.40373175444205
224,2,575,0,19.185833333333083,3.26851495339013,138.03043521974647,19.058553460799654,20.67190363806308,33.74652654803053,35.202983397177896,48.43581860686683,91.20269587252288,70.5423979054357,69.00757401280998,82.86700612881782,84.9212608401034,35.46078011529676,7.262288131306832,14.990629644248884,17.81409867473826,11.784798259068515,12.053687568842257,11.891148416868702,68.7044130752414,67.33792646112624,66.0369454034484,399.99999999999994,394.5247837991709,382.91597788461536,364.25395884002967
225,2,576,0,19.21919999999975,4.618555837107366,137.9162950374615,17.586936666086242,20.654809619300615,33.876406561229416,35.173873332172484,47.10021267605583,89.85435693805192,69.20131881400287,66.89709920508687,80.21224212420168,81.560272014102,33.82126647607549,8.878249837787166,11.824275424986695,16.279023206842794,12.043720128733083,12.478650710292627,11.226142957282548,69.49942180711292,67.7050244040006,64.67627445838,400.0000000000001,391.8457461006834,378.62299907245654,359.61026021117186
226,2,577,0,19.25256666666641,9.010696657816595,138.40909512400432,17.837808970093867,22.660288574681104,35.82906216634109,37.299424964889944,47.61104001252264,97.0142500145333,74.43688638151227,69.94133896936307,83.22191281131688,83.87349803558993,35.936735077614,13.420845661068256,8.959296833754252,18.25343607442653,10.474722099079921,11.28162096249588,11.470614885639861,72.71510106991417,69.18568110510188,67.07094695299239,400.00000000000017,392.83699290415507,379.425030257336,357.40144755477485
227,2,578,0,19.28593333333308,9.018616301545604,141.48254754275516,19.331408974715835,22.436586770539098,34.38984243381756,37.33220801910205,47.6528861082009,98.40383056373362,75.97774663988682,71.47715617485233,84.50925337016577,85.75083703898213,37.47860775467234,13.254132230977802,10.589711803006708,18.19327894269236,11.953517631815782,12.226256548064551,12.07145581652128,73.38031362340291,70.20838454248519,71.55233196328274,400.0000000000001,391.1643499486405,376.2664265034516,354.0092163285954
228,2,579,0,19.319299999999743,4.671354647230324,138.02252298699386,17.78798854516469,22.354274582294085,34.10408833267198,37.19524887440222,49.104803670742726,93.81168810480371,71.45798550341995,69.14383565633091,83.0528470842969,83.8552900512949,34.37130708641587,10.298018076474818,12.036644504970582,18.18870725195552,11.90966425056999,12.18140258071156,12.036644504970582,71.14994307382591,69.01009516183109,68.35199165223348,400.0000000000002,391.1963188560544,377.81990315188176,354.00116057807617
229,2,580,0,19.35266666666641,3.326111500635115,138.9821173021598,17.91165859782556,21.297505166120768,34.501894239260544,35.97739669035099,47.80815265044402,90.03876599165902,68.8272052709986,67.26782395963585,82.14889412488048,82.95691603430566,34.744942105277346,7.40686750306304,13.73637246022588,16.96846009792614,10.518088093687481,12.709054199034295,11.446977050188252,71.50993898411741,69.48988421055464,71.78546964036192,399.99999999999983,390.78908523226403,375.8417690835173,354.6483446992764
230,2,581,0,19.38603333333308,1.4929946941860666,141.13341308766783,19.466269202587245,21.114133450692343,34.46845909829368,35.95607363135707,47.98532328790598,88.70449280473215,67.59820982525956,67.51941674303998,81.46734186709932,82.86392487053536,34.180473763580835,6.51738734936805,15.971179988011613,16.43670765582351,12.036908041371552,14.163791304525127,12.990012422984762,72.5686014477701,70.33048766021238,72.05149701668971,399.9999999999997,390.75410585875136,376.90354613244335,355.64938701829175
231,2,582,0,19.419399999999744,29.2897583345614,161.55806302034406,16.005992355550777,25.284467297369233,43.90118897205867,48.40797719461407,46.39990517408994,116.69670713461684,91.49899285356223,76.85971339440414,77.66857167654928,74.96025967565856,29.964109620592353,40.37929604012504,12.932644219018243,15.132011682828761,8.939409142329644,11.055312620059425,9.251884620492433,66.1991430016364,72.43371358086802,68.30454641890178,400.0000000000002,393.9609344226431,382.85984528737487,365.7197261818376
232,2,583,0,19.45276666666641,29.07023520618378,160.86617625649808,15.517393845763259,25.094963331611805,45.06111254318742,48.045165372446995,46.552181537290224,116.09163108300748,91.05509963482393,76.55341350292815,74.06832835281534,74.98196259918029,27.98461696616164,41.56122186714663,14.508511832277122,13.448696106493571,8.1940972194644,10.207241033379244,9.785022778569783,66.3389826285669,71.51928880545671,66.84682243940799,399.99999999999983,394.00479257886735,379.7313168632336,360.9670685167615
233,2,584,0,19.48613333333308,33.34163751319312,157.81442185393468,13.915104669440147,24.89209596391404,42.929049757345076,46.17585428770397,46.175854287704084,118.12180129570251,93.29653906643055,76.67745352116572,76.97797085681873,75.55734345191354,30.097266494946894,41.85386892913027,14.898374579646884,17.047528858862506,7.546525066340395,10.88375323130576,9.12024580777279,66.34147849188736,73.10767183704485,66.01376451123403,400.00000000000017,392.30608924237737,378.4053726142391,358.3002364918003
234,2,585,0,19.51949999999974,30.46832985059475,157.52760445352888,16.843874662816642,26.310973325255123,42.85102901431909,47.570155796735044,45.82029289582716,119.38968778798005,93.12697870250727,77.89070279728469,77.52433923381102,77.20772874685838,31.547973521343806,42.02325763251679,13.492129751135167,16.893430982397035,8.784690257181207,10.106324797689942,8.946507759887709,68.12553077827658,72.29574319213731,69.1378990343766,399.99999999999983,391.0827055113026,375.72640174578345,355.912307212651
235,2,586,0,19.552866666666407,35.03076920986745,159.4047033058731,15.401932138077708,24.908236916765475,43.2479436083471,47.687671266472634,45.70947915963911,120.91705207122584,96.11386626644251,78.57840645772762,75.70419199240621,76.22759682439573,30.285286485458982,44.94964600240496,17.696497853988376,15.449466764930321,8.133126642361873,10.131291070892754,9.692013613046129,67.74482885766997,73.53837889451876,72.27303240222938,400.0,392.3018243044599,377.4259104888832,354.32813544137815
236,2,587,0,19.58623333333308,32.153675968124034,159.98047036262574,15.457563653030075,23.18634547954506,44.60497701616945,47.859918317902384,45.874581015077645,116.62327344743322,93.46100143501772,77.37479022178297,74.10543288846816,75.41864754954861,28.908961636283948,41.85871732193823,16.150716422037704,15.658260924132264,8.838200151230515,10.167885120629077,8.964513971125257,67.97709780342632,73.06580461511294,68.3932530159014,400.00000000000006,392.50612111204316,378.7921990401904,360.5865880183531
