,video_id,frame_seq,gap,time_seconds,m1,m3,m4,m5,m6,m7,m8,m9,m10,m11,m12,m13,m14,m15,m16,m17,e1,e2,e3,b1,b2,b3
0,63,249,1,10.38537500000003,8.510638297872333,144.74341575910594,17.021276595744666,30.08965026325738,42.55319148936155,46.808510638297776,34.042553191489446,89.46296187927089,59.574468085106446,55.319148936170336,68.08510638297878,63.829787234042556,31.91489361702122,23.404255319149,6.3829787234042215,14.893617021276555,21.276595744680833,17.021276595744666,19.14893617021272,72.34042553191489,68.08510638297872,68.08510638297867
1,63,250,0,10.427083333333364,13.601194237283313,150.53763440860212,17.204301075268745,38.94789306725774,43.01075268817203,47.31182795698919,34.67637741203685,103.3153733287253,64.51612903225805,58.06451612903231,64.51612903225805,64.51612903225805,30.107526881720332,38.709677419354875,0.0,12.903225806451587,21.505376344086017,21.931266725130243,17.20430107526886,77.4193548387097,64.51612903225805,73.24467254161905
2,63,251,0,10.468791666666698,17.390277069739682,152.1649243602228,17.390277069739795,30.432984872044585,43.475692674349375,47.82326194178427,39.12812340691437,104.34166241843843,73.90867754639385,65.21353901152406,69.56110827895895,69.56110827895895,30.432984872044585,34.78055413947948,0.0,13.04270780230479,21.73784633717463,22.16834053134697,17.390277069739682,78.2562468138288,65.213539011524,74.03643680777706
3,63,252,0,10.510500000000032,12.903225806451587,150.53763440860212,17.20430107526886,34.408602150537604,43.01075268817203,43.01075268817203,30.41319488974399,94.72135718514082,60.36846816179874,53.76344086021504,60.21505376344089,60.21505376344089,30.107526881720446,34.408602150537604,0.0,12.903225806451587,17.204301075268802,21.505376344086017,21.505376344086017,68.81720430107526,68.81720430107526,60.368468161798745
4,63,253,0,10.552208333333366,12.902479933691325,146.22810591516782,12.902479933691211,30.411436850788203,43.00826644563767,47.30909309020126,34.40661315651016,90.41970218571063,60.2115730238927,53.76033305704698,60.2115730238927,60.2115730238927,25.804959867382536,30.10578651194635,0.0,12.902479933691325,17.20330657825508,17.20330657825508,17.20330657825508,73.11405295758397,68.81322631302021,60.2115730238927
5,63,254,0,10.5939166666667,12.903225806451701,150.59906580655135,17.204301075268745,30.107526881720332,43.01075268817203,47.31182795698942,30.41319488974399,90.42492921130591,60.36846816179874,53.76344086021504,60.21505376344089,55.91397849462362,27.956989247311867,32.25806451612891,2.150537634408579,10.752688172043122,17.204301075268802,17.204301075268802,17.204301075268802,68.81720430107526,64.51612903225805,60.36846816179874
6,63,255,0,10.635625000000037,13.04270780230479,152.22701982265633,17.390277069739795,30.43298487204447,43.47569267434915,48.02047210604719,30.741957106814684,91.40240955540482,61.02104252979877,54.34461584293672,60.86596974408906,56.51840047665405,28.25920023832714,32.60676950576192,2.1737846337175597,10.868923168587344,17.39027706973974,17.39027706973974,17.39027706973974,69.5611082789589,65.213539011524,65.35829732285501
7,63,256,0,10.677333333333369,17.021276595744666,149.17913313155813,17.021276595744666,34.307479779993805,42.76542817498258,46.808510638298,34.04255319148933,102.21627361246216,68.08510638297867,59.57446808510633,63.829787234042556,55.31914893617022,25.531914893617,42.553191489361666,8.510638297872333,12.765957446808443,21.27659574468089,17.021276595744723,17.021276595744723,63.829787234042556,63.829787234042556,63.971473950522906
8,63,257,0,10.719041666666705,26.073098089766518,152.15513833130458,17.38206539317764,30.7274407763597,43.45516348294427,47.80067983123854,30.4186144380609,104.38288469050195,73.87377792100506,60.8372288761218,60.8372288761218,56.49171252782742,28.24585626391365,45.62792165709129,10.863790870736011,10.863790870736011,17.38206539317764,21.72758174147208,19.55482356732489,69.52826157271056,69.52826157271056,65.1827452244163
9,63,258,0,10.760750000000035,17.02031349977551,153.2419084130026,12.765235124831747,34.04062699955125,42.550783749439006,46.80586212438311,34.04062699955125,97.86680262370976,63.82617562415851,55.31601887427075,63.82617562415851,59.57109724921463,27.65800943713532,36.16816618702319,2.127539187471939,14.892774312303573,17.54413758517532,21.275391874719503,21.275391874719503,68.08125399910244,68.08125399910244,68.08125399910227
10,63,259,0,10.802458333333371,13.598050179396378,154.86262892633346,17.200324121661538,34.400648243323076,43.0008103041539,43.0008103041539,30.406164562583637,94.60178266913852,60.20113442581544,53.751012880192434,60.20113442581544,55.90105339540003,27.950526697699956,36.55068875853078,2.1500405152077064,10.750202576038419,17.200324121661538,21.500405152076894,19.350364636869244,73.10137751706151,68.80129648664615,64.50121545623074
11,63,260,0,10.844166666666704,16.997248129269337,144.47660909878914,16.997248129269224,33.994496258538675,42.705057400121646,46.742432355490564,34.2590488574887,102.0719777196179,68.1216540920373,59.49036845244257,59.49036845244257,59.49036845244257,25.495872193903892,42.49312032317334,4.249312032317334,8.498624064634669,21.667324972130668,17.520362345452334,16.99724812926928,80.7369286140293,67.98899251707729,59.64193651580559
12,63,261,0,10.88587500000004,12.719974560076366,144.15971168086503,16.959966080101708,38.15992368022887,42.39991520025433,42.39991520025433,33.91993216020353,101.75979648061048,63.599872800381604,57.239885520343364,59.35988128035615,59.35988128035615,25.43994912015262,42.39991520025433,4.239991520025455,8.47998304005091,21.199957600127163,25.79086154679296,25.439949120152676,89.03982192053422,72.07985584043246,67.97223491324304
13,63,262,0,10.927583333333374,8.48713813881227,140.03777929040257,16.97427627762454,33.948552555249194,38.1921216246551,42.43569069406135,33.94855255524908,93.35851952693508,59.40996697168589,55.166397902279755,59.40996697168589,59.40996697168589,25.46141441643681,33.948552555249194,0.0,8.48713813881227,21.63804149218068,21.217845347030675,21.217845347030675,80.62781231871662,67.89710511049822,63.79483152247866
14,63,263,0,10.969291666666708,8.48713813881227,140.03777929040257,16.97427627762454,33.948552555249194,38.1921216246551,42.43569069406135,33.94855255524908,93.35851952693508,59.40996697168589,55.166397902279755,59.40996697168589,59.40996697168589,25.46141441643681,33.948552555249194,0.0,8.48713813881227,21.63804149218068,21.217845347030675,21.217845347030675,80.62781231871662,67.89710511049822,63.79483152247866
15,63,264,0,11.011000000000042,16.98670779342342,140.20466812139236,12.740030845067622,33.97341558684684,42.46676948355844,42.46676948355844,34.237804131402825,97.76584528842073,63.841553187837846,55.20680032862617,55.20680032862617,59.45347727698197,23.35672321595723,40.34343100938065,2.123338474177899,10.61669237088961,21.233384741779275,16.98670779342342,14.863369319245521,84.93353896711716,67.94683117369374,63.841553187837846
16,63,265,0,11.052708333333376,8.49335389671171,140.20466812139216,16.98670779342342,33.973415586846954,38.220092535202866,38.45529532461254,33.97341558684684,93.42689286382893,59.45347727698197,55.20680032862606,63.70015422533788,59.45347727698197,27.603400164313143,31.85007711266894,2.123338474178013,10.616692370889723,16.98670779342342,12.740030845067565,14.863369319245521,76.44018507040545,63.70015422533788,72.1935081220497
17,63,266,0,11.09441666666671,4.243569069406249,140.03777929040257,12.730707208218405,33.94855255524908,42.43569069406135,42.43569069406135,38.192121624655215,89.11495045752895,55.16639790227987,53.044613367576744,59.409966971686,59.409966971686,21.21784534703079,29.704983485842945,4.243569069406135,8.487138138812384,16.97427627762454,12.730707208218405,14.852491742921472,76.38424324931049,63.65353604109208,67.89710511049816
18,63,267,0,11.136125000000044,9.716869952122941,143.46786554239407,17.38206539317764,30.418614438060786,39.10964713464978,43.455163482944045,34.76413078635528,91.35924940210451,60.9922284365715,56.4917125278273,56.4917125278273,60.8372288761218,23.90033991561927,32.59137261220803,2.1727581741472477,10.863790870736011,21.72758174147208,17.38206539317764,17.38206539317764,69.52826157271062,60.8372288761218,65.32743518097453
19,63,268,0,11.177833333333378,0.0,141.64101159552297,21.460759332655016,34.337214932248116,38.629366798779074,42.92151866531003,47.21367053184099,103.01164479674412,68.674429864496,68.674429864496,64.38227799796505,64.38227799796505,17.168607466124058,38.629366798779074,0.0,0.0,17.69699550689941,17.168607466124,17.168607466124,77.25873359755803,64.38227799796505,68.674429864496
20,63,269,0,11.219541666666712,4.285249711119832,141.47815359429484,17.1409988444791,34.2819976889582,34.2819976889582,38.56724740007803,47.13774682231758,102.84599306687471,68.56399537791651,66.4213705223566,64.27874566679668,59.99349595567696,14.998373988919184,40.70987225563795,2.142624855559916,2.142624855559916,21.426248555598875,21.426248555598875,21.426248555598875,77.134494800156,64.27874566679668,59.99349595567696
21,63,270,0,11.261250000000048,4.239991520025455,148.46026215187092,16.959966080101708,38.159923680228985,38.159923680228985,46.63990672027967,42.39991520025444,101.75979648061059,63.599872800381604,61.47987704036882,63.599872800381604,59.35988128035615,19.07996184011438,40.27991944024177,2.1199957600127846,2.119995760012671,17.481932888788048,16.959966080101765,16.959966080101765,76.31984736045791,63.599872800381604,67.83986432040706
22,63,271,0,11.30295833333338,4.239991520025455,148.46026215187092,16.959966080101708,38.159923680228985,38.159923680228985,46.63990672027967,42.39991520025444,101.75979648061059,63.599872800381604,61.47987704036882,63.599872800381604,59.35988128035615,19.07996184011438,40.27991944024177,2.1199957600127846,2.119995760012671,17.481932888788048,16.959966080101765,16.959966080101765,76.31984736045791,63.599872800381604,67.83986432040706
23,63,272,0,11.344666666666717,12.891307341092102,150.39858564607357,17.188409788122613,34.37681957624534,42.9710244703067,42.9710244703067,34.64434749880575,98.92672744686752,64.59961465444364,58.01088303491417,60.15943425842943,60.15943425842943,25.782614682183976,38.67392202327608,4.297102447030738,8.594204894061363,17.18840978812267,17.18840978812267,17.18840978812267,73.05074159952136,64.45653670546005,60.15943425842943
24,63,273,0,11.386375000000047,16.827195794472118,147.23796320163046,16.827195794472004,29.44759264032598,42.06798948618007,46.27478843479798,33.65439158894401,96.75637581821411,67.30878317788813,58.89518528065207,58.89518528065207,58.89518528065207,25.240793691708063,37.86119053756204,4.2067989486180295,8.413597897236059,16.82719579447206,17.34507641088932,16.827195794472004,67.30878317788813,58.89518528065213,67.44011751385125
25,63,274,0,11.428083333333385,16.833713813174427,143.08656741198206,16.833713813174313,33.667427626348626,38.108940470869385,42.084284532935726,33.667427626348626,101.00228287904599,67.33485525269737,58.91799834611015,54.7095698928166,54.7095698928166,21.042142266467977,46.29271298622939,12.625285359880763,4.2084284532936636,21.04214226646792,21.04214226646792,21.04214226646792,67.33485525269737,63.12642679940376,63.12642679940359
26,63,275,0,11.469791666666715,16.827195794472004,143.03116425301232,16.827195794472004,33.65439158894412,37.86119053756215,46.27478843479798,33.65439158894412,100.96317476683225,67.30878317788813,58.89518528065207,54.688386332034156,54.688386332034156,21.033994743090034,46.2747884347981,12.620396845853975,8.413597897236059,16.82719579447206,21.033994743090034,18.93059526878102,71.51558212650616,63.10198422927016,63.1019842292701
27,63,276,0,11.511500000000051,17.179490267927235,141.79585360513204,21.474362834909016,34.35898053585436,38.65385310283614,43.16293510673132,34.35898053585447,107.37181417454508,73.01283363869072,64.42308850472716,60.12821593774527,55.83334337076349,23.621799118399963,49.391034520290646,15.032053984436288,6.4423088504727275,21.474362834909016,21.474362834909016,21.474362834909016,73.01283363869067,64.4230885047271,68.71796107170894
28,63,277,0,11.553208333333384,20.76136996343496,137.08794056471882,16.609095970748058,33.4767031705993,37.3704659341829,45.67501391955693,33.218191941496,103.88986210538481,70.58865787567902,60.20797289396148,58.131835897617975,53.979561904931074,22.837506959778466,47.75115091590055,14.53295897440455,10.380684981717422,21.172526114494854,17.120264258353625,16.609095970747944,70.58865787567896,62.28410989030493,66.436383882992
29,63,278,0,11.59491666666672,20.778169456376645,132.98028452081098,20.77816945637676,33.245071130202746,41.55633891275352,41.7636037342319,33.245071130202746,108.0464811731589,74.80141004295615,64.41232531476783,58.17887447785483,58.17887447785483,24.933803347652088,49.86760669530406,16.622535565101316,8.311267782550772,20.77816945637676,21.189658302960474,20.778169456376702,74.80141004295615,62.334508369130106,62.472875927553346
30,63,279,0,11.636625000000054,25.174055770726113,134.26163077720594,17.29921516131558,29.369731732513856,37.76108365608911,41.95675961787674,33.565407694301484,104.97577902534576,75.63862407728594,62.935139426815226,58.7394634650276,58.7394634650276,25.174055770726113,46.1524355796646,16.782703847150742,8.391351923575371,17.299215161315637,16.782703847150742,16.782703847150742,75.52216731217834,67.13081538860297,62.93513942681534
31,63,280,0,11.678333333333388,25.812622930116106,135.8604998076739,21.217845347030675,29.704983485842945,38.1921216246551,42.43569069406135,33.948552555249194,110.41437274421057,80.73940796010967,67.89710511049827,59.409966971686,63.65353604109214,27.583198951139934,48.801044298170495,14.852491742921416,10.608922673515394,16.97427627762454,16.974276277624597,16.974276277624597,72.14067417990435,63.65353604109208,59.40996697168589
32,63,281,0,11.720041666666722,8.498624064634669,135.9779850341547,21.667324972130725,38.24380829085601,38.243808290855895,42.49312032317334,33.994496258538675,102.07197771961803,63.88116718601261,59.49036845244268,59.49036845244268,59.49036845244268,25.495872193904006,42.49312032317334,4.249312032317334,4.249312032317334,17.520362345452387,21.24656016158667,21.24656016158667,67.98899251707729,59.490368452442624,59.49036845244268
33,63,282,0,11.761750000000056,0.0,135.8936623473876,21.233384741779332,38.22009253520275,38.220092535202866,38.220092535202866,38.22009253520264,97.67356981218472,59.45347727698197,59.45347727698197,59.45347727698197,59.45347727698197,21.233384741779332,38.22009253520275,0.0,0.0,17.509497615946852,16.986707793423477,19.110046267601433,67.94683117369374,59.45347727698203,59.60495134993671
34,63,283,0,11.80345833333339,0.0,131.79719247227143,16.997248129269337,34.25904885748867,38.243808290855895,42.493120323173116,42.49312032317334,93.58139015198738,59.49036845244268,59.49036845244268,59.49036845244268,55.24105642012535,14.872592113110613,36.1191522746974,2.124656016158724,2.1246560161586103,16.997248129269337,21.24656016158667,21.24656016158667,67.98899251707729,59.490368452442624,63.88116718601249
35,63,284,0,11.845166666666724,5.884580442302467,133.21785570349897,20.805133675948923,37.44924061670804,37.67969965723001,37.44924061670804,37.44924061670815,99.95129210913854,62.55394814844155,60.33488766025198,58.254374292657076,54.09334755746727,18.72462030835402,43.69078071949275,6.241540102784711,2.0805133675949037,21.217156519313995,20.805133675948923,20.805133675948923,70.73745449822638,58.25437429265702,58.40279332120981
36,63,285,0,11.886875000000058,8.57049942223955,137.1279907558328,21.85057189761749,34.54878768686953,38.56724740007803,42.85249711119786,38.56724740007803,103.20247938038226,68.69777891074493,64.27874566679668,59.99349595567685,59.99349595567685,21.426248555598818,42.85249711119775,8.57049942223955,0.0,21.426248555598875,17.140998844479157,17.140998844479157,77.134494800156,64.27874566679662,60.14634587462883
37,63,286,0,11.928583333333393,16.42430027796172,131.4585439908647,20.936956903608575,33.10423554409471,32.84860055592344,41.0607506949043,32.84860055592344,102.97983884036205,69.92393880585064,61.59112604235645,57.48505097286602,53.37897590337559,22.583412882197422,47.21986329913989,10.265187673726018,2.053037534745272,20.936956903608575,16.42430027796172,18.477337812706935,82.1215013898086,65.69720111184688,65.69720111184688
38,63,287,0,11.970291666666729,16.42430027796172,131.4585439908647,20.936956903608575,33.10423554409471,32.84860055592344,41.0607506949043,32.84860055592344,102.97983884036205,69.92393880585064,61.59112604235645,57.48505097286602,53.37897590337559,22.583412882197422,47.21986329913989,10.265187673726018,2.053037534745272,20.936956903608575,16.42430027796172,18.477337812706935,82.1215013898086,65.69720111184688,65.69720111184688
39,63,288,0,12.01200000000006,26.040764589187127,132.7133351407067,17.65132576493967,34.24860261695653,38.529677944076184,42.81075327119561,38.529677944076184,115.9057167101517,81.7898292828165,68.49720523391318,59.93505457967399,59.93505457967399,21.405376635597804,55.65397925255445,21.405376635597918,4.281075327119538,21.82928663214323,21.82928663214333,21.40537663559786,77.05935588815225,64.21612990679353,55.81839313882339
40,63,289,0,12.053708333333397,24.923808345744543,127.02091440682966,16.894214411674167,32.77959081466565,36.87703966649883,45.071937370165415,32.77959081466565,106.84839364026355,74.20795487433736,61.46173277749813,57.36428392566495,57.36428392566495,24.584693110999297,49.16938622199848,12.292346555499648,8.19489770366647,20.892971651445894,16.389795407332826,16.389795407332826,77.85152818483101,65.55918162933136,57.51043520438436
41,63,290,0,12.095416666666727,16.574671196746976,128.63834363119145,20.497794511615663,36.17953414627266,40.1994823847474,44.219430623222024,28.13963766932318,100.81978890758583,64.81971766680415,56.27927533864636,56.27927533864636,56.27927533864636,28.13963766932318,44.21943062322214,8.03989647694948,8.03989647694948,16.574671196747033,16.07979295389896,16.07979295389896,76.37901653102006,60.2992235771211,56.27927533864613
42,63,291,0,12.137125000000063,12.840578712242412,125.8769731366092,20.70481104308274,36.54492768482203,36.544927684821914,44.66602272589353,32.48438016428622,101.83801372153184,65.47436141954809,58.87793904776879,56.847665287500945,56.847665287500945,24.363285123214723,44.66602272589353,8.121095041071499,8.121095041071612,16.24219008214311,16.24219008214311,18.272463842411014,77.1504028901798,60.908212808036694,56.84766528750083
43,63,292,0,12.178833333333396,22.549840220583327,132.67162536133196,17.68955004817758,35.654427984958794,39.801487608399384,44.22387512044406,35.37910009635516,110.91291454066852,75.31054560245192,64.12461892464376,61.91342516862153,61.91342516862153,26.53432507226637,48.6462626324884,8.84477502408879,8.84477502408879,22.54984022058337,17.68955004817758,17.68955004817758,84.02536272884356,66.33581268066598,57.66087861051578
44,63,293,0,12.220541666666731,9.582109654625178,132.8427410447132,21.42624855559893,38.56724740007792,38.56724740007803,47.137746822317695,34.2819976889582,102.93523038784278,64.42142896260053,59.99349595567685,64.27874566679668,64.27874566679668,29.99674797783848,38.56724740007792,0.0,8.57049942223955,21.426248555598875,17.140998844479157,19.283623700039072,77.134494800156,64.27874566679662,60.14634587462883
45,63,294,0,12.262250000000066,4.235947881853235,131.31438433745166,21.599180908131892,38.358139495258904,38.12353093667957,42.35947881853281,34.151303631860415,97.51884362840836,59.30327034594586,57.185296405019244,59.30327034594586,59.30327034594586,25.41568729111964,38.12353093667957,4.235947881853235,8.47189576370647,21.599180908131892,21.17973940926646,21.17973940926646,80.48300975521232,63.539218227799154,59.454361725462434
46,63,295,0,12.3039583333334,4.235947881853235,131.31438433745166,21.599180908131892,38.358139495258904,38.12353093667957,42.35947881853281,34.151303631860415,97.51884362840836,59.30327034594586,57.185296405019244,59.30327034594586,59.30327034594586,25.41568729111964,38.12353093667957,4.235947881853235,8.47189576370647,21.599180908131892,21.17973940926646,21.17973940926646,80.48300975521232,63.539218227799154,59.454361725462434
47,63,296,0,12.345666666666734,13.090502317983546,132.5312348884443,20.697901520270875,37.48549396345838,41.39580304054175,45.53538334459586,28.97706212837909,99.69429549554795,62.231537592921335,55.88433410473124,57.95412425675829,62.09370456081251,31.04685228040637,39.32601288851447,2.0697901520270534,10.348950760135494,21.107800748456523,20.69790152027082,20.69790152027082,82.79160608108333,66.23328486486668,62.231537592921335
48,63,297,0,12.387375000000068,8.38351535292577,138.39150022968366,16.767030705851653,33.53406141170342,41.917576764629075,46.10933444109196,33.53406141170342,92.21866888218426,58.68460747048084,54.49284979401796,54.49284979401796,58.68460747048084,23.05466722054598,35.62994024993486,2.0958788382314424,10.479394191157212,21.373854188536768,20.958788382314594,18.862909544083152,79.64339585279549,62.87636514694378,63.01593549658678
49,63,298,0,12.429083333333402,16.767030705851653,134.20172587802463,16.767030705851766,33.534061411703306,37.957980166115675,41.9175767646293,29.34230373524042,96.41042655864715,62.87636514694384,54.49284979401796,54.49284979401796,58.68460747048084,27.24642489700898,39.821697926397746,2.0958788382314424,10.479394191157212,25.497466530478626,20.958788382314594,20.958788382314594,88.02691120572132,67.06812282340672,67.19898757774384
50,63,299,0,12.470791666666736,16.767030705851653,134.20172587802463,16.767030705851766,33.534061411703306,37.957980166115675,41.9175767646293,29.34230373524042,96.41042655864715,62.87636514694384,54.49284979401796,54.49284979401796,58.68460747048084,27.24642489700898,39.821697926397746,2.0958788382314424,10.479394191157212,25.497466530478626,20.958788382314594,20.958788382314594,88.02691120572132,67.06812282340672,67.19898757774384
51,63,300,0,12.51250000000007,4.271301169785602,145.2242397727041,17.08520467914161,38.44171052806871,38.4417105280686,42.7130116978542,42.7130116978542,98.33273743771925,59.95056876755234,59.79821637699581,59.79821637699581,59.79821637699581,17.08520467914161,38.44171052806871,0.0,4.271301169785374,21.3565058489271,17.08520467914161,17.08520467914161,81.15472222592291,59.79821637699581,68.47416678232484
52,63,301,0,12.554208333333404,5.990534944022591,144.02222798301136,16.94379152741317,38.12353093667946,38.123530936679344,42.35947881853281,38.12353093667946,97.51884362840825,59.454361725462334,57.185296405019244,59.30327034594586,59.30327034594586,21.179739409266404,38.12353093667946,0.0,4.235947881853235,17.46526054149251,16.94379152741317,16.94379152741317,84.71895763706556,67.77516610965245,68.30260726372083
53,63,302,0,12.59591666666674,5.928040556235343,146.77138871284072,20.958788382314538,33.53406141170342,37.72581908816619,42.126643282330924,33.795030806053155,92.21866888218426,58.68460747048084,56.5887286322494,58.68460747048084,54.49284979401796,23.05466722054598,35.62994024993486,2.0958788382314424,6.287636514694327,20.958788382314594,17.283059657050245,16.767030705851653,83.83515352925838,62.87636514694378,67.06812282340684
54,63,303,0,12.637625000000073,5.928040556235343,146.77138871284072,20.958788382314538,33.53406141170342,37.72581908816619,42.126643282330924,33.795030806053155,92.21866888218426,58.68460747048084,56.5887286322494,58.68460747048084,54.49284979401796,23.05466722054598,35.62994024993486,2.0958788382314424,6.287636514694327,20.958788382314594,17.283059657050245,16.767030705851653,83.83515352925838,62.87636514694378,67.06812282340684
55,63,304,0,12.679333333333409,9.48090926279963,152.63969472091594,21.199957600127163,33.919932160203416,42.399915200254554,46.639906720279896,29.679940640178074,93.37612716104414,59.51111689178641,55.11988976033069,55.11988976033069,55.11988976033069,25.43994912015262,38.15992368022887,4.239991520025455,4.239991520025455,25.43994912015262,17.481932888788048,19.079961840114493,84.79983040050882,72.07985584043246,67.97223491324327
56,63,305,0,12.72104166666674,4.199142412734318,147.02995995705248,20.995712063671817,38.02485179719718,46.38104391123375,46.19056654007795,33.85456845327666,96.58027549289022,58.937772349127954,56.68842257191386,62.98713619101534,58.78799377828102,27.294425682773294,35.692710508242044,2.099571206367159,10.497856031835909,21.411509102887543,20.99571206367176,20.99571206367176,79.78370584195272,71.38542101648403,79.89413316932394
57,63,306,0,12.762750000000077,8.498624064634669,144.53908547321143,25.495872193904006,38.24380829085601,42.70505740012142,46.935185471622546,29.745184226221227,101.98348877561591,63.7396804847599,59.49036845244257,63.7396804847599,59.49036845244257,31.86984024237995,40.36846430701473,2.1246560161586103,10.623280080793279,21.246560161586615,21.246560161586615,21.246560161586615,80.73692861402924,76.4876165817119,76.48761658171179
58,63,307,0,12.80445833333341,9.49585833500503,148.6943476300717,25.48006169013513,38.22009253520275,42.46676948355844,46.906080017957585,29.726738638491042,102.00868083076651,63.841553187837846,59.453477276982085,63.70015422533788,59.45347727698197,31.85007711266894,40.34343100938065,2.123338474178013,10.616692370889723,21.233384741779275,21.653888627591154,21.233384741779275,84.93353896711716,76.44018507040545,72.3183025248253
59,63,308,0,12.846166666666743,4.209593545216194,134.96983661089754,25.257561271297618,42.095935452162735,38.11949082695061,46.496480442534754,34.71319765568992,105.57606900343343,63.702709674292095,61.039106405635835,75.77268381389274,67.35349672346024,37.88634190694631,33.67674836173023,8.419187090432501,16.838374180865003,25.257561271297618,21.047967726081367,21.047967726081367,79.9822773591091,79.9822773591091,80.09297952608189
60,63,309,0,12.887875000000076,8.510156749887756,132.18166573970555,21.275391874719503,38.29570537449513,42.76300842630741,42.7630084263074,34.30553859800911,102.21049002269821,63.96785432373702,59.57109724921463,72.33633237404626,63.82617562415851,34.04062699955114,34.04062699955125,8.510156749887756,17.020313499775625,25.530470249663438,21.696727665705676,23.4029310621915,76.59141074899026,80.84648912393413,72.461373664218
61,63,310,0,12.929583333333412,8.510638297872333,124.57260568769738,21.27659574468089,38.533553779308185,34.307479779993805,39.232104073586775,34.307479779993805,102.4816559897217,63.97147395052302,59.57446808510633,76.595744680851,59.57446808510633,34.04255319148933,34.042553191489446,4.25531914893611,17.021276595744666,25.531914893617056,25.531914893617056,23.404255319149,76.59574468085106,80.85106382978722,68.2179554973676
62,63,311,0,12.971291666666746,8.510638297872333,128.29628452494754,21.27659574468089,38.297872340425556,34.307479779993805,39.232104073586775,38.533553779308185,106.4680510910367,68.21795549736771,63.829787234042556,76.59574468085111,63.829787234042556,31.91489361702122,36.17021276595756,2.127659574467998,14.893617021276555,25.531914893617056,25.531914893617056,23.404255319149,76.59574468085106,80.85106382978722,68.2179554973676
63,63,312,0,13.01300000000008,4.253153653201139,128.23099563656442,21.26576826600615,38.27838287881093,34.290020995225625,38.51394438141302,34.29002099522574,97.91495023131849,59.69585623436979,57.41757431821634,72.30361210442061,59.544151144816965,31.898652399009165,31.898652399009052,6.379730479801879,14.88603778620427,21.26576826600609,25.870923677293344,23.39234509260666,68.05045845121941,76.55676575762186,72.30361210442061
64,63,313,0,13.054708333333414,8.419187090432501,127.40541934858446,21.04796772608131,33.67674836173023,38.11949082695061,42.929599262703896,38.1194908269506,101.11790691954407,67.48491830544877,63.143903178244045,75.77268381389285,58.93430963302774,29.467154816513812,33.67674836173023,0.0,12.628780635648809,25.257561271297618,21.464799631351937,23.152764498689407,67.3534967234603,71.56309026867655,67.35349672346024
65,63,314,0,13.096416666666748,8.420586130034053,126.93876489566645,21.05146532508502,37.892637585153125,33.94446788604095,38.1258252481581,38.12582524815809,105.3414988313001,67.49613246094844,63.15439597525517,71.57498210528922,58.94410291023814,27.366904922610615,39.99778411766158,2.1051465325084564,10.525732662542623,25.261758390102102,25.261758390102102,23.156611857593646,67.36468904027225,79.99556823532333,63.294583486208694
66,63,315,0,13.138125000000082,8.42105263157896,126.94579731942196,21.0526315789474,37.8947368421052,33.94634841388868,38.127937423736654,38.12793742373642,105.34733476376248,67.49987175529007,63.15789473684208,71.57894736842104,58.9473684210526,27.36842105263156,40.0,2.1052631578947967,10.526315789473642,21.0526315789474,21.0526315789474,21.05263157894734,67.36842105263156,75.78947368421052,63.15789473684208
67,63,316,0,13.179833333333416,13.173298438775632,138.47636978616242,16.663050945468513,33.32610189093714,37.72258597190566,41.86539736759008,37.49186462730415,100.06505476129904,66.78225698609002,60.403559677323415,62.48644104550692,45.82339010003841,16.663050945468513,45.82339010003852,12.497288209101384,4.165762736367128,24.99457641820277,21.24130548173364,20.82881368183564,66.65220378187416,79.14949199097555,66.78225698609026
68,63,317,0,13.22154166666675,12.63087919505108,144.13721704189788,21.051465325085132,33.944467886041075,42.936732992932164,47.07250749286995,33.6823445201361,101.13470996177146,67.36468904027231,61.049249442746714,58.94410291023826,42.10293065017015,16.841172260068106,50.523516780204204,16.841172260068106,4.2102930650170265,21.051465325085132,17.35948302187064,18.946318792576562,71.57498210528928,75.78527517030625,67.49613246094846
69,63,318,0,13.263250000000085,25.59887090713514,152.0285677452457,17.351795030784203,33.92943490572624,38.79979322047656,47.05166050004372,33.667427626348626,109.50004119393931,75.75171215928447,63.1264267994037,58.91799834611015,46.29271298622939,18.937928039821145,56.81378411946332,23.146356493114695,6.312642679940382,21.042142266467977,21.4588588049031,18.937928039821088,75.75171215928452,75.75171215928452,80.07081214044067
70,63,319,0,13.30495833333342,25.59887090713514,152.0285677452457,17.351795030784203,33.92943490572624,38.79979322047656,47.05166050004372,33.667427626348626,109.50004119393931,75.75171215928447,63.1264267994037,58.91799834611015,46.29271298622939,18.937928039821145,56.81378411946332,23.146356493114695,6.312642679940382,21.042142266467977,21.4588588049031,18.937928039821088,75.75171215928452,75.75171215928452,80.07081214044067
71,63,320,0,13.346666666666753,16.84210526315792,147.90878374947627,12.631578947368439,29.473684210526244,38.127937423736434,47.075115315785,33.946348413888664,92.72722334966419,63.2980900142018,54.736842105263236,54.736842105263236,42.1052631578948,14.736842105263122,44.21052631578948,14.736842105263236,6.315789473684163,21.469555846706516,21.469555846706516,21.0526315789474,71.57894736842104,75.78947368421052,67.36842105263145
72,63,321,0,13.388375000000089,17.17867479593184,142.2093529070701,16.665762515709048,29.165084402490606,41.872210103503456,41.87221010350344,33.33152503141787,95.91866649729374,66.793124430547,58.33016880498144,58.33016880498133,45.830846918199654,18.748982830172622,43.74762660373597,14.58254220124536,6.249660943390836,20.832203144636196,17.178674795931894,18.748982830172565,74.99593132069032,79.16237194961758,66.66305006283574
73,63,322,0,13.43008333333342,4.20842845329355,139.450834744892,21.45885880490316,33.66742762634874,38.108940470869385,42.29418251598658,33.92943490572621,92.9672231632613,59.51616594924611,56.813784119463435,63.1264267994037,50.50114143952305,23.14635649311481,35.77164185299546,2.104214226646718,6.312642679940382,21.04214226646792,25.598870907135044,23.146356493114695,79.96014061257813,75.75171215928452,71.54328370599092
74,63,323,0,13.471791666666755,4.20842845329355,139.450834744892,21.45885880490316,33.66742762634874,38.108940470869385,42.29418251598658,33.92943490572621,92.9672231632613,59.51616594924611,56.813784119463435,63.1264267994037,50.50114143952305,23.14635649311481,35.77164185299546,2.104214226646718,6.312642679940382,21.04214226646792,25.598870907135044,23.146356493114695,79.96014061257813,75.75171215928452,71.54328370599092
75,63,324,0,13.51350000000009,0.0,137.94731870645967,17.1647133100323,37.69806158792524,37.69806158792513,41.8381796396934,38.38146577552745,91.9648791376398,54.279589443509764,54.1197081258357,62.445817068271936,49.956653654617526,18.733745120481558,35.385963005354256,2.0815272356089736,6.244581706827148,24.97832682730882,17.164713310032244,18.733745120481615,83.26108942436264,74.9349804819264,66.73884019290884
76,63,325,0,13.555208333333423,4.1666666666667425,138.50641782162216,20.833333333333258,33.33333333333326,37.7307714089059,41.87448175467045,33.59274061791067,91.76131477310513,58.48195353174254,56.25,66.66666666666663,50.0,25.0,33.33333333333326,0.0,8.333333333333371,20.83333333333337,20.833333333333314,20.833333333333314,75.0,79.16666666666669,66.79674809117256
77,63,326,0,13.596916666666758,4.21052631578948,139.52034969078653,16.84210526315792,33.684210526315724,38.127937423736434,42.315265773140425,38.12793742373645,92.72722334966409,59.097553042602925,56.842105263157805,63.15789473684208,50.52631578947364,18.9473684210526,35.78947368421052,2.1052631578947967,6.315789473684163,25.263157894736878,21.0526315789474,21.0526315789474,67.36842105263156,71.57894736842104,63.15789473684208
78,63,327,0,13.638625000000092,4.21052631578948,139.52034969078653,16.84210526315792,33.684210526315724,38.127937423736434,42.315265773140425,38.12793742373645,92.72722334966409,59.097553042602925,56.842105263157805,63.15789473684208,50.52631578947364,18.9473684210526,35.78947368421052,2.1052631578947967,6.315789473684163,25.263157894736878,21.0526315789474,21.0526315789474,67.36842105263156,71.57894736842104,63.15789473684208
79,63,328,0,13.680333333333426,0.0,142.2170680489666,20.83333333333337,33.33333333333337,41.87448175467046,46.02233757161375,37.73077140890591,91.76131477310524,58.48195353174254,58.33333333333337,62.5,50.0,18.75,35.41666666666674,2.0833333333333712,6.25,20.833333333333314,20.83333333333337,20.83333333333337,70.83333333333337,75.0,66.79674809117235
80,63,329,0,13.72204166666676,12.628780635648809,139.4894413276047,16.838374180865003,33.93882817710739,38.119490826950376,42.929599262703896,33.67674836173012,96.91212123589601,63.14390317824393,56.82951286041953,58.93430963302774,46.30552899737893,18.943170953473214,44.20073222477072,6.3143903178244045,6.3143903178244045,21.047967726081367,21.04796772608131,21.04796772608131,71.56309026867649,71.56309026867649,67.48491830544877
81,63,330,0,13.763750000000094,16.66666666666663,146.36806725208572,16.666666666666742,29.16666666666663,41.87448175467046,46.022337571613505,33.59274061791056,95.92387027684441,66.79674809117246,58.33333333333326,58.33333333333326,45.83333333333326,18.75,43.75,14.583333333333371,6.25,20.833333333333314,20.83333333333337,20.83333333333337,75.0,75.0,66.79674809117235
82,63,331,0,13.805458333333428,16.66666666666663,146.36806725208572,16.666666666666742,29.16666666666663,41.87448175467046,46.022337571613505,33.59274061791056,95.92387027684441,66.79674809117246,58.33333333333326,58.33333333333326,45.83333333333326,18.75,43.75,14.583333333333371,6.25,20.833333333333314,20.83333333333337,20.83333333333337,75.0,75.0,66.79674809117235
83,63,332,0,13.847166666666762,12.63087919505108,147.90059003793627,16.841172260067992,33.6823445201361,42.31292163188873,47.07250749286994,33.6823445201361,96.83674049539127,63.15439597525517,56.83895637772969,58.94410291023814,46.31322371518718,18.946318792576562,44.20807718267861,10.52573266254251,6.315439597525483,21.051465325085076,21.051465325085076,21.051465325085076,71.57498210528928,71.57498210528928,63.29458348620892
84,63,333,0,13.888875000000096,9.316444470498181,146.0633102978555,20.832203144636196,37.728724550119715,37.497965660345244,46.019840903178014,29.46118422125598,95.91866649729386,58.33016880498133,54.16372817605418,58.33016880498133,49.997287547126916,24.998643773563458,41.66440628927239,4.166440628927148,4.166440628927262,20.832203144636196,20.832203144636196,20.832203144636196,66.6630500628358,70.82949069176306,70.95192724069517
85,63,334,0,13.93058333333343,9.51464449596385,145.23474499274022,21.275391874719503,34.30553859800911,43.39345533141126,46.99887680768185,34.30553859800911,97.95926065342204,63.82617562415851,59.57109724921463,63.82617562415851,51.06094049932676,23.40293106219133,40.42324456196718,6.3826175624159305,10.637695937359695,25.53047024966338,21.69672766570562,21.275391874719503,72.33633237404632,76.59141074899026,72.461373664218
86,63,335,0,13.972291666666765,9.51464449596385,145.23474499274022,21.275391874719503,34.30553859800911,43.39345533141126,46.99887680768185,34.30553859800911,97.95926065342204,63.82617562415851,59.57109724921463,63.82617562415851,51.06094049932676,23.40293106219133,40.42324456196718,6.3826175624159305,10.637695937359695,25.53047024966338,21.69672766570562,21.275391874719503,72.33633237404632,76.59141074899026,72.461373664218
87,63,336,0,14.0140000000001,8.42058613003394,139.51262067381845,21.051465325085132,37.89263758515324,38.1258252481581,42.31292163188874,33.944467886041046,101.13470996177145,63.2945834862088,58.94410291023814,67.3646890402722,54.73380984522123,27.366904922610615,39.997784117661695,2.1051465325084564,10.52573266254251,21.051465325085132,21.051465325085076,21.051465325085076,67.36468904027225,75.78527517030625,67.3646890402722
88,63,337,0,14.055708333333431,8.42058613003394,135.77787154416444,21.051465325085132,33.94446788604118,37.892637585153125,46.504206891272815,33.944467886041046,97.20216345609337,63.2945834862088,58.94410291023814,67.3646890402722,50.523516780204204,25.261758390102045,37.89263758515324,1.1368683772161603e-13,8.42058613003394,21.051465325085132,21.468366496466114,21.051465325085076,67.36468904027225,75.78527517030625,63.29458348620892
89,63,338,0,14.097416666666769,8.510638297872333,145.67866186062713,17.021276595744666,38.297872340425556,38.533553779308185,43.39591075398123,38.533553779308185,102.21627361246227,63.97147395052302,59.57446808510633,68.08510638297867,51.063829787234,21.276595744680776,42.55319148936178,4.255319148936223,8.510638297872333,21.276595744680833,21.69795537699052,23.404255319148945,72.34042553191489,76.59574468085111,68.21795549736758
90,63,339,0,14.1391250000001,8.510638297872333,145.67866186062713,17.021276595744666,38.297872340425556,38.533553779308185,43.39591075398123,38.533553779308185,102.21627361246227,63.97147395052302,59.57446808510633,68.08510638297867,51.063829787234,21.276595744680776,42.55319148936178,4.255319148936223,8.510638297872333,21.276595744680833,21.69795537699052,23.404255319148945,72.34042553191489,76.59574468085111,68.21795549736758
91,63,340,0,14.180833333333435,16.663050945468513,146.33631368467616,16.663050945468513,33.32610189093714,41.65762736367151,46.01235333512092,33.32610189093714,99.9783056728113,66.65220378187416,58.32067830913991,62.486441045507036,49.98915283640565,22.91169505001926,43.7405087318549,10.414406840917763,10.414406840917877,20.82881368183564,16.663050945468513,18.745932313652077,70.81796651824129,74.98372925460842,62.62514585778887
92,63,341,0,14.22254166666677,5.953264283723222,143.68225240284318,21.04796772608131,38.119490826950624,42.30589154489677,47.06468662373941,33.93882817710741,96.91212123589612,58.93430963302774,56.82951286041953,63.143903178244045,50.515122542595236,23.15276449868952,39.991138679554524,2.104796772608097,6.3143903178244045,25.257561271297618,21.464799631351937,21.04796772608131,67.35349672346024,71.56309026867649,63.284067397721714
93,63,342,0,14.264250000000104,4.20842845329355,147.83508933054406,16.833713813174313,33.92943490572635,38.108940470869385,42.08428453293595,33.92943490572635,88.77689547786926,54.87119378966961,52.605355666169885,58.91799834611015,46.2927129862295,18.937928039821145,35.77164185299546,2.1042142266468318,6.312642679940382,21.4588588049031,21.4588588049031,18.937928039821145,71.54328370599097,71.54328370599097,71.66695412449448
94,63,343,0,14.305958333333438,0.0,142.1476769406402,16.658534601451265,33.317069202902644,41.85405019368097,41.85405019368097,37.71236166328255,87.55640845333144,54.30017942046644,54.140237454716726,62.46950475544247,49.97560380435391,18.74085142663273,31.23475237772118,2.082316825181465,6.246950475544281,20.82316825181414,20.82316825181414,20.82316825181414,70.79877205616805,70.79877205616805,70.79877205616822
95,63,344,0,14.347666666666772,8.508712596230339,153.39299776947405,17.017425192460678,34.29971702850177,42.75575164398987,47.56514941544934,38.28920668303647,97.94263719645015,63.815344471727485,59.56098817361226,59.56098817361237,51.052275577382034,17.01742519246079,42.54356298115158,4.254356298115113,4.254356298115226,25.526137788691017,21.271781490575847,21.271781490575847,68.06970076984277,72.32405706795794,68.2025198244701
96,63,345,0,14.389375000000106,21.042142266467863,147.53528149950267,16.833713813174427,33.66742762634874,42.084284532935726,42.29418251598657,37.875856079642176,109.4191397856332,75.75171215928447,65.23064102605053,58.91799834611015,50.50114143952294,16.833713813174427,54.7095698928166,16.833713813174313,0.0,21.458858804903056,21.458858804903056,21.04214226646792,75.75171215928452,75.75171215928452,71.66695412449448
97,63,346,0,14.43108333333344,25.332477520846165,145.99996287633653,16.658534601451265,33.57634991646261,37.48170285326546,45.81097015399109,33.57634991646261,108.36053442122832,74.96340570653092,62.46950475544247,58.30487110507954,49.97560380435391,20.82316825181408,54.14023745471684,20.823168251814195,4.164633650362816,20.823168251814195,20.823168251814195,20.823168251814195,74.96340570653092,70.7987720561681,66.63413840580529
98,63,347,0,14.472791666666774,25.332477520846165,145.99996287633653,16.658534601451265,33.57634991646261,37.48170285326546,45.81097015399109,33.57634991646261,108.36053442122832,74.96340570653092,62.46950475544247,58.30487110507954,49.97560380435391,20.82316825181408,54.14023745471684,20.823168251814195,4.164633650362816,20.823168251814195,20.823168251814195,20.823168251814195,74.96340570653092,70.7987720561681,66.63413840580529
99,63,348,0,14.514500000000108,6.012488885125895,149.04425142845344,17.529266728731,29.760301637369594,38.498713307646085,38.498713307646085,46.766188287294995,97.78384823707142,68.02354659970183,65.89781076846111,63.77207493722051,55.26913161225775,12.754414987444193,38.26324496233224,8.502943324962644,1.1368683772161603e-13,25.860692527166304,21.257358312406836,21.257358312406836,76.52648992466453,72.27501826218321,72.39995356418244
100,63,349,0,14.556208333333442,0.0,153.68770120690343,21.27178149057579,34.29971702850177,42.54356298115181,42.75575164398987,42.54356298115181,97.94263719645025,63.8153444717276,63.8153444717276,63.8153444717276,51.05227557738215,14.890247043403065,40.41638483209408,6.381534447172726,2.127178149057613,25.526137788691017,21.271781490575847,21.271781490575847,72.32405706795794,72.32405706795794,72.44907713891564
101,63,350,0,14.597916666666777,0.0,149.14537837761748,17.017425192460678,34.034850384921356,38.52483479429349,42.75575164398988,46.79791927926692,97.85019485664895,63.8153444717276,63.8153444717276,63.8153444717276,55.30663187549726,12.763068894345452,38.28920668303658,4.254356298115226,0.0,21.271781490575904,21.693045781865678,21.271781490575904,76.57841336607311,72.32405706795794,72.44907713891564
102,63,351,0,14.63962500000011,0.0,150.7483547205138,21.50040515207695,38.700729273738375,38.938889855610135,43.21527951641579,47.3008913345692,107.50202576038453,68.80129648664615,68.80129648664615,68.80129648664615,60.201134425815326,17.200324121661538,43.00081030415379,4.300081030415413,0.0,25.800486182492307,21.926197084118147,21.500405152076894,81.70153957789228,77.40145854747692,73.2277412717343
103,63,352,0,14.681333333333445,8.600162060830712,147.21106184474712,21.50040515207695,34.668361605778045,38.93888985560991,43.21527951641579,38.700729273738375,103.29149090276381,68.80129648664604,64.50121545623063,68.80129648664604,51.6009723649845,21.500405152076837,43.0008103041539,8.600162060830826,4.300081030415299,25.800486182492307,21.926197084118204,23.650445667284657,77.40145854747686,77.40145854747686,73.2277412717343
104,63,353,0,14.72304166666678,13.455739287350596,144.922747328436,17.020313499775625,34.30553859800911,38.53137347807693,46.99887680768185,38.53137347807693,102.21049002269821,68.08125399910239,61.69863643668657,63.82617562415851,55.31601887427075,21.275391874719503,42.550783749439006,8.510156749887756,8.510156749887756,21.27539187471956,21.696727665705666,19.147852687247564,68.08125399910244,72.33633237404638,72.83520954343558
105,63,354,0,14.764750000000111,12.497288209101384,142.18621501290596,16.663050945468513,33.326101890937025,41.86539736759008,41.86539736759008,37.49186462730427,99.97830567281119,66.65220378187416,60.403559677323415,62.486441045507036,49.98915283640565,18.745932313652133,43.74050873185479,6.248644104550635,6.248644104550749,20.828813681835697,21.24130548173374,20.828813681835697,62.48644104550698,70.81796651824124,66.78225698609003
106,63,355,0,14.806458333333447,12.497288209101384,142.18621501290596,16.663050945468513,33.326101890937025,41.86539736759008,41.86539736759008,37.49186462730427,99.97830567281119,66.65220378187416,60.403559677323415,62.486441045507036,49.98915283640565,18.745932313652133,43.74050873185479,6.248644104550635,6.248644104550749,20.828813681835697,21.24130548173374,20.828813681835697,62.48644104550698,70.81796651824124,66.78225698609003
107,63,356,0,14.84816666666678,6.017589546806102,144.922747328436,17.544137585175264,29.785548624607372,42.550783749439006,42.76300842630741,38.29570537449513,89.356645873822,59.57109724921463,57.44355806174269,63.82617562415851,55.31601887427075,21.275391874719503,29.785548624607372,0.0,4.255078374943878,21.696727665705676,21.69672766570562,21.275391874719503,63.826175624158566,68.08125399910244,68.21409559663769
108,63,357,0,14.889875000000115,0.0,136.366479919647,17.012614612804782,34.02522922560979,34.29002099522584,42.74366521218829,42.53153653201218,93.56938037042676,59.544151144816965,59.544151144816965,63.79730479801822,55.290997491615826,17.012614612804782,34.02522922560979,0.0,4.253153653201139,25.870923677293305,21.686913471981416,21.26576826600609,72.30361210442061,72.30361210442061,77.02788876282627
109,63,358,0,14.93158333333345,0.0,146.45548254346883,17.200324121661538,34.400648243323076,43.215279516415805,43.215279516415805,43.00081030415379,94.6017826691384,60.201134425815326,60.201134425815326,64.50121545623074,55.90105339539991,17.200324121661538,34.400648243323076,0.0,4.300081030415413,21.926197084118193,21.926197084118193,21.500405152076894,73.10137751706151,68.8012964866461,68.93554304646861
110,63,359,0,14.973291666666784,0.0,146.45548254346883,17.200324121661538,34.400648243323076,43.215279516415805,43.000810304153674,43.00081030415379,94.6017826691384,60.201134425815326,60.201134425815326,64.50121545623074,55.90105339539991,17.200324121661538,34.400648243323076,0.0,4.300081030415413,21.926197084118193,21.926197084118193,21.500405152076894,77.40145854747692,73.10137751706151,73.22774127173453
111,63,360,0,15.015000000000118,8.601653289127512,150.77449378750592,17.203306578255024,34.674372939223005,38.945641678888116,47.50418296154497,43.00826644563767,103.30940116921687,68.81322631302021,64.51239966845651,68.81322631302021,60.2115730238927,21.504133222818837,38.70743980107375,4.300826644563699,8.601653289127626,21.504133222818837,17.20330657825508,17.20330657825508,73.11405295758397,73.11405295758397,69.34874587844621
112,63,361,0,15.056708333333452,8.597678402922156,150.70481980329194,21.494196007305277,38.6895528131497,43.202799289882485,43.202799289882485,38.92764461615317,107.55692245732753,68.91563501386854,64.48258802191606,68.78142722337714,60.18374882045498,25.793035208766355,42.98839201461078,4.298839201461078,8.597678402922156,17.195356805844256,17.195356805844256,17.195356805844256,73.08026642483827,68.7814272233772,64.62572379853232
113,63,362,0,15.098416666666786,8.508712596230339,144.89815427783128,17.541160386140596,34.034850384921356,38.52483479429349,46.990901208426344,38.52483479429349,97.85019485664895,63.8153444717276,59.560988173612486,63.8153444717276,55.30663187549726,21.271781490575904,38.28920668303647,4.254356298115113,8.508712596230453,21.271781490575904,17.54116038614065,17.017425192460735,68.06970076984277,68.06970076984277,63.95699912876269
114,63,363,0,15.14012500000012,12.900243091246125,146.45548254346883,21.50040515207695,34.400648243323076,38.938889855610135,43.21527951641603,34.668361605778045,103.29149090276393,68.93554304646861,62.35117494102303,64.50121545623074,55.90105339540003,25.800486182492364,43.00081030415379,8.600162060830712,8.600162060830826,17.200324121661538,17.729688287117465,17.200324121661538,73.10137751706151,73.10137751706151,64.50121545623074
115,63,364,0,15.181833333333454,20.82881368183564,133.56451397218027,16.663050945468513,33.326101890937025,37.49186462730427,41.86539736758985,33.585452898849375,104.22735036443802,70.94038314637476,60.403559677323415,58.32067830913991,49.98915283640565,20.82881368183564,49.98915283640554,16.663050945468513,4.165762736367128,20.828813681835697,17.1758797733037,18.745932313652077,74.98372925460842,74.98372925460842,66.78225698609026
116,63,365,0,15.223541666666788,8.420586130034053,139.51262067381845,16.841172260068106,33.6823445201361,37.892637585153125,42.31292163188874,38.12582524815811,96.92822539108568,63.29458348620893,58.94410291023826,63.154395975255284,50.523516780204204,18.946318792576676,39.99778411766158,6.315439597525483,2.10514653250857,21.468366496466114,21.46836649646616,21.051465325085076,71.57498210528928,71.57498210528928,67.49613246094867
117,63,366,0,15.265250000000124,6.08263897794873,142.52078731854536,17.20430107526886,30.107526881720446,43.22527148869199,43.86253345026051,34.676377412036736,86.45054297738398,56.57181263641245,53.76344086021504,64.51612903225805,51.61290322580646,23.655913978494596,27.956989247311867,2.150537634408579,10.752688172042895,21.505376344086017,21.931266725130243,19.354838709677438,73.11827956989248,73.11827956989248,64.65933926181918
118,63,367,0,15.306958333333457,4.255078374943878,133.00098143038733,17.544137585175264,34.04062699955125,38.29570537449513,42.7630084263074,34.30553859800911,89.76097665314973,55.96681795498417,53.188479686798814,63.82617562415862,46.805862124383,21.275391874719617,34.04062699955114,1.1368683772161603e-13,4.2550783749439915,21.696727665705676,21.69672766570562,21.275391874719503,76.59141074899026,76.59141074899026,63.96785432373713
119,63,368,0,15.34866666666679,9.61694073668691,142.51254888463447,21.92999898521044,34.67437293922311,43.00826644563767,47.50418296154498,30.10578651194635,94.71588180392963,60.2115730238927,55.910746379328884,60.2115730238927,47.309093090201486,23.654546545100743,40.85785312335577,6.4512399668456055,6.4512399668456055,21.504133222818837,21.50413322281878,21.504133222818723,64.51239966845645,68.81322631302021,69.348745878446
120,63,369,0,15.390375000000123,12.902479933691325,142.96610213047538,17.203306578255024,34.40661315651005,43.222772845868555,47.50418296154497,34.40661315651016,98.91901282496656,64.51239966845651,58.061159701610904,64.51239966845651,47.309093090201486,21.504133222818837,43.00826644563756,8.601653289127512,8.601653289127512,21.504133222818837,17.73276253300716,19.353719900536873,64.51239966845645,68.81322631302021,69.348745878446
121,63,370,0,15.43208333333346,22.168340531347027,144.06141631814134,21.737846337174574,34.78055413947948,43.692530391928784,48.02047210604719,30.741957106814766,108.68923168587332,73.90867754639385,63.0397543778065,65.21353901152395,52.17083120921916,28.259200238327026,49.99704657550171,15.216492436022236,10.868923168587344,21.737846337174688,22.16834053134697,21.73784633717463,65.213539011524,73.90867754639385,65.79066122595326
122,63,371,0,15.473791666666791,22.168340531347027,144.06141631814134,21.737846337174574,34.78055413947948,43.692530391928784,48.02047210604719,30.741957106814766,108.68923168587332,73.90867754639385,63.0397543778065,65.21353901152395,52.17083120921916,28.259200238327026,49.99704657550171,15.216492436022236,10.868923168587344,21.737846337174688,22.16834053134697,21.73784633717463,65.213539011524,73.90867754639385,65.79066122595326
123,63,372,0,15.515500000000127,39.801487608399576,141.2675908996458,17.581356066578564,35.43635604334241,39.80148760839935,49.14138412687279,35.16271213315724,127.4648314826951,92.40671101974979,72.52309377463678,65.93008524966979,52.74406819973581,24.174364591545555,68.1277547579923,32.96504262483495,10.988347541611574,26.37203409986796,22.411919414726793,21.976695083223262,70.32542426631454,74.72076328295918,66.0764341206453
124,63,373,0,15.55720833333346,43.945431680670595,145.6179473907432,18.11916565827688,39.55088851260348,39.794280893017934,48.53931579691457,30.761802176469473,131.90951709433386,92.38997926157437,70.31269068907284,57.129061184871716,43.945431680670595,19.77544425630174,81.29904860924046,41.74816009663698,6.591814752100618,21.972715840335297,22.407861367299784,24.1699874243688,61.523604352938776,70.3126906890729,66.50150533051956
125,63,374,0,15.598916666666796,40.223815809094006,147.18973085831868,13.325932093055485,35.5358189148144,40.22381580909402,44.64132002356981,31.09384155046257,120.01561948743188,84.51438322415763,64.40867178310111,53.3037283722216,39.97779627916623,15.546920775231342,73.29262651180466,37.75680759699026,6.662966046527686,22.20988682175897,22.64972925976723,22.209886821759028,62.1876831009252,71.0716378296288,67.219314972259
126,63,375,0,15.64062500000013,40.223815809094006,147.18973085831868,13.325932093055485,35.5358189148144,40.22381580909402,44.64132002356981,31.09384155046257,120.01561948743188,84.51438322415763,64.40867178310111,53.3037283722216,39.97779627916623,15.546920775231342,73.29262651180466,37.75680759699026,6.662966046527686,22.20988682175897,22.64972925976723,22.209886821759028,62.1876831009252,71.0716378296288,67.219314972259
127,63,376,0,15.682333333333464,22.209886821759028,147.65816946746355,9.932563341205887,31.09384155046257,40.22381580909423,45.299458519534596,31.409523162103014,93.28152465138771,62.18768310092514,51.08273969004563,44.41977364351794,26.651864186110743,4.441977364351828,57.74570573657331,26.651864186110743,0.0,17.7679094574072,17.767909457407143,17.7679094574072,57.74570573657337,66.62966046527691,57.91629903507598
128,63,377,0,15.724041666666798,22.639959526754655,143.18767647714537,8.88012272414403,26.640368172432204,40.20646567052544,45.27991905350935,27.007838885436623,84.36116587936863,57.72079770693642,46.62064430175633,39.96055225864825,22.20030681036019,4.440061362072015,53.28073634486441,26.640368172432204,0.0,18.30684198004682,17.760245448288174,17.760245448288174,57.72079770693648,66.60092043108057,53.46541882703197
129,63,378,0,15.765750000000132,22.974850559852598,148.82313024549498,9.189940223940994,27.950112024934466,41.60922406212326,46.859684530626595,27.569820671823095,87.42526876953049,59.73461145561669,48.24718617569033,41.354731007734586,18.3798804478821,2.2974850559852484,57.43712639963144,29.867305727808343,2.2974850559852484,22.974850559852484,23.429842265313297,20.67736550386735,55.13964134364619,64.32958156758724,64.98269051047741
130,63,379,0,15.807458333333466,22.45915446243953,144.8571936680296,10.044039219036506,27.322740645261437,40.67525870686141,45.80786674510944,27.322740645261547,85.46291128640864,58.39380160234282,47.164224371123055,40.426478032391174,22.45915446243953,4.491830892487883,53.90197070985482,26.95098535492741,0.0,22.45915446243953,22.903933372554754,22.45915446243953,53.901970709854936,67.37746338731864,59.080811137294056
131,63,380,0,15.8491666666668,18.15254081558635,141.84848851109405,9.076270407793118,27.60439877568939,36.58761571044145,41.839539265530384,23.140039959991057,77.14829846624184,50.125341671844446,40.84321683506914,31.766946427276025,13.61440561168979,0.0,54.45762244675893,27.228811223379466,4.538135203896559,23.14003995999101,18.15254081558635,18.152540815586235,58.995757650655435,68.07202805844861,59.689849265099035
132,63,381,0,15.890875000000134,18.17126201774181,141.99478066136905,9.085631008870905,27.256893026612715,41.13694400416492,46.32780980753645,22.714077522177263,77.2278635754027,49.97097054878998,40.88533953991907,31.799708531048168,13.628446513306358,0.0,54.51378605322543,27.256893026612715,4.542815504435453,18.171262017741697,18.730508162480863,15.899854265524027,54.51378605322532,63.59941706209622,59.75140900740069
133,63,382,0,15.932583333333469,18.379880447881987,139.06903070845993,4.594970111970497,23.429842265313297,41.60922406212349,46.859684530626595,32.491345255238706,78.11449190349879,55.330767190016786,45.949701119705196,36.7597608957642,18.3798804478821,4.594970111970611,50.54467123167569,27.569820671823095,4.594970111970611,18.3798804478821,18.945547118210566,18.379880447881987,55.13964134364619,68.9245516795578,60.43739576680237
134,63,383,0,15.974291666666804,18.379880447881987,139.06903070845993,4.594970111970497,23.429842265313297,41.60922406212349,46.859684530626595,32.491345255238706,78.11449190349879,55.330767190016786,45.949701119705196,36.7597608957642,18.3798804478821,4.594970111970611,50.54467123167569,27.569820671823095,4.594970111970611,18.3798804478821,18.945547118210566,18.379880447881987,55.13964134364619,68.9245516795578,60.43739576680237
135,63,384,0,16.016000000000137,19.499149787053398,147.5378399883472,9.749574893526642,34.12351212734325,44.14307779699964,49.713272631326866,29.248724680579926,92.62096148850321,58.497449361159966,48.74787446763321,38.99829957410657,19.499149787053284,0.0,63.37223680792329,29.24872468058004,4.874787446763321,19.499149787053284,19.499149787053398,19.499149787053398,63.37223680792329,73.12181170144993,73.76891999417371
136,63,385,0,16.05770833333347,18.81181635606515,141.79231093936696,9.405908178032519,28.60695291438115,42.58706056302083,43.35909430429294,28.60695291438115,84.65317360229324,56.6310664626076,47.02954089016282,37.6236327121303,23.514770445081467,2.3514770445081012,54.08397202368735,30.569201578605885,2.3514770445081012,19.39077646144478,18.81181635606515,18.811816356065037,51.73249497917925,61.13840315721177,66.50981455904855
137,63,386,0,16.0994166666668,23.514770445081467,146.4726727020887,9.405908178032632,28.21772453409767,42.58706056302083,43.359094304293166,28.217724534097783,89.35612769130955,61.13840315721188,49.38101793467115,37.623632712130416,23.514770445081467,2.3514770445081012,58.78692611270367,30.569201578606,2.351477044508215,19.39077646144467,18.811816356065265,18.811816356065265,56.43544906819557,65.8413572462282,66.50981455904831
138,63,387,0,16.141125000000134,23.52778360072341,146.55373118792915,9.411113440289341,23.52778360072341,42.610628390260864,42.61062839026087,28.233340320868137,84.7000209626043,61.17223736188089,49.40834556151924,42.350010481302206,28.233340320868137,7.058335080217034,49.40834556151913,25.880561960795717,2.352778360072307,23.52778360072341,19.401507384491577,18.822226880578796,56.46668064173616,65.8777940820255,71.20799440124826
139,63,388,0,16.182833333333466,28.217724534097783,150.7881789928181,14.108862267048835,23.514770445081467,37.916428044064126,47.96090934285013,33.25490727952426,98.87394756062199,75.39408949640904,61.13840315721177,47.029540890162934,37.623632712130416,9.405908178032632,56.43544906819545,32.920678623113986,0.0,18.81181635606515,23.98045467142504,23.514770445081467,61.138403157211826,70.54431133524446,71.16860944557982
140,63,389,0,16.2245416666668,23.514770445081467,150.7881789928181,14.108862267048949,23.514770445081467,37.91642804406391,47.26410364645566,37.916428044063935,98.873947560622,75.39408949640905,63.489880201719984,56.43544906819557,47.029540890162934,14.108862267048949,47.029540890162934,23.514770445081467,4.702954089016316,23.514770445081467,18.81181635606515,21.163293400573252,56.43544906819551,65.84135724622809,71.16860944557982
141,63,390,0,16.26625000000013,19.264528656743323,139.99958580065476,14.448396492557436,24.080660820929097,43.34518947767242,48.401529224947254,43.34518947767242,101.13877544790228,77.05811462697318,67.42585029860152,57.793585970229856,48.161321641858194,9.632264328371548,48.16132164185831,24.08066082092921,1.1368683772161603e-13,24.557551885225333,24.557551885225333,24.080660820929097,62.60971813441569,67.42585029860152,68.11039424772876
142,63,391,0,16.307958333333463,19.264528656743323,139.99958580065476,14.448396492557436,24.080660820929097,43.34518947767242,48.401529224947254,43.34518947767242,101.13877544790228,77.05811462697318,67.42585029860152,57.793585970229856,48.161321641858194,9.632264328371548,48.16132164185831,24.08066082092921,1.1368683772161603e-13,24.557551885225333,24.557551885225333,24.080660820929097,62.60971813441569,67.42585029860152,68.11039424772876
143,63,392,0,16.349666666666796,14.108862267048835,146.09467807786916,9.405908178032632,28.217724534097783,42.58706056302083,42.58706056302083,42.32658680114662,94.05908178032587,65.84135724622809,58.78692611270367,56.43544906819557,47.029540890162934,9.405908178032632,42.32658680114662,14.108862267048835,4.702954089016316,18.811816356065265,14.108862267048949,16.46033931155705,65.84135724622809,70.54431133524434,75.2472654242606
144,63,393,0,16.391375000000128,4.697761756117643,141.24568958940378,14.093285268352929,28.186570536705744,37.87456611792007,42.540041988858036,42.27985580505856,89.25747336623488,61.07090282952913,58.72202195147031,61.07090282952913,51.675379317293846,14.093285268352929,32.88433229282339,4.697761756117643,4.697761756117643,18.791047024470515,14.093285268352872,14.093285268352872,70.46642634176436,70.46642634176436,75.310850067776
145,63,394,0,16.43308333333346,4.592849333116078,128.681770357781,13.778547999347893,32.149945331811864,36.74279466492794,41.335643998043906,36.74279466492794,87.26413732920378,55.11419199739191,52.81776733083393,55.11419199739191,50.521342664275835,16.07497266590599,34.446369998369846,2.296424666557982,2.296424666558096,18.37139733246397,14.52386484263196,13.778547999348007,64.2998906636239,64.2998906636239,73.62897598196605
146,63,395,0,16.474791666666793,6.495269816828902,133.27179419226263,13.778547999347893,32.149945331811864,41.335643998043906,41.335643998043906,36.74279466492794,87.38491819992075,55.305229630859344,52.81776733083393,55.11419199739191,50.521342664275835,16.07497266590599,34.446369998369846,2.296424666557982,2.296424666558096,18.37139733246397,14.52386484263196,13.778547999348007,64.2998906636239,64.2998906636239,73.62897598196605
147,63,396,0,16.516500000000125,0.0,138.15509508603634,18.3798804478821,27.569820671823095,36.759760895763975,41.609224062123495,36.7597608957642,82.7094620154694,55.1396413436463,55.1396413436463,59.7346114556168,50.54467123167569,18.3798804478821,27.569820671823095,0.0,4.594970111970611,18.379880447882044,18.379880447882044,18.379880447882044,64.32958156758724,64.32958156758724,69.07754754301806
148,63,397,0,16.558208333333457,0.0,144.3979795646852,13.945006294017048,32.53834801937319,42.09246758202513,42.092467582025144,41.835018882051145,88.31837319544138,55.78002517606819,55.78002517606819,60.428360607407285,51.131689744729215,13.945006294017048,32.53834801937319,0.0,4.648335431338978,13.945006294017048,13.945006294017048,16.269174009686537,60.428360607407285,65.07669603874632,69.8798042054113
149,63,398,0,16.59991666666679,4.702954089016316,146.0946780778694,14.108862267048835,37.6236327121303,37.6236327121303,47.029540890162934,37.623632712130416,94.05908178032587,56.43544906819557,54.083972023687465,56.43544906819557,47.029540890162934,14.108862267048835,42.32658680114662,4.702954089016316,0.0,18.81181635606515,18.811816356065208,18.811816356065208,70.5443113352444,70.5443113352444,70.70090267406272
150,63,399,0,16.641625000000122,9.29667086267807,144.3979795646852,18.59334172535614,32.538348019373075,42.092467582024916,46.48335431339024,32.538348019373075,92.96670862678036,60.428360607407285,55.78002517606819,55.78002517606819,46.48335431339012,18.593341725356026,41.83501888205126,4.648335431339092,4.648335431338978,18.593341725356083,14.69932729149247,16.269174009686594,65.07669603874632,65.07669603874632,69.72503147008524
151,63,400,0,16.683333333333454,18.599622199011037,148.86961463697747,9.299811099505519,27.89943329851667,42.106685608973784,46.73097242497511,37.19924439802219,92.99811099505541,65.09867769653874,55.798866597033225,55.798866597033225,51.14896104728052,16.274669424134686,39.52419717289854,11.62476387438187,11.624763874381983,18.599622199011094,18.599622199011094,18.599622199011094,65.0986776965388,65.0986776965388,69.90340826087453
152,63,401,0,16.725041666666787,18.584559740987174,144.10525624894908,9.292279870493644,32.52297954672781,41.81525941722134,46.69312846755334,37.169119481974576,97.5689386401832,65.0459590934554,55.75367922296175,55.753679222961864,51.107539287714985,16.261489773363905,44.138329384844724,11.615349838116913,6.969209902870261,19.156525704423085,18.584559740987288,18.584559740987288,65.04595909345545,65.04595909345545,69.84679866195985
153,63,402,0,16.76675000000012,18.36050770948384,137.78028869779453,13.770380782112852,32.13088849159658,41.311142346338556,46.13020470523578,36.72101541896757,100.98279240216084,68.85190391056426,59.6716500558224,55.08152312845141,50.49139620108042,16.06544424579829,48.19633273739498,16.065444245798403,2.2950634636854375,18.360507709483784,18.360507709483784,18.360507709483784,64.26177698319322,64.26177698319322,69.00473851351768
154,63,403,0,16.80845833333345,18.36050770948384,137.7038078211283,13.770380782112852,32.13088849159658,41.311142346338556,46.13020470523578,36.72101541896757,100.98279240216084,68.85190391056426,59.6716500558224,55.08152312845141,55.08152312845141,18.36050770948384,45.90126927370943,13.770380782112852,4.590126927370989,23.405146772532117,18.360507709483784,18.360507709483784,64.26177698319322,64.26177698319322,73.44203083793514
155,63,404,0,16.850166666666784,4.5868061076919275,133.01737712306453,18.347224430767483,36.9800130816819,41.28125496922689,41.28125496922689,32.10764275384315,91.85072072713072,55.04167329230256,52.7482702384566,50.454867184610634,50.454867184610634,18.347224430767483,41.28125496922689,4.5868061076919275,0.0,23.38821384818743,22.93403053845941,22.93403053845941,73.38889772306999,64.21528550768625,68.80209161537823
156,63,405,0,16.891875000000116,4.5311417976035955,131.40311213050632,18.682376236171034,36.249134380829446,36.249134380829446,40.78027617843304,36.24913438082933,95.26180098851813,59.078861010504134,56.63927247004585,54.373701571244055,54.373701571244055,18.124567190414723,40.78027617843304,4.5311417976035955,4.531141797603709,18.124567190414723,18.124567190414666,18.124567190414666,67.96712696405507,63.43598516645136,72.6397289327795
157,63,406,0,16.93358333333345,17.90533795026886,134.36461948954346,18.456399907834758,31.334341412970502,40.287010388105045,40.53493279204801,35.8106759005376,103.05295888827892,71.76110091308509,62.66868282594089,53.71601385080646,58.19234833837368,20.14350519405241,47.00151211945581,11.190836218918093,2.2381672437835505,22.381672437836016,17.9053379502688,17.9053379502688,67.14501731350816,58.19234833837373,71.76110091308519
158,63,407,0,16.97529166666678,13.441634602157478,134.4910010376173,18.473759748550787,36.123307573680705,35.84435893908676,40.573059402883615,35.844358939086646,103.44141081073111,67.35735892800867,60.487355709708595,53.76653840862991,58.2470832760157,20.16245190323616,47.04572110755123,11.201362168464584,2.240272433692894,17.922179469543266,18.473759748550844,17.922179469543323,67.20817301078739,58.24708327601576,71.8285984363119
159,63,408,0,17.017000000000113,13.549162565314305,140.08083919449513,18.621542798485343,31.614712652400158,40.89762844271844,45.389132850585334,31.614712652400044,94.9516101026795,63.39051964309901,56.45484402214311,49.6802627394859,54.19665026125733,20.323743847971514,42.9056814568288,11.290968804428644,2.2581937608856606,18.065550087085796,22.58193760885723,22.58193760885723,67.74581282657175,58.713037783028824,67.74581282657164
160,63,409,0,17.058708333333445,13.398833421802237,143.19976012667277,18.414935152715557,31.263944650871736,40.44386567872229,44.88553645240988,31.26394465087185,93.89811368524224,62.68719628427168,55.82847259084258,49.12905587994146,58.06161149447621,22.331389036336986,40.1965002654066,4.4662778072673746,4.4662778072673746,22.773637692382827,22.331389036337043,22.331389036337043,66.99416710901107,53.595333687208836,71.59988006333639
161,63,410,0,17.100416666666778,17.621829345468996,132.45709163977293,13.931279317619188,31.151287567733164,39.649116027305354,44.054573363672716,39.649116027305354,101.70788054315307,70.62485374169565,61.67640270914171,48.460030700039965,57.27094537277446,13.21637200910186,48.46003070003985,13.216372009101747,0.0,18.164165926994425,22.0272866818363,22.0272866818363,70.48731738187627,52.86548803640716,66.08186004550907
162,63,411,0,17.14212500000011,13.931279317619008,132.45709163977293,18.164165926994535,35.243658690938105,35.24365869093822,39.89311289043855,35.243658690938105,101.70788054315307,66.66666666666664,59.473674040958144,48.460030700039965,57.27094537277446,17.62182934546911,48.46003070003985,13.216372009101747,0.0,18.164165926994425,22.0272866818363,22.0272866818363,66.08186004550896,52.86548803640716,66.22854581988646
163,63,412,0,17.183833333333443,4.439787849806294,133.48929320647332,13.319363549418767,31.394040956276616,35.51830279845012,39.95809064825653,40.93282146223781,89.78915249559141,58.39629178443378,55.4973481225785,44.39787849806282,53.2774541976753,8.879575699612474,39.95809064825653,4.439787849806294,4.439787849806294,22.638564882374354,22.638564882374368,22.19893924903141,75.47639344670665,57.71724204748159,62.15702989728766
164,63,413,0,17.225541666666775,4.489001392432442,134.74483769196786,18.508626894543244,31.742033253447538,35.91201113945863,40.401012531890956,40.64963649410988,95.22609976034272,63.48406650689518,60.60151879783655,53.86801670918794,58.35701810162027,15.71150487351315,38.156511835674905,6.733502088648606,2.244500696216164,22.88950569655768,22.445006962161642,22.445006962161642,71.82402227891737,53.868016709188055,58.3570181016205
165,63,414,0,17.267250000000107,9.850902076092376,128.0617269892008,17.621829345468996,31.151287567733196,30.838201354570856,35.51793254492577,39.89311289043856,97.81702710100228,66.66666666666664,61.67640270914171,48.46003070003985,57.27094537277435,13.216372009101747,44.054573363672716,8.810914672734611,4.405457336367249,22.46351292443713,17.621829345469052,19.824558013652677,66.08186004550896,52.86548803640716,61.83354029556108
166,63,415,0,17.30895833333344,9.850902076092376,128.0617269892008,17.621829345468996,31.151287567733196,30.838201354570856,35.51793254492577,39.89311289043856,97.81702710100228,66.66666666666664,61.67640270914171,48.46003070003985,57.27094537277435,13.216372009101747,44.054573363672716,8.810914672734611,4.405457336367249,22.46351292443713,17.621829345469052,19.824558013652677,66.08186004550896,52.86548803640716,61.83354029556108
167,63,416,0,17.350666666666772,27.006175175274894,133.26761141518946,18.305714260085185,35.79471399290231,35.51830279845012,39.95809064825653,35.79471399290242,116.7925835688674,81.01852552582471,66.59681774709406,53.2774541976753,57.71724204748159,19.97904532412815,59.93713597238468,24.41883317393456,2.21989392490309,22.638564882374368,22.198939249031355,22.198939249031355,71.03660559690036,53.2774541976753,62.31539201355953
168,63,417,0,17.392375000000104,27.051203565436662,128.96852367491647,18.33623605143619,35.85439583740422,40.02471424393957,44.47190471548856,31.13033330084204,111.9773948581093,76.12363893981176,62.260666601683965,48.91909518703733,48.91909518703733,17.78876188619529,62.260666601683965,26.68314282929316,4.447190471548765,22.676310995091445,17.788761886195402,20.012357121969842,71.15504754478155,57.81347613013503,62.26066660168385
169,63,418,0,17.434083333333437,31.742033253447538,130.25841396263223,13.467004177297099,31.74203325344765,35.91201113945863,40.649636494109885,37.01725378908649,113.65243760829469,81.91658840503182,65.09052019026888,49.379015316755726,53.868016709188055,15.711504873513263,60.60151879783655,24.689507658377806,2.244500696216164,22.889505696557627,22.445006962161642,22.445006962161642,71.82402227891737,58.357018101620326,63.00613700067738
170,63,419,0,17.47579166666677,23.145999280192807,131.718054368975,18.15721569097036,36.59703822301357,36.31443138194072,41.10514527949218,37.43205908049666,114.9259959540917,78.36053516089494,65.8199068797677,49.93234315016866,54.471647072911196,15.887563729599037,61.28060295702517,24.96617157508433,2.26965196137121,23.145999280192765,22.696519613713008,22.696519613713008,77.16816668662432,63.55025491839649,63.712166658309606
171,63,420,0,17.5175000000001,22.59823197480148,124.17169710088257,18.273100766909053,35.730942066608634,35.73094206660865,39.88690124268783,35.73094206660875,112.20618669629647,76.50607475611832,64.26222977988584,48.750657074396145,53.18253499025036,15.511572705489698,59.83035186403151,19.9434506213438,2.215938957927051,22.59823197480148,18.273100766909106,19.943450621343914,66.47816873781284,57.61441290610446,57.78461833720227
172,63,421,0,17.559208333333434,27.745827601367097,127.80023423280957,18.245543838455205,32.2538694365202,41.052473636524155,41.05247363652393,33.20739103340955,110.9833104054685,78.7417302198993,63.85940343459299,45.6138595961379,50.175245555751644,15.964850858648333,61.57871045478612,25.087622777875822,2.2806929798068722,23.258596017098856,22.80692979806895,22.80692979806895,68.42078939420679,59.29801747497925,63.859403434593105
173,63,422,0,17.600916666666766,17.96799000134484,122.02057519743698,17.431510742491014,30.814848630853778,30.505143799359303,35.13433313704939,35.13433313704928,101.08021904652053,70.26866627409866,61.01028759871838,47.9366545418502,47.9366545418502,13.073633056868289,52.29453222747293,21.78938842811374,0.0,22.22090335684095,21.78938842811374,21.78938842811374,65.36816528434122,56.65240991309571,61.010287598718605
174,63,423,0,17.6426250000001,17.96799000134484,122.02057519743698,17.431510742491014,30.814848630853778,30.505143799359303,35.13433313704939,35.13433313704928,101.08021904652053,70.26866627409866,61.01028759871838,47.9366545418502,47.9366545418502,13.073633056868289,52.29453222747293,21.78938842811374,0.0,22.22090335684095,21.78938842811374,21.78938842811374,65.36816528434122,56.65240991309571,61.010287598718605
175,63,424,0,17.68433333333343,19.208915005323774,139.2646337885974,19.208915005323774,33.956885148751134,33.61560125931646,38.716805959519974,33.956885148751276,106.08470049113339,72.19332809550183,62.42897376730241,52.824516264640465,52.824516264640465,19.208915005323774,52.82451626464035,14.406686253992802,4.802228751330972,19.800096380115523,24.011143756654747,24.011143756654747,67.23120251863327,62.428973767302296,57.82649169814707
176,63,425,0,17.726041666666763,4.810556321894637,144.3968433368089,19.242225287578776,34.01576996491548,38.48445057515755,43.561440223458156,35.02137865196639,92.53289840194533,58.5229434894204,55.3213977017889,48.10556321894683,43.29500689705219,12.026390804736707,45.70028505799951,12.026390804736707,2.4052781609473186,24.529120556578114,19.834431833154547,19.242225287578663,67.34778850652555,62.53723218463085,62.721980688117334
177,63,426,0,17.767750000000095,4.526787302125854,131.3548566314004,13.580361906377789,36.496126001464226,36.214298417007285,40.99180245918019,40.99180245918032,95.49268275117412,59.02208533572027,56.584841276574025,54.321447625511155,49.79466032338519,11.316968255314805,43.004479370196236,6.7901809531888375,2.2633936510629837,23.082176787424178,18.664422191370004,18.1071492085037,63.375022229762976,58.84823492763701,54.32144762551093
178,63,427,0,17.809458333333428,4.526787302125854,131.3548566314004,13.580361906377789,36.496126001464226,36.214298417007285,40.99180245918019,40.99180245918032,95.49268275117412,59.02208533572027,56.584841276574025,54.321447625511155,49.79466032338519,11.316968255314805,43.004479370196236,6.7901809531888375,2.2633936510629837,23.082176787424178,18.664422191370004,18.1071492085037,63.375022229762976,58.84823492763701,54.32144762551093
179,63,428,0,17.85116666666676,13.158242782839125,136.03923360279325,18.084274947055842,30.70256649329133,35.08864742090441,39.4747283485176,35.08864742090441,96.59341262856348,65.93725452433587,59.21209252277629,48.24689020374365,43.86080927613057,10.965202319032755,50.439930667550016,19.737364174258687,2.193040463806483,21.930404638065284,22.3647122380961,21.930404638065284,61.40513298658277,61.40513298658277,70.17729484180904
180,63,429,0,17.892875000000092,17.555937225237813,136.12928515889377,18.096245884091992,30.72289014416606,35.385122730704126,39.74394325887287,35.111874450475625,101.04200669892799,70.36077098031876,61.44578028833223,52.667811675713324,48.27882736940387,15.361445072082915,50.473319522558654,19.750429378392596,2.1944921531546697,21.94492153154721,21.94492153154721,21.944921531547152,65.83476459464163,65.83476459464163,65.9809018767771
181,63,430,0,17.934583333333425,4.4898496809460084,139.47470703313232,17.959398723783693,31.428947766621377,35.918797447567385,40.65731807330859,35.918797447567385,89.79699361891846,58.36804585229709,56.12312101182408,53.87819617135108,44.89849680945929,13.469549042837798,40.40864712851328,8.979699361891903,4.489849680945895,22.449248404729587,22.449248404729587,22.449248404729587,62.857895533242925,62.857895533242925,67.49724094800303
182,63,431,0,17.976291666666757,4.4898496809460084,139.47470703313232,17.959398723783693,31.428947766621377,35.918797447567385,40.65731807330859,35.918797447567385,89.79699361891846,58.36804585229709,56.12312101182408,53.87819617135108,44.89849680945929,13.469549042837798,40.40864712851328,8.979699361891903,4.489849680945895,22.449248404729587,22.449248404729587,22.449248404729587,62.857895533242925,62.857895533242925,67.49724094800303
183,63,432,0,18.01800000000009,4.544281070658826,141.16558817016258,18.17712428263542,31.809967494611783,41.150215270763134,41.15021527076312,36.35424856527061,90.88562141317664,59.07565391856485,56.80351338323544,54.53137284790603,45.44281070658826,13.632843211976592,40.898529635929435,9.088562141317652,1.1368683772161603e-13,22.72140535329413,23.171377854539667,22.72140535329413,59.0756539185648,63.61993498922362,68.3155241618439
184,63,433,0,18.059708333333425,4.545454545454504,146.09235163625638,18.181818181818244,36.363636363636374,41.16084153698834,45.68125282327681,36.363636363636374,95.4545454545455,59.09090909090912,56.81818181818187,59.09090909090912,45.454545454545496,15.909090909090992,43.18181818181813,6.818181818181756,2.2727272727273657,18.741389207353,22.727272727272748,20.454545454545496,59.09090909090912,68.18181818181819,63.798494761901004
185,63,434,0,18.10141666666676,13.47974295124152,148.88862731534795,17.972990601655283,35.945981203310794,40.68808799552823,45.156580021552685,36.22572068457331,103.4423291376081,67.54832363009896,60.65884328058689,58.412219455379955,44.932476504138435,15.726366776448344,51.67234797975925,15.726366776448458,2.246623825206825,17.97299060165534,14.208896666507757,13.47974295124152,58.412219455379955,67.39871475620765,63.06573607154728
186,63,435,0,18.143125000000087,13.482295046739637,148.91681613147557,17.976393395652963,35.952786791305925,40.69579139807683,45.16512943566278,36.23257923514137,103.46191368780812,67.56111243276888,60.67032771032859,58.42327853587199,44.94098348913235,15.729344221196357,51.68213101250217,15.729344221196243,2.247049174456606,18.529642184483162,14.211586811367903,13.482295046739694,58.42327853587199,67.41147523369847,63.07767619397379
187,63,436,0,18.18483333333342,0.0,152.67338609383737,18.936802922984864,32.149945331811864,41.59001959280312,46.15756454436392,41.59001959280299,92.3151290887275,60.40950127612216,59.70704133050799,59.70704133050799,41.33564399804402,9.185698666232042,41.33564399804379,9.185698666231929,4.592849333115851,18.37139733246397,18.37139733246397,16.07497266590599,59.70704133050788,73.48558932985588,69.50242214660742
188,63,437,0,18.22654166666675,0.0,157.62871346410765,14.50475448587788,32.433617027368015,41.535295859110946,42.288262826847806,41.53529585911096,88.22897709787314,55.80090465122235,55.04167329230256,59.62847939999449,36.69444886153508,6.880209161537891,38.98785191538093,6.880209161537778,2.2934030538459638,22.934030538459297,23.38821384818743,20.64062748461339,55.041673292302505,73.38889772306999,69.41097155154296
189,63,438,0,18.268250000000084,0.0,158.59923442572097,19.49616923574081,33.43565439628428,38.99233847148134,43.59475971195637,42.81852981185527,95.6283097024388,62.19391230483006,61.470702688258484,66.19921827966289,37.82812473123602,9.457031182809033,42.55664032264042,9.457031182809033,0.0,18.91406236561795,14.952879220456301,14.185546774213435,52.013671505449395,80.38476505387638,76.97465699833418
190,63,439,0,18.309958333333416,0.0,158.59923442572097,19.49616923574081,33.43565439628428,38.99233847148134,43.59475971195637,42.81852981185527,95.6283097024388,62.19391230483006,61.470702688258484,66.19921827966289,37.82812473123602,9.457031182809033,42.55664032264042,9.457031182809033,0.0,18.91406236561795,14.952879220456301,14.185546774213435,52.013671505449395,80.38476505387638,76.97465699833418
191,63,440,0,18.35166666666675,6.492274731611897,153.22318549499929,18.928070824074467,32.46137365805973,41.57084169005732,41.57084169005732,41.570841690057335,98.13863014675276,65.72927199543234,61.97487508865993,64.27024083268441,41.31658339243995,11.476828720122171,43.61194913646443,6.886097232073325,2.2953657440244797,13.77219446414665,14.517167628488531,13.77219446414665,50.4980463685377,78.042435296831,64.92274731611944
192,63,441,0,18.39337500000008,0.0,162.6873817846819,19.593612946910376,28.906194865861337,43.03254090302167,43.03254090302145,47.75850801914296,96.10626910449494,67.20553796450177,66.53008827918484,66.53008827918484,47.521491627989235,9.504298325597802,38.01719330239132,9.504298325597802,0.0,19.59361294691054,15.027615135306794,14.256447488396816,47.52149162798918,76.0343866047827,63.40157771268226
193,63,442,0,18.435083333333413,4.697113923010193,161.41951660804403,19.366696840130473,33.213611069662655,42.534175610565065,47.20541070448765,42.53417561056495,99.64083320898796,66.42722213932531,63.41103796063783,65.75959492214292,42.27402530709185,11.742784807525481,44.62258226859706,11.742784807525595,2.34855696150521,18.788455692040884,16.93568509610919,14.091341769030578,46.9711392301021,75.15382276816337,62.66731603173278
194,63,443,0,18.476791666666745,6.642722213932508,156.13930165829052,14.85357842600099,33.213611069662655,42.534175610565065,42.53417561056484,47.205410704487875,100.41282685504632,67.25243666348418,63.41103796063783,65.75959492214292,46.97113923010215,9.394227846020385,42.27402530709185,9.394227846020385,0.0,18.788455692040884,14.85357842600106,14.091341769030578,51.66825315311229,79.85093669117356,62.66731603173278
195,63,444,0,18.51850000000008,14.683472545294293,158.9617302807245,13.92996516110395,27.8599303222079,41.78989548331174,46.66480575854745,32.833242757029915,88.7105369084023,61.07336188224384,53.398199784231906,51.076538924047895,32.50325204257592,9.28664344073593,46.433217203679874,18.573286881471972,4.6433217203680215,18.57328688147186,14.683472545294293,13.92996516110395,46.433217203679874,69.64982580551981,61.07336188224383
196,63,445,0,18.56020833333341,9.319351849968712,163.68666219864795,14.73518908120242,28.343702119827398,41.93708332485903,46.82916348082409,37.56750833076523,89.63065601999747,61.28846785959831,55.91611109981204,51.25643517482774,37.27740739987473,6.989513887476505,44.26692128735124,16.308865737445217,6.989513887476505,14.73518908120242,14.73518908120235,13.97902777495301,51.2564351748278,74.55481479974952,56.68740423965484
197,63,446,0,18.601916666666742,9.319351849968712,159.04450754631117,13.97902777495301,32.94888444688129,46.82916348082409,46.596759249843444,38.42467203971626,94.23611360770556,61.28846785959831,55.91611109981204,51.25643517482774,37.27740739987473,6.989513887476505,48.92659721233565,16.308865737445217,2.3298379624922063,13.97902777495301,14.73518908120242,11.649189812460804,51.2564351748278,69.89513887476517,65.89776889376239
198,63,447,0,18.643625000000075,9.319351849968712,159.04450754631117,13.97902777495301,32.94888444688129,46.82916348082409,46.596759249843444,38.42467203971626,94.23611360770556,61.28846785959831,55.91611109981204,51.25643517482774,37.27740739987473,6.989513887476505,48.92659721233565,16.308865737445217,2.3298379624922063,13.97902777495301,14.73518908120242,11.649189812460804,51.2564351748278,69.89513887476517,65.89776889376239
199,63,448,0,18.685333333333407,13.893505339424678,157.52781787616345,13.893505339424678,32.74730613319569,46.54266686753225,46.31168446474885,37.33767369126792,97.69460540343556,65.00154669225998,57.88960558093618,46.311684464748964,41.680516018274034,6.946752669712396,53.258437134461246,16.209089562662143,2.3155842232374653,9.262336892949747,9.262336892949747,11.577921116187213,50.94285291122384,60.20518980417364,60.38304895031551
200,63,449,0,18.72704166666674,6.486723405473591,151.64233500124064,13.760418323075669,32.10764275384315,41.53529585911096,45.86806107691882,36.694448861534966,87.26993799459544,55.23245956035383,52.7482702384566,45.86806107691871,36.694448861534966,4.5868061076919275,45.86806107691871,13.760418323075555,4.586806107691814,9.173612215383741,9.173612215383741,9.173612215383741,50.454867184610634,59.628479399994376,59.80463481892614
201,63,450,0,18.76875000000007,4.700680325812414,155.1936568380716,14.86485638190958,32.904762280686896,42.56647076149657,51.92071122498743,37.60544260649931,89.43654275643554,56.60368672793835,54.0578237468427,42.30612293231172,37.60544260649931,2.3503401629062637,49.35714342103029,16.45238114034339,7.051020488718564,9.401360651624827,9.401360651624827,9.401360651624827,51.70748358393661,61.108844235561435,56.60368672793836
202,63,451,0,18.810458333333404,4.700680325812414,155.1936568380716,14.86485638190958,32.904762280686896,42.56647076149657,51.92071122498743,37.60544260649931,89.43654275643554,56.60368672793835,54.0578237468427,42.30612293231172,37.60544260649931,2.3503401629062637,49.35714342103029,16.45238114034339,7.051020488718564,9.401360651624827,9.401360651624827,9.401360651624827,51.70748358393661,61.108844235561435,56.60368672793836
203,63,452,0,18.852166666666736,13.48229504673975,152.865419258079,13.482295046739637,26.964590093479387,40.69579139807683,49.43508183804556,36.23257923514137,89.99424930433916,63.07767619397379,56.17622936141527,40.446885140219024,35.95278679130581,2.247049174456606,51.68213101250217,20.22344257010957,6.741147523369818,13.48229504673975,14.211586811367956,13.48229504673975,49.435081838045505,53.92918018695872,54.11611031483297
204,63,453,0,18.89387500000007,10.049743719100116,152.8750683298422,13.48314606741576,31.4606741573034,40.449438202247165,49.43820224719093,35.95505617977528,89.99992986292489,58.59957218159681,53.932584269662925,40.449438202247165,35.95505617977528,2.247191011235941,51.685393258426984,15.7303370786517,6.741573033707937,14.21248386592532,13.48314606741576,13.48314606741576,49.438202247190986,53.93258426966287,58.599572181596926
205,63,454,0,18.9355833333334,13.475492677463762,152.78829240187878,13.475492677463649,31.442816247415294,44.91830892487906,53.90197070985482,35.93464713990329,94.328448742246,62.8856324948307,56.14788615609882,44.91830892487906,40.426478032391174,6.737746338731881,51.656055263610824,20.21323901619553,2.2459154462438846,13.475492677463762,14.20441648456877,13.475492677463649,53.90197070985482,53.90197070985482,53.90197070985482
206,63,455,0,18.977291666666734,13.47974295124152,153.03450055337672,13.47974295124152,31.452733552896916,44.93247650413832,53.91897180496608,35.945981203310794,94.35820065869075,62.90546710579383,56.165595630173016,44.932476504138435,35.945981203310794,4.493247650413764,53.91897180496619,17.972990601655397,4.493247650413878,13.47974295124152,14.208896666507757,13.47974295124152,53.91897180496619,53.91897180496619,54.105866548394516
207,63,456,0,19.019000000000062,4.540766091864953,154.65292035133345,10.15346165133619,31.78536264305501,41.118385784032675,45.63413444784642,40.86689482678503,86.39396695240475,54.678064355365464,52.21881005644752,36.32612873491996,27.244596551190057,9.081532183730019,54.48919310238,22.70383045932499,13.622298275594972,14.359163172354727,13.622298275595085,13.622298275595085,54.48919310238,54.48919310238,54.67806435536535
208,63,457,0,19.0607083333334,9.06985175165039,154.4540097605285,13.604777627475528,31.744481130776308,45.5754410030458,50.089893484673226,32.06676838974321,86.28284926403866,54.607738841561336,49.88418463407686,36.279407006601446,27.209555254951056,1.1368683772161603e-13,54.41911050990211,22.674629379125804,9.069851751650276,13.604777627475528,13.604777627475528,13.604777627475528,49.88418463407697,49.88418463407697,54.607738841561336
209,63,458,0,19.10241666666673,10.026983827409333,152.5288485560185,8.968406978951407,31.70810695628627,44.84203489475658,49.529646415789564,35.87362791580529,85.19986630003768,53.99696042907167,49.3262383842324,35.87362791580529,31.389424426329697,2.242101744737738,51.568340128970135,20.178915702640438,11.210508723689145,13.452610468426997,13.452610468426997,13.452610468426997,53.810441873708044,53.810441873708044,53.81044187370799
210,63,459,0,19.144125000000063,8.974612513694069,152.8321439801739,8.974612513694069,31.411143797929185,45.09686975519014,49.56391760155856,36.17781963825356,85.37682422221702,54.03432269582999,49.36036882531732,35.898450054776276,26.923837541082207,4.487306256847091,53.847675082164415,22.43653128423523,8.974612513694069,13.461918770541047,13.461918770541047,13.461918770541047,53.84767508216436,53.84767508216436,58.33498133901139
211,63,460,0,19.185833333333395,0.0,154.45280866042157,13.622298275594972,31.78536264305501,41.11838578403266,45.63413444784642,31.78536264305501,77.19302356170499,45.40766091864998,45.40766091864998,31.78536264305501,27.244596551190057,2.2703830459324763,47.67804396458246,15.892681321527448,11.351915229662495,9.081532183730019,9.081532183730019,9.081532183730019,49.94842701051499,49.94842701051499,54.48919310238011
212,63,461,0,19.227541666666728,4.4898496809460084,152.7209020802855,13.469549042837798,31.42894776662149,40.65731807330859,44.898496809459175,31.74803155905112,80.94191621888086,49.592010638950796,47.14342164993218,31.428947766621377,26.939098085675482,2.2449248404730042,51.6332713308783,15.714473883310802,11.224624202364907,13.469549042837798,13.469549042837798,11.224624202364794,49.38834649040524,49.38834649040524,49.38834649040518
213,63,462,0,19.26925000000006,10.16132138285866,159.04983747305914,13.632843211976478,31.809967494611783,40.898529635929435,45.44281070658826,31.809967494611783,86.46084398496016,54.72039030495377,49.98709177724709,27.265686423952957,27.265686423952957,4.544281070658826,59.07565391856474,22.72140535329413,13.632843211976478,10.16132138285866,9.088562141317652,9.088562141317652,54.53137284790603,54.53137284790603,59.07565391856474
214,63,463,0,19.310958333333392,9.090322183061744,159.14555583052518,13.63548327459273,32.13914229406764,40.906449823778075,45.45161091530895,31.81612764071633,86.47758752395819,54.541933098370805,49.99677200683993,31.81612764071633,27.27096654918546,2.272580545765436,56.814513644136355,20.453224911889038,11.36290272882718,10.163289169350275,9.090322183061858,9.090322183061858,54.54193309837092,54.54193309837092,54.54193309837092
215,63,464,0,19.352666666666725,22.725805457654587,163.62579929511276,13.635483274592616,31.81612764071633,45.451610915309175,49.99677200684005,31.816127640716445,99.99354401367998,68.17741637296365,56.814513644136355,31.816127640716445,31.816127640716445,0.0,68.17741637296353,31.81612764071633,9.090322183061744,13.63548327459273,10.163289169350174,9.090322183061744,54.54193309837092,54.54193309837092,54.730987159516275
216,63,465,0,19.394375000000057,22.916941634124843,161.79775280898866,13.48314606741576,31.4606741573034,49.43820224719116,49.43820224719116,31.460674157303288,98.97849683391114,67.5653769814512,56.17977528089875,31.460674157303288,31.460674157303288,0.0,67.41573033707868,31.4606741573034,8.988764044943878,13.483146067415646,13.483146067415646,13.483146067415646,53.932584269662925,53.932584269662925,53.93258426966304
217,63,466,0,19.43608333333339,18.177124282635305,159.04983747305914,13.632843211976478,31.809967494611783,45.44281070658826,49.98709177724709,31.809967494611783,95.42990248383535,63.619934989223566,54.531372847905914,31.809967494611783,31.809967494611783,0.0,63.619934989223566,31.809967494611783,9.088562141317652,14.370278511270557,13.632843211976592,13.632843211976592,54.53137284790603,54.53137284790603,49.98709177724709
218,63,467,0,19.47779166666672,18.389589841294537,156.31151365100345,13.79219238097096,32.18178222226538,45.97397460323623,50.57137206355992,32.1817822222655,96.54534666679638,64.363564444531,55.168769523883725,32.1817822222655,32.1817822222655,0.0,64.36356444453088,32.1817822222655,9.194794920647269,18.389589841294537,14.538247283696345,16.09089111113269,50.57137206355998,50.57137206355998,50.57137206355992
219,63,468,0,19.51950000000005,8.97969936189179,157.14473883310734,13.469549042837798,31.42894776662149,44.8984968094594,49.38834649040518,26.939098085675596,80.81729425702667,49.38834649040518,44.89849680945929,26.939098085675596,26.939098085675596,0.0,53.87819617135108,22.449248404729587,13.469549042837798,13.469549042837798,8.97969936189179,8.97969936189179,53.87819617135119,53.87819617135119,54.06494957767085
220,63,469,0,19.561208333333383,13.622298275594972,158.92681321527493,13.622298275594972,31.78536264305501,45.40766091864998,49.94842701051493,27.244596551190057,86.27455574543501,54.48919310238,47.67804396458246,31.78536264305501,31.78536264305501,4.540766091864953,54.48919310238,22.70383045932499,9.081532183730019,9.081532183730019,9.081532183730019,6.811149137797543,54.48919310238,49.94842701051499,59.029959194245066
221,63,470,0,19.60291666666672,18.17126201774181,154.4557271508054,9.085631008870905,31.799708531048168,45.428155044354526,45.428155044354526,31.799708531048054,90.85631008870894,59.05660155766077,49.970970548789865,31.799708531048054,31.799708531048054,0.0,59.05660155766088,22.714077522177263,9.085631008870905,9.085631008870905,13.628446513306244,11.357038761088575,54.51378605322543,49.97097054878998,49.970970548789865
222,63,471,0,19.64462500000005,18.17126201774181,154.4557271508054,9.085631008870905,31.799708531048168,45.428155044354526,45.428155044354526,31.799708531048054,90.85631008870894,59.05660155766077,49.970970548789865,31.799708531048054,31.799708531048054,0.0,59.05660155766088,22.714077522177263,9.085631008870905,9.085631008870905,13.628446513306244,11.357038761088575,54.51378605322543,49.97097054878998,49.970970548789865
223,63,472,0,19.686333333333383,9.292279870493644,157.96875779839183,14.692384523247114,32.5229795467277,42.072586519340746,46.461399352468106,37.169119481974576,93.03887969798438,60.57825328153826,55.75367922296175,37.169119481974576,37.169119481974576,0.0,55.75367922296175,23.230699676234053,13.93841980574041,9.292279870493644,9.292279870493644,9.292279870493644,51.107539287714985,55.75367922296181,55.753679222961864
224,63,473,0,19.72804166666672,10.269923319261974,156.1568773259437,9.185698666231929,27.5570959986959,41.335643998043906,45.92849333115987,36.74279466492794,82.79876885515144,55.305229630859344,50.521342664275835,36.74279466492794,36.74279466492794,0.0,45.92849333115987,13.778547999347893,9.185698666231929,9.185698666231929,9.185698666232042,9.185698666232042,50.52134266427595,55.11419199739197,55.11419199739203
225,63,474,0,19.769750000000048,10.158044277157721,163.60444065311572,13.628446513306358,31.799708531048168,45.428155044354526,45.4281550443543,36.34252403548351,90.96980958341604,59.23106752581487,54.51378605322532,40.88533953991896,36.34252403548351,2.2714077522176694,52.24237830100776,15.89985426552414,6.814223256653236,9.085631008870791,4.542815504435453,4.542815504435453,49.97097054878998,54.51378605322543,59.05660155766077
226,63,475,0,19.81145833333338,10.158044277157721,163.60444065311572,13.628446513306358,31.799708531048168,45.428155044354526,45.4281550443543,36.34252403548351,90.96980958341604,59.23106752581487,54.51378605322532,40.88533953991896,36.34252403548351,2.2714077522176694,52.24237830100776,15.89985426552414,6.814223256653236,9.085631008870791,4.542815504435453,4.542815504435453,49.97097054878998,54.51378605322543,59.05660155766077
227,63,476,0,19.85316666666672,8.988196697826538,161.8499465576276,8.988196697826424,31.4586884423926,45.16512943566276,49.43508183804556,35.95278679130581,85.38786862935137,53.929180186958774,49.43508183804545,40.446885140219024,35.95278679130581,2.247049174456606,47.188032663588956,11.235245872283144,2.247049174456606,17.976393395652963,14.21158681136803,15.729344221196357,53.92918018695872,58.42327853587193,58.42327853587199
228,63,477,0,19.894875000000045,13.47974295124152,157.52021551702495,8.986495300827642,31.452733552896916,44.93247650413832,49.4257241545522,35.945981203310794,89.86495300827687,58.412219455379955,51.67234797975925,49.42572415455231,40.43922885372467,8.986495300827755,44.93247650413832,8.986495300827642,1.1368683772161603e-13,18.526134664714686,18.526134664714572,17.972990601655283,53.918971804966134,58.41221945538001,63.06573607154728
229,63,478,0,19.936583333333378,13.482295046739637,157.55003853622821,13.48229504673975,31.458688442392713,45.16512943566276,54.11611031483298,31.4586884423926,89.8819669782647,58.42327853587199,51.68213101250217,49.43508183804556,40.44688514021914,13.48229504673975,44.94098348913235,13.482295046739637,4.494098348913212,22.470491744566175,17.976393395652906,20.223442570109512,53.929180186958774,58.42327853587199,63.077676193973794
230,63,479,0,19.97829166666671,13.48314606741576,157.5599833074885,13.48314606741576,31.460674157303288,45.16798031964439,49.64207198735839,31.460674157303288,89.8876404494381,58.42696629213481,51.685393258426984,49.43820224719093,40.449438202247165,13.48314606741576,44.94382022471905,13.48314606741576,4.494382022471882,18.530811800528806,18.530811800528806,15.7303370786517,49.438202247190986,58.42696629213481,63.081657742104326
231,63,480,0,20.02000000000004,26.73096252049637,150.44492453000092,13.183629504201235,31.074112743572282,39.79428089301772,44.815722734599476,30.76180217646936,101.07449286554231,70.44988631355804,57.129061184871716,52.734518016804714,35.156345344536476,13.183629504201235,57.129061184871716,26.367259008402357,4.394543168067116,17.57817267226818,18.11916565827688,17.57817267226818,57.129061184871716,65.91814752100578,57.297832782059224
232,63,481,0,20.06170833333337,31.778074178358107,144.93031694056575,13.48229504673975,31.4586884423926,40.69579139807683,45.83099035422739,31.778074178358107,107.85836037391755,76.39967193152495,60.67032771032859,53.929180186958774,35.95278679130581,13.48229504673975,62.9173768847852,31.4586884423926,4.494098348913212,17.97639339565285,22.91549517711374,22.470491744566175,53.929180186958774,67.41147523369847,68.00804859031285
233,63,482,0,20.103416666666707,18.324913891633962,138.42143557686614,17.77777777777783,31.426968052735518,40.24615616949963,40.24615616949963,31.111111111111086,97.77777777777783,66.81465057054622,57.77777777777783,53.33333333333337,40.0,15.555555555555657,51.111111111111086,19.999999999999886,2.2222222222222854,22.22222222222223,17.77777777777777,20.0,48.88888888888886,66.66666666666663,67.25664866854032
234,63,483,0,20.14512500000004,18.324913891633962,138.42143557686614,17.77777777777783,31.426968052735518,40.24615616949963,40.24615616949963,31.111111111111086,97.77777777777783,66.81465057054622,57.77777777777783,53.33333333333337,40.0,15.555555555555657,51.111111111111086,19.999999999999886,2.2222222222222854,22.22222222222223,17.77777777777777,20.0,48.88888888888886,66.66666666666663,67.25664866854032
235,63,484,0,20.18683333333337,4.441977364351828,143.86795990691965,13.325932093055371,31.409523162103046,35.812366423512074,40.95300778893004,31.09384155046257,80.07888575810397,48.86175100786977,46.6407623256938,57.74570573657331,35.535818914814286,15.546920775231229,33.31483023263854,2.220988682175971,6.662966046527686,17.7679094574072,18.314741859825137,17.7679094574072,48.86175100786977,66.62966046527691,62.81904632420605
236,63,485,0,20.228541666666704,4.865042554105116,147.9644927820873,19.460170216420806,34.05529787873638,44.853476114194684,44.85347611419466,34.401045807689066,92.5637474245619,58.5828700451069,55.947989372209804,63.245553203367535,38.9203404328415,17.02764893936819,41.352861709894114,12.162606385262961,7.297563831157845,24.325212770526036,24.80694691784174,24.325212770525923,53.51546809515719,77.84068086568317,68.2841262189912
237,63,486,0,20.27025000000004,4.393217713906893,143.03280600859517,13.179653141720678,35.4192535539083,39.78227839511462,40.50346602393133,30.75252399734825,83.58666760438702,48.32539485297582,46.12878599602243,57.111830280789604,30.75252399734825,13.179653141720678,39.538959425162034,8.786435427813785,4.393217713906893,17.572870855627514,18.113700670772694,17.57287085562757,43.932177139068926,61.5050479946965,57.78375728134027
238,63,487,0,20.31195833333337,8.786435427813785,137.94983441613962,13.179653141720678,31.064740367324273,39.78227839511462,40.50346602393133,30.75252399734825,83.58666760438702,52.71861256688271,48.32539485297582,57.111830280789604,35.14574171125514,15.376261998674181,37.34235056820853,6.589826570860282,6.589826570860396,17.572870855627514,22.401102850672697,21.966088569534406,43.932177139068926,65.89826570860339,67.2033085520183
239,63,488,0,20.3536666666667,13.179653141720678,141.67701421563314,13.179653141720678,35.14574171125514,44.15129160126933,44.80220570134546,30.75252399734825,92.25757199204475,57.111830280789604,50.52200370992932,57.111830280789604,39.538959425162034,17.57287085562757,43.932177139068926,8.786435427813785,8.786435427813785,21.966088569534406,22.401102850672707,19.769479712581017,48.32539485297582,65.89826570860339,66.48144756944488
240,63,489,0,20.39537500000004,13.179653141720678,150.9759165641608,13.179653141720678,31.064740367324273,44.15129160126933,44.80220570134546,30.75252399734825,87.97411616262995,57.111830280789604,50.52200370992932,61.5050479946965,39.538959425162034,19.769479712581074,37.34235056820853,6.589826570860282,10.983044284767288,21.966088569534406,22.401102850672707,21.966088569534463,48.32539485297582,65.89826570860339,70.83850710781657
241,63,490,0,20.43708333333337,18.106057989097007,150.91221556280482,13.886712563677651,35.40430917092316,44.13266292492057,49.096943110824554,30.73954863930817,96.70976224027655,61.47909727861634,52.696369095956925,61.47909727861634,39.52227682196758,19.76113841098379,46.10932295896225,15.369774319654084,10.978410228324378,17.565456365318937,18.106057989097007,19.761138410983847,48.305005004627105,65.87046136994604,67.1749535789427
242,63,491,0,20.47879166666669,18.106057989097007,150.91221556280482,13.886712563677651,35.40430917092316,44.13266292492057,49.096943110824554,30.73954863930817,96.70976224027655,61.47909727861634,52.696369095956925,61.47909727861634,39.52227682196758,19.76113841098379,46.10932295896225,10.978410228324378,10.978410228324378,21.9568204566487,18.106057989097007,19.761138410983847,48.305005004627105,65.87046136994604,66.45339716989648
243,63,492,0,20.52050000000003,31.766946427276025,155.3607240038704,18.152540815586235,31.766946427276025,45.607694350990734,50.73789403498798,31.766946427276025,113.45338009741431,81.68643367013829,65.80296045650027,58.99575765065549,40.84321683506914,18.15254081558635,63.53389285455194,31.76694642727591,4.5381352038966725,22.69067601948285,23.140039959991057,22.69067601948285,54.457622446758876,72.61016326234522,68.67444712923127
244,63,493,0,20.562208333333363,21.707096097090243,152.50683366654712,17.365676877672286,30.389934535926386,43.41419219418049,47.95254260542779,30.389934535926386,99.8526420466153,69.46270751068892,58.60915946214379,52.09703063301674,39.07277297476253,15.194967267963307,54.26774024272561,23.877805706799222,2.1707096097090925,21.7070960970903,22.13698131649947,21.7070960970903,43.41419219418054,60.77986907185277,61.396939400482296
245,63,494,0,20.60391666666669,27.540761564225704,161.24352163224975,13.770380782112852,32.45709876850962,45.90126927370943,50.699609027524716,37.006786385870214,110.54489504919702,78.16704491484246,64.26177698319327,59.67165005582228,45.90126927370943,16.06544424579829,57.376586592136846,20.655571173169278,2.2950634636854375,22.950634636854716,23.405146772532117,25.245698100540153,50.49139620108036,68.85190391056409,64.91419753701926
246,63,495,0,20.645625000000027,27.540761564225704,161.24352163224975,13.770380782112852,32.45709876850962,45.90126927370943,50.699609027524716,37.006786385870214,110.54489504919702,78.16704491484246,64.26177698319327,59.67165005582228,45.90126927370943,16.06544424579829,57.376586592136846,20.655571173169278,2.2950634636854375,22.950634636854716,23.405146772532117,25.245698100540153,50.49139620108036,68.85190391056409,64.91419753701926
247,63,496,0,20.68733333333336,13.604777627475528,154.25415544810372,13.604777627475528,31.744481130776308,45.349258758251835,49.88418463407697,36.56174128033114,95.34135667725273,63.65071784157713,56.686573447814794,49.88418463407697,45.349258758251835,11.337314689562959,47.616721696164404,11.337314689562959,2.267462937912569,18.139703503300666,23.123675533529497,20.407166441213235,49.88418463407703,58.95403638572736,59.1281993541904
248,63,497,0,20.72904166666669,13.622298275594972,154.45280866042157,9.081532183730019,31.78536264305501,45.40766091865021,49.94842701051516,36.608826607349904,90.92877012867491,59.20434645509785,52.21881005644741,45.40766091864998,40.866894826784915,6.811149137797543,47.67804396458246,15.892681321527448,2.2703830459324763,18.163064367459924,18.722058217982525,20.433447413392514,49.94842701051505,63.57072528611002,55.240803684890096
249,63,498,0,20.770750000000024,14.659786326009074,162.32031445950426,10.366034321866865,32.78027876057839,41.72248332142249,46.35831480158049,37.086651841264484,92.83245304570063,60.26580924205473,53.312062021817724,46.358314801580605,41.72248332142249,6.953747220237005,48.67623054165972,11.589578700395236,2.3179157400791155,18.543325920632242,19.114022855255133,20.861241660711244,50.99414628173861,64.90164072221279,60.44384747112111
250,63,499,0,20.81245833333336,14.659786326009074,162.32031445950426,10.366034321866865,32.78027876057839,41.72248332142249,46.35831480158049,37.086651841264484,92.83245304570063,60.26580924205473,53.312062021817724,46.358314801580605,41.72248332142249,6.953747220237005,48.67623054165972,11.589578700395236,2.3179157400791155,18.543325920632242,19.114022855255133,20.861241660711244,50.99414628173861,64.90164072221279,60.44384747112111
251,63,500,0,20.85416666666669,9.380010804606172,164.41797097000648,14.831099309772062,33.163346237700544,47.13397095553106,51.59005942533395,32.8300378161216,89.60242739946128,56.47514362687942,51.59005942533395,46.90005402303086,37.52004321842469,9.380010804606172,46.90005402303086,14.070016206909258,0.0,18.760021609212345,18.760021609212345,18.760021609212345,51.59005942533395,65.6600756322432,65.82736272026648
252,63,501,0,20.89587500000002,18.163064367460038,154.98586566748932,9.081532183730019,27.62040184244508,45.63413444784642,45.63413444784642,36.608826607349876,91.26826889569287,63.732689179910636,54.48919310238,49.94842701051493,36.32612873491996,6.811149137797429,47.67804396458257,15.892681321527562,2.2703830459323626,23.153454909080065,23.153454909080118,22.70383045932499,49.94842701051499,63.57072528611002,68.26268244387258
253,63,502,0,20.93758333333336,17.972990601655397,153.36396164634377,13.47974295124152,31.452733552896916,45.156580021552685,49.4257241545522,36.2257206845732,98.95351488075354,67.54832363009896,58.412219455379955,53.91897180496608,40.43922885372456,11.233119126034694,51.67234797975914,20.219614426862222,2.246623825206939,22.466238252069218,22.466238252069274,20.219614426862336,53.918971804966134,62.90546710579383,58.584781779498144
254,63,503,0,20.97929166666669,17.972990601655397,157.84031382625182,14.208896666507757,31.452733552896916,49.629542438449235,49.4257241545522,35.94598120331068,98.95351488075354,67.54832363009896,58.412219455379955,53.91897180496608,40.43922885372456,11.233119126034694,51.67234797975914,20.219614426862222,2.246623825206939,22.466238252069218,22.911157448865183,20.219614426862336,49.425724154552256,58.412219455379955,67.54832363009885
255,63,504,0,21.02100000000002,8.880560416567395,119.21139403126284,16.374944313243642,32.01931593678939,23.829044123686344,27.800551477633917,44.40280208283672,101.2539674807825,69.35939411536462,63.54411766316298,55.601102955267606,59.57261030921529,13.900275738816845,41.70082721645076,9.928768384869272,1.9857536769739,20.250793496156522,19.857536769738488,19.857536769738488,71.48713237105835,59.57261030921529,56.16559563017324
256,63,505,0,21.06270833333335,9.162174167027553,122.99173741005448,16.89421441167411,28.973338686962993,28.682141962832475,32.77959081466565,45.25780181795723,99.6952333829781,70.73293401118046,65.5591816293313,57.36428392566495,61.46173277749813,14.341070981416237,38.925764092415534,6.146173277749767,2.048724425916589,20.48724425916606,16.389795407332826,16.389795407332826,73.75407933299778,61.461732777498185,53.89352528046716
257,63,506,0,21.104416666666683,9.328090347096795,121.04971948655897,21.27131875372875,29.498011716656805,29.201541762915667,33.37319058618914,41.924551808895544,101.50059660708652,72.01382411458714,66.74638117237839,54.23143470255752,58.40308352583111,14.600770881457834,43.80231264437327,10.42912205818402,2.085824411636736,21.271318753728703,21.271318753728703,20.85824411636827,75.08967881892579,58.403083525831164,54.86947353052201
258,63,507,0,21.146125000000016,12.387998127306401,109.75794304636287,19.97504677755695,35.47382810379535,23.828790173400645,31.33943178575123,39.95009355511381,107.56891892736492,72.23382115375769,64.63757805811179,54.84400562506448,58.76143459828347,17.628430379485053,48.96786216523617,9.793572433047188,1.9587144866094377,16.151973437436414,15.669715892875558,15.669715892875558,74.43115049115903,58.76143459828347,51.52573345928388
259,63,508,0,21.187833333333348,16.445619088164488,107.9885608899683,16.445619088164435,36.118748390328776,27.92053953260188,31.909188037259355,40.676393116221746,109.52454034532268,73.54704442640775,63.81837607451871,55.84107906520387,63.81837607451871,19.943242523287154,47.86378205588892,7.977297009314725,3.9886485046574762,20.338196558110873,19.943242523287097,19.943242523287097,71.79567308383355,59.82972756986129,59.96253511966884
260,63,509,0,21.22954166666668,16.174483827756454,118.2736258524293,20.002885239610123,35.523266627196406,27.73901091870611,31.62733856606555,39.42454195080976,110.95604367482471,75.45826779045449,66.6891052616844,54.9204396272695,66.6891052616844,21.575886996427357,49.03610681006205,9.807221362012342,1.9614442724025594,16.1744838277564,19.614442724024798,19.614442724024798,74.53488235129436,62.766216716879455,51.597542911929665
261,63,510,0,21.271250000000013,16.018856812672524,121.00210508070626,19.810422261745916,35.181470251491774,27.472112789737768,35.181470251491774,35.819252754971494,106.68238877842815,71.63850550994287,62.16229519086494,50.506864842577784,62.16229519086494,21.368288971859783,48.564293117863144,13.59800207300168,1.9425717247145258,15.540573797716206,15.540573797716206,17.483145522430732,77.70286898858114,66.04743864029393,54.944225579475535
262,63,511,0,21.312958333333345,12.543561621219913,131.43833157933304,15.866489877491858,35.91929415776178,31.97993273827731,35.69960222435657,36.57045220168083,100.42685962986462,64.57193555138025,57.516025805907816,47.59946963247546,59.49933704059424,17.849801112178284,45.61615839778892,5.94993370405939,1.9833112346864255,20.225885374388266,19.833112346864766,19.833112346864766,79.33244938745906,67.43258197934017,56.09651293001081
263,63,512,0,21.35466666666668,7.705856147408667,115.65203985129939,15.886029415790775,38.72144791785404,30.823424589635124,34.67635266333946,35.522241666269394,97.54834744407687,58.93846629686424,53.94099303186135,46.23513688445257,50.08806495815702,13.485248257965395,48.16160092130474,9.632320184260834,1.9264640368522805,15.411712294817562,19.264640368521896,19.264640368521896,69.35270532667892,61.646849179270134,54.0784225362062
264,63,513,0,21.39637500000001,7.780201964507796,120.84384408942043,16.039297244151836,35.226362620555825,31.120807858031412,35.01090884028531,35.22636262055571,94.08899035752097,58.86790988593359,54.46141375155457,50.571312769300675,58.35151473380847,19.45050491126949,38.901009822539095,0.0,3.890100982253898,16.03929724415189,19.450504911269547,19.450504911269547,73.91191866282423,66.13171669831638,58.86790988593382
265,63,514,0,21.438083333333346,3.898961430628674,113.13708498984771,19.88088041752105,35.30659739308543,27.292730014400377,35.30659739308532,31.434432004402986,90.4357359000908,55.13964134364631,52.6359793134867,50.68649859817231,54.58546002880098,21.444287868457536,37.04013359097189,1.9494807153143938,5.848442145943068,15.595845722514525,19.494807153143142,19.494807153143142,74.08026718194407,62.38338289005816,59.001992800195104
266,63,515,0,21.479791666666674,11.940446282519815,111.51521673904608,15.920595043359867,36.04177993648626,31.841190086719507,36.04177993648626,32.08898518646278,95.8546754826346,59.83475595172069,53.732008271339396,55.722082651759365,59.7022314125993,25.870966945459713,37.81141322797964,1.9900743804199692,9.950371902099846,16.410573746614364,15.92059504335981,15.92059504335981,75.62282645595917,63.6823801734393,64.17797037292578
267,63,516,0,21.521500000000007,16.195526603578358,106.3463528736527,20.028908711788322,39.47583272503085,27.77509898151538,31.423937340731527,35.56948189712753,110.26399460070247,70.8128858493591,62.84787468146283,58.91988251387136,66.77586684905418,27.495945173140058,47.13590601109706,3.9279921675913556,7.855984335182939,16.195526603578358,19.63996083795712,19.63996083795712,74.63185118423706,62.84787468146277,59.44130756740682
268,63,517,0,21.56320833333334,5.547802183741132,117.75201966845722,20.00288523961019,35.305996903244704,31.383108358439813,35.305996903244704,39.228885448049596,98.3855441743913,63.254677132130844,60.80477244447695,58.84332817207451,62.7662167168794,21.575886996427357,37.26744117564715,1.9614442724024457,1.9614442724024457,16.1744838277564,19.614442724024798,19.614442724024798,74.5348823512943,58.84332817207445,58.97394615337708
269,63,518,0,21.60491666666667,3.9174289732188754,117.78374159124952,16.15197343743647,35.473828103795235,35.256860758970106,35.256860758970106,43.09171870540786,98.24861881561048,62.80116390939915,60.72014908489291,58.76143459828347,66.59629254472122,19.58714486609449,35.25686075896999,0.0,3.9174289732188754,19.975046777556848,15.669715892875558,17.628430379484996,78.34857946437785,62.67886357150229,58.89187079562465
270,63,519,0,21.646625000000004,11.783976502774294,113.97947674301446,20.028908711788322,35.35192950832277,31.66848528842011,35.35192950832288,35.569481897127616,102.42950394631676,67.23639552591489,60.88387859766715,62.84787468146283,58.91988251387147,25.531949089344266,41.243917759709916,1.9639960837956778,9.819980418978616,20.028908711788322,19.63996083795712,19.63996083795712,74.63185118423712,58.919882513871414,55.55019796303078
271,63,520,0,21.688333333333336,23.596413290046144,114.11711654288277,16.215084063431398,35.61243503667193,31.461884386728116,31.461884386728116,31.461884386728116,106.47477503476912,70.89839836191764,58.99103322511519,66.85650432179727,62.92376877345623,33.42825216089864,41.29372325758072,5.899103322511564,17.69730996753458,21.178429070692893,15.730942193364058,17.69730996753458,78.65471096682035,62.92376877345629,59.51308794323636
272,63,521,0,21.73004166666667,11.223288793245956,108.49179166804379,14.964385057661161,30.16168234491305,33.66986637973764,33.66986637973764,29.928770115322436,86.12650386263067,56.11644396622955,50.504799569606575,52.375347701814235,52.375347701814235,22.4465775864918,33.669866379737755,0.0,7.4821925288306375,20.146419943231596,14.964385057661218,14.964385057661218,78.56302155272135,63.598636495060134,60.90063492115531
273,63,522,0,21.77175,5.235584154850454,111.06351178102909,18.510585296838144,33.524095799042726,29.616936474941213,29.616936474941213,33.319053534308864,89.15878542427174,55.65502298090416,53.68069736083089,55.53175589051466,55.53175589051466,22.212702356205796,33.31905353430875,0.0,7.404234118735303,18.87716712732036,15.264219674173846,14.80846823747055,77.74445824672051,59.23387294988231,59.694843893989955
274,63,523,0,21.813458333333333,14.55929847710388,120.16934863934888,15.00738136399857,36.57978470641725,36.57978470641715,40.20317695914941,32.758421573483815,98.54451252561535,61.98397974586167,54.597369289139806,54.59736928913969,58.237193908415634,23.658860025293848,41.85798312167378,5.459736928914026,9.099561548189854,18.55953675974368,14.55929847710388,16.379210786741908,76.43631700479557,58.23719390841569,58.69040847841124
275,63,524,0,21.855166666666666,15.283214398017435,126.08651878364344,15.753576815496531,38.39860094774969,34.387232395539286,38.208035995043474,30.56642879603487,99.6343680627828,61.25214133006495,53.49125039306091,57.312053992565325,57.312053992565325,26.745625196530455,42.028839594547776,3.820803599504302,11.462410798513133,15.753576815496587,15.283214398017435,13.372812598265284,76.416071990087,57.31205399256527,61.25214133006483
276,63,525,0,21.896875,18.76714384561126,123.86314938103419,15.475783273323099,33.988743092966956,37.53428769122229,37.721492282415504,30.0274301529779,97.87744743767418,63.918588706366265,54.42471715227248,52.54800276771141,52.54800276771141,22.52057261473351,45.041145229466906,11.260286307366755,7.506857538244503,11.260286307366755,11.260286307366698,11.260286307366698,78.82200415156717,63.808289075078164,64.24835145580185
277,63,526,0,21.93858333333333,16.27814734106071,138.18107239291885,19.740153198988423,35.75093798053509,39.48030639797685,43.60742372348225,31.584245118381432,102.95204337113118,67.23253914963031,59.220459596965156,59.220459596965156,59.220459596965156,27.636214478583724,43.428337037774554,7.896061279595415,11.844091919393009,12.484769093892456,11.844091919393065,11.844091919393065,78.96061279595358,63.168490236762864,71.50187596107017
278,63,527,0,21.980291666666663,15.951282238473805,139.3288738184356,19.343771039195985,35.033059356773705,38.68754207839197,42.73178691234622,30.950033662713622,100.88476694753275,65.88251016009728,58.03131311758807,54.162558909748896,58.03131311758807,25.14690235095486,44.49067339015073,9.671885519597936,9.67188551959805,12.234075004132288,11.606262623517637,11.606262623517637,77.375084156784,65.76882153326642,65.88251016009728
