,video_id,frame_seq,gap,time_seconds,m1,m3,m4,m5,m6,m7,m8,m9,m10,m11,m12,m13,m14,m15,m16,m17,e1,e2,e3,b1,b2,b3,label_measures
0,68,218,1,7.273933333333343,15.70271767770646,163.0194542554766,16.5521177720474,31.83863423793477,47.398052095690176,47.39805209569007,31.83863423793433,95.51590271380388,63.6772684758691,54.95951187197216,68.04510993672784,52.34239225902138,28.788315742462142,34.02255496836369,2.617119612950773,13.085598064755686,21.58132119814564,21.58132119814564,20.93695690360846,41.87391380721692,57.57663148492338,52.34239225902138,{}
1,68,219,0,7.3073000000000095,16.60766433725235,152.39285462583268,15.755413776380465,26.2590229606335,42.01443673701414,42.3414022654239,31.945480189436694,89.89641417680646,63.89096037887385,55.143948217330944,57.76985051339443,52.51804592126791,23.63312066457047,34.13672984882396,2.6259022960634866,7.877706888190005,21.007218368506983,21.007218368506983,21.007218368506983,47.26624132914094,52.51804592126791,52.77998293730557,{}
2,68,220,0,7.340666666666676,10.93328838546222,164.363364688878,17.28704680676326,27.333220963656004,43.73315354184945,49.19979773458067,33.2522984620176,88.14698900007669,61.11894011875703,54.66644192731201,65.59973031277423,54.66644192731201,27.333220963656004,27.333220963656004,0.0,10.93328838546222,21.86657677092489,16.399932578193784,16.399932578193784,43.73315354184933,49.19979773458044,54.93909420187115,{}
3,68,221,0,7.374033333333343,8.06068354975805,160.0,17.09929199709859,28.49881999516356,45.95296646467522,45.59811199226215,36.04847272474672,87.18962356182527,59.50728317835618,54.14775799081144,62.69740398936074,51.297875991295314,22.7990559961313,28.49881999516356,0.0,11.399527998065878,18.024236362373163,17.099291997098135,17.099291997098135,45.59811199226215,45.59811199226215,45.95296646467506,{}
4,68,222,0,7.40740000000001,5.872202195147111,158.65816648727366,17.616606585441332,29.3610109757351,41.105415366029206,47.34320764739987,37.13906763541039,88.8625439886681,59.884947161634535,55.785920853897096,58.72202195147065,52.84981975632354,20.552707683014887,32.297112073308654,2.936101097573556,8.808303292720666,17.616606585440877,17.616606585440877,20.552707683014432,46.97761756117643,52.84981975632354,47.34320764739998,{}
5,68,223,0,7.440766666666676,8.666010722624028,153.3173806108477,18.38338484340875,30.63897473901443,42.894564634620224,49.02235958242318,31.24574601414219,86.66010722624155,56.49547794644328,52.08625705632448,61.27794947802886,55.15015453022579,27.575077265112668,27.575077265113123,3.0638974739013065,9.19169242170392,18.38338484340875,19.3777890695298,18.38338484340875,49.02235958242318,55.150154530226246,43.33005361312085,{}
6,68,224,0,7.474133333333343,6.222713912870404,155.69225235809554,18.668141738611663,31.11356956435293,43.55899739009385,44.001232051746506,33.51033996845649,88.0024641034926,57.37058756472463,52.89306825939957,62.2271391287054,56.004425215834544,28.0022126079175,28.0022126079175,3.1113569564354293,9.334070869305831,18.668141738611663,18.668141738611663,18.668141738611663,43.55899739009374,49.78171130296414,49.78171130296437,{}
7,68,225,0,7.50750000000001,6.421612990679478,154.2524373648264,19.26483897203798,32.108064953396934,44.95129093475544,45.40766091865017,34.58144428244395,90.81532183729983,59.2043464550976,54.58371042077442,64.21612990679341,57.794516916113935,28.897258458056967,28.897258458057426,3.2108064953395115,9.63241948601899,20.3069233026723,12.8432259813585,16.054032476698012,44.95129093475544,51.37290392543491,44.95129093475566,{}
8,68,226,0,7.540866666666677,6.755446134894555,155.5220492893981,20.26633840468321,34.44615166485185,47.768217719243246,47.2881229442612,34.44615166485185,95.53643543848648,61.17316653141111,57.42129214660281,67.55446134894464,60.79901521405009,30.399507607025043,30.399507607025043,3.3777230674472776,16.888615337236388,13.51089226978911,13.51089226978911,13.51089226978911,47.28812294426098,54.04356907915553,47.2881229442612,{}
9,68,227,0,7.574233333333344,6.871067372240759,158.1838500667923,20.613202116723187,27.484269488963943,48.097471605686906,48.09747160568668,30.728347444622987,83.59014231004379,56.6602730729691,51.53300529180706,61.83960635016865,54.96853897792744,30.91980317508433,24.048735802843566,3.43553368612038,10.30660105836114,15.364173722311698,13.742134744481971,17.177668430602807,41.22640423344592,48.09747160568668,54.96853897792767,{}
10,68,228,0,7.60760000000001,13.95797126907246,146.72477055794502,13.95797126907246,27.915942538144463,41.87391380721692,41.87391380721692,31.210972585634924,84.90302463449255,57.550189861722274,48.85289944175338,55.83188507628984,48.85289944175338,24.426449720876462,31.40543535541292,3.489492817268001,10.468478451804003,20.93695690360846,13.957971269072004,13.957971269072004,41.87391380721692,48.85289944175338,48.85289944175315,{}
11,68,229,0,7.640966666666677,14.26525903242964,149.95494818940276,21.397888548644914,28.53051806485973,42.7957770972896,49.92840661350465,22.555354977384223,85.88823291498767,57.5050975828468,49.92840661350465,57.06103612971947,49.92840661350465,32.09683282296692,32.09683282296737,3.5663147581071826,10.698944274322002,22.5553549773838,21.397888548644914,21.397888548644914,42.795777097289374,42.795777097289374,49.92840661350442,{}
12,68,230,0,7.674333333333344,7.37585684485839,147.7014182143711,14.75171368971769,37.60963798140261,44.2551410691533,44.86558564475133,30.41143685078853,89.73117128950254,52.15518392060905,47.94306949158226,59.006854758871214,51.63099791401192,25.81549895700573,33.19135580186503,3.68792842242965,11.06378526728804,23.32450732509715,14.75171368971769,18.43964211214734,44.25514106915307,51.63099791401192,44.86558564475148,{}
13,68,231,0,7.707700000000011,15.05153389413772,150.70336567170213,15.05153389413772,30.10306778827453,45.154601682412704,45.77745319738676,33.65625295293396,91.55490639477364,62.05906407309407,52.68036862948247,67.73190252361928,60.20613557655088,33.86595126180964,26.340184314740327,3.7628834735342025,18.81441736767192,23.798564692349007,15.05153389413772,15.05153389413772,37.62883473534384,45.154601682412704,52.680368629481336,{}
14,68,232,0,7.741066666666677,7.656992531540709,122.7509283036739,15.313985063081418,22.970977594621218,38.28496265770309,38.28496265770309,41.23416670934468,85.60777901866521,63.14117796421576,57.42744398655577,76.56992531540618,68.91293278386638,34.456466391932736,11.485488797310609,11.485488797310609,19.14248132885132,22.970977594622127,15.313985063081418,15.313985063081418,45.9419551892438,45.9419551892438,45.9419551892438,{}
15,68,299,1,9.976633333333298,48.650425541052,181.80520464105456,11.045510132580604,19.881918238645028,42.03103256414072,46.39114255683848,37.61965193129392,117.0824074053542,97.20048916670916,72.90036687503189,44.182040530322325,59.64575471593517,14.359163172354783,65.16850978222544,40.86838749054817,3.313653039774181,22.528508681446088,22.091020265161177,19.881918238645056,81.73677498109635,41.97293850380623,75.62747137706991,{}
16,68,366,1,12.212199999999912,14.149420288798156,141.7436786083872,13.726953974581647,31.0757137533309,34.48854502534982,41.32360364091387,42.44826086639447,100.9887815099921,69.99400617858221,61.77129288561764,51.47607740468152,34.317384936454346,1.715869246822649,56.62368514514969,25.73803870234088,8.5793462341137,6.863476987291051,9.706422240462151,6.863476987290596,41.18086192374517,68.63476987290869,69.4026159255258,{}
17,68,367,0,12.245566666666578,14.374801496802776,137.73767972319678,14.817206229651257,28.973338686962983,32.54234095945528,39.69371802064774,40.17879163739598,98.08893093897004,69.1262069003225,61.09290636141191,50.31180523880971,32.34330336780636,1.79685018710029,55.70235580011081,23.35905243230445,8.984250935501677,8.035758327479334,10.164519616600256,7.18740074840116,39.530704116207744,68.2803071098133,69.1262069003225,{}
18,68,368,0,12.278933333333244,18.29327806657807,136.15902042146104,11.569684912237603,25.87060194201713,33.130535666381206,40.41117208662968,40.90501328817477,96.24420263380765,70.3756458715159,60.36781761970815,47.56252297310334,32.927900519840705,0.0,54.87983419973443,25.610589293209387,7.317311226631318,7.317311226631318,5.1741203884031375,5.487983419973489,40.24521174647202,65.85580103968141,66.26107133276241,{}
19,68,369,0,12.31229999999991,15.326626740589973,134.9809499687589,11.494970055442536,30.89180379865005,34.69712700112875,38.50767310856856,43.68760789821982,100.79515029683756,69.92117314014547,61.30650696235966,49.81153690691736,34.48491016632738,0.0,57.47485027721223,26.82159679603251,7.6633133702951,8.567844814431075,10.837561700986402,7.6633133702951,42.148223536622254,68.96982033265454,65.58739768568925,{}
20,68,370,0,12.345666666666576,12.36962225567185,137.79781400381103,11.734854037149944,31.53647262872138,35.42120761540604,39.311274501788425,43.733218888508524,99.03425800877076,67.5249963457301,60.63007919194138,50.85103416098309,35.20456211144983,0.0,54.76265217336618,23.469708074299888,7.823236024766629,8.746643777701909,8.746643777701502,7.823236024766629,39.11618012383292,66.49750621051612,63.0729452574431,{}
21,68,371,0,12.379033333333242,16.11318989021538,137.90669156387273,16.113189890215153,28.48436459479425,32.47717251054869,36.47778506496003,37.13906763541037,97.4315175316452,68.9533457819368,60.42446208830711,48.33956967064569,32.226379780430534,4.028297472553732,56.39616461575338,24.169784835322844,8.05659494510769,9.007546982220534,11.393745837917496,8.05659494510769,36.254677252984266,64.45275956086084,68.59943405700368,{}
22,68,372,0,12.412399999999908,13.288376549822408,131.34671272981532,12.606460891022834,29.713713276017508,33.87884566575716,37.8193826730685,42.85372672044648,98.10026425794268,68.40610506556911,60.9312276399437,50.42584356409134,33.61722904272756,0.0,54.627997194432055,25.21292178204544,8.40430726068189,8.40430726068189,9.39630116933906,4.202153630340945,37.8193826730685,67.23445808545512,63.590123332591176,{}
23,68,373,0,12.445766666666572,27.83690809250038,141.94093756174925,12.449043755649376,28.38818751235008,39.36733295894708,45.909804942396526,27.836908092500835,95.29822274943994,67.040152315399,52.89012537575127,16.702144855500592,44.53905294800097,2.783690809249947,64.02488861275151,30.620598901750785,8.351072427750296,12.44904375564897,11.134763237000245,11.134763237000698,77.94334265900216,38.97167132950108,73.22747222784871,{}
24,68,374,0,12.47913333333324,10.111202783311096,132.3756876609374,18.08746940621495,31.97443067909724,36.45646009184236,40.94725041188851,41.68955707763137,101.11202783311164,69.17126959035234,63.30614292175278,54.262408218645305,36.17493881243013,4.52186735155351,54.262408218645305,22.609336757768915,4.521867351553965,10.111202783311096,10.111202783311096,6.782801027330606,40.69680616398409,67.82801027330675,68.4282698525692,{}
25,68,375,0,12.512499999999903,13.929965161103835,135.37492791878083,14.683472545294256,32.50325204257592,32.503252042576605,37.435656517880034,38.28981181360391,98.49972827108968,66.4822495314533,58.04152150459981,46.43321720367999,32.50325204257592,2.3216608601840107,58.04152150459981,25.53826946202389,11.608304300920054,9.286643440736045,10.382783008144166,6.964982580552032,37.146573762943945,65.00650408515185,65.66648551406028,{}
26,68,376,0,12.545866666666573,13.929965161103835,140.53241592080636,14.683472545294544,27.8599303222079,37.435656517880034,42.04706649821079,38.28981181360391,93.9053702879981,66.4822495314535,58.04152150459981,46.43321720367999,27.8599303222079,0.0,55.7198606444158,23.21660860183988,9.286643440736045,4.6433217203680215,6.566648551406349,4.6433217203680215,37.146573762943945,65.00650408515185,65.66648551405937,{}
27,68,377,0,12.579233333333235,10.902785336014178,137.91053800675817,14.627621493249537,29.25524298649907,34.47763450168884,34.13111681758255,44.95333555382248,98.6084456687484,69.81188904056084,63.386359804081394,53.63461214191511,34.131116817582324,2.273736754432321e-13,53.634612141914886,24.379369155415816,9.75174766216628,9.751747662166508,10.902785336013974,7.31381074662454,43.88286447974883,68.26223363516488,68.95526900337954,{}
28,68,378,0,12.612599999999905,14.988294965053,140.6914061443359,15.799050110667292,30.39007966882772,39.96878657347497,39.96878657347497,40.279832405261416,101.03983552012777,70.65550005475515,62.45122902105504,44.96488489515946,29.976589930106456,2.4980491608423563,62.45122902105504,27.478540769264328,12.4902458042111,7.0655500054754965,7.06555000547614,7.494147482526614,39.96878657347497,69.94537650358143,70.6555000547552,{}
29,68,379,0,12.645966666666569,15.3985421264897,139.43972952119688,10.265694750992909,31.22189168940985,36.29471186009193,41.38233852393017,42.326543778693264,98.73229059761758,67.51206660415977,59.02774481821007,46.19562637946888,30.79708425297917,2.566423687748284,59.02774481821007,28.23066056523089,7.699271063244851,5.132847375496567,11.477395649741712,7.699271063244851,41.06277900397231,66.72701588145492,67.51206660416022,{}
30,68,380,0,12.679333333333236,15.799050110667396,143.06648356882448,16.653661072281444,32.03395667582338,36.86445025822377,42.45867139016144,37.238718231863125,101.30026556275875,69.26801995878223,60.56302542422464,47.39715033200196,31.59810022133456,2.63317501844449,60.563025424224406,28.964925202890072,13.165875092222675,10.532700073778187,7.447743646372606,5.266350036889207,42.13080029511298,73.72890051644754,69.26801995878147,{}
31,68,381,0,12.7126999999999,16.254851075486386,141.29155230336167,10.83656738365744,27.627934274816464,32.958133019181226,43.6835996769258,43.68359967692624,98.1292912343972,70.64577615168085,62.31026245603061,48.7645532264587,37.92798584280126,4.547473508864641e-13,54.1828369182881,21.67313476731533,5.418283691828947,5.418283691828719,7.662610281769299,5.418283691828719,37.92798584280126,70.43768799377403,70.64577615168038,{}
32,68,382,0,12.746066666666566,17.366699802120255,143.20947530507027,10.9836653630191,27.45916340754775,38.44282877056685,38.44282877056685,38.83312130237304,94.0050332540606,66.81102811550697,57.66424315585027,43.9346614520764,32.9509960890573,0.0,54.9183268150955,27.45916340754775,10.9836653630191,5.49183268150955,5.49183268150955,2.745916340754775,38.44282877056708,65.90199217811482,66.81102811550701,{}
33,68,383,0,12.779433333333232,11.290024290336987,147.74410665601306,11.290024290336987,28.784027082682325,34.337268359709284,39.51508501617991,39.91626367729068,91.02308581324822,62.35119708979276,56.450121451684936,45.16009716134795,28.225060725842468,2.822506072584474,53.62761537910092,25.40255465325845,8.467518217752968,7.983252735457802,7.983252735457802,5.645012145168494,39.515085016179455,67.74014574202192,68.67453671941857,{}
34,68,384,0,12.812799999999898,17.420601154186443,140.44937663535643,11.61373410279066,29.609328407904314,34.841202308371976,35.321793318651714,41.06075069490409,99.39755304385724,69.92393880585047,60.97210403965164,52.26180346255842,34.84120230837243,2.9034335256974373,55.165236988256765,26.130901731279664,8.710300577093221,8.212150138981222,8.21215013898106,5.806867051395329,34.84120230837243,63.87553756534953,70.64358663730258,{}
35,68,385,0,12.846166666666564,11.613734102791112,128.93337248991332,11.61373410279066,29.609328407904314,35.321793318651714,34.841202308372885,41.06075069490409,93.63291775690443,64.13894296147197,58.0686705139542,52.26180346255842,34.84120230837243,2.9034335256974373,49.35836993686144,20.32403467988433,2.903433525697892,8.212150138981222,8.21215013898106,5.806867051395329,40.64806935976799,69.68240461674509,64.13894296147248,{}
36,68,396,1,13.213199999999889,3.3414648433541743,174.269485149557,13.777212493437204,26.93975082399938,50.23323132805682,50.23323132805636,54.39510671313709,98.33221954810185,71.43235958452571,68.50002928876063,50.12197265031267,63.48783202372937,3.3414648433541743,40.09757812025009,10.024394530062525,10.024394530062525,13.777212493437313,13.365859373416724,13.365859373416724,46.78050780695845,26.7317187468334,57.196664926514416,{}
37,68,397,0,13.246566666666554,3.486178013805784,174.86579955542695,14.373880180626957,28.10646570375305,49.30200227970946,55.88768510139919,56.21293140750616,99.15710085238128,71.10435888101375,69.72356027611409,48.80649219327984,62.75120424850269,5.684341886080804e-14,41.83413616566838,10.458534041417067,13.944712055222794,10.458534041417096,13.944712055222825,13.944712055222851,45.32031417947414,27.889424110445617,52.75544622086722,{}
38,68,398,0,13.27993333333322,5.419029481150224,184.56549352570067,11.495497480713084,27.0951474057504,53.78233195930604,57.60507354813319,58.61576597261279,101.45314741992756,74.40072901230623,70.88890113106413,49.81382241642348,65.14115239070759,0.0,42.15015742928142,11.495497480713084,11.495497480713084,11.495497480713084,15.327329974284112,13.411413727498598,49.81382241642348,30.65465994856828,57.60507354813319,{}
39,68,399,0,13.313299999999886,5.513964134364756,157.17216002201474,11.696884291885908,27.569820671823173,43.06543659338205,46.94971282597804,55.13964134364617,98.71381895285256,71.14936949191743,68.23182503600106,46.78753716754363,66.28234432068678,1.94948071531428,40.93909502160079,9.747403576571628,9.747403576571628,11.696884291885908,11.696884291885908,11.696884291885908,46.787537167543576,27.29273001440044,54.72453148993909,{}
40,68,400,0,13.346666666666552,5.801062779540736,172.72171255644733,12.305912488506578,28.71379580651535,49.39426970289729,53.32562078352839,53.95300261054077,99.2134383103459,70.81099544882754,67.68251868678612,49.2236499540262,61.52956244253278,2.05098541475104,43.07069370977308,10.25492707375554,10.25492707375554,12.971570716797103,12.305912488506522,10.254927073755423,49.22364995402626,28.71379580651535,53.48315619552394,{}
41,68,401,0,13.380033333333218,4.271301169785602,171.7041819867665,17.611025881849535,25.62780701871248,51.25561403742495,55.69095371882008,56.18019550660866,99.71452982008486,74.59506802274623,72.61211988635205,51.25561403742495,68.34081871656656,4.271301169785374,38.441710528068825,8.542602339570863,8.542602339570863,9.55091976801462,8.542602339570749,10.678252924463436,42.7130116978542,25.62780701871253,51.96262142237933,{}
42,68,402,0,13.413399999999884,4.573295603800034,178.88543819998304,13.71988681140067,27.818271138773728,50.51370098228906,55.06977154993541,55.63654227754738,97.76589351425446,69.95797057561651,68.59943405700358,50.306251641802646,64.02613845320332,2.286647801900017,38.87301263230211,6.859943405700392,11.433239009500651,13.71988681140067,10.226199851298432,11.43323900950054,45.73295603800239,22.866478019001192,59.6284793999945,{}
43,68,403,0,13.44676666666655,4.784675303139693,177.61395291029885,15.130471822277732,24.397152736914588,52.84846607319757,57.61512019156786,58.20808730716232,102.28467536590634,77.8888708703993,74.16246719866444,52.63142833453605,66.98545424395502,2.3923376515697328,40.66974007668705,11.96168825784912,11.96168825784912,9.569350606279272,15.130471822277984,11.96168825784912,47.84675303139648,28.70805181883793,57.61512019156785,{}
44,68,404,0,13.480133333333216,5.030750112466194,181.73475984461413,20.123000449866936,25.1537505623337,55.33825123713359,55.3382512371345,51.30378598295415,96.76841053159406,72.02937992435618,70.43050157453433,50.3075011246674,65.39975146206768,7.546125168700087,37.73062584350055,7.5461251687002,7.5461251687002,15.908628694543204,10.061500224933525,12.57687528116685,45.27675101220064,30.18450067480046,50.55841291123067,{}
45,68,405,0,13.51349999999988,7.411856873793223,178.8854381999829,15.722922769929935,26.72383000486192,52.40974256643312,57.65071682307644,53.44766000972383,101.76131291835296,75.03933160385719,70.75315246468517,52.40974256643358,68.13266533636352,7.861461384964969,39.30730692482507,7.861461384964969,7.861461384964969,11.719174706180976,10.481948513286738,10.481948513286738,47.16876830979015,26.20487128321668,52.67113941276181,{}
46,68,406,0,13.546866666666547,7.499926758885508,175.3283337310153,15.909747208830822,21.86585607296158,48.02296280879018,53.032490696102286,48.893540565369385,92.61726330316786,70.75416753513119,66.29061337012854,47.72924162649269,58.33573976571324,5.303249069610274,37.12274348727192,10.606498139220548,10.606498139220548,10.606498139220548,11.85842542126078,7.954873604415411,42.42599255688231,21.21299627844121,58.576300537907706,{}
47,68,407,0,13.580233333333211,5.693409423095545,176.86262742289657,11.386818846191543,28.467047115478408,51.55601507523276,51.240684807860816,57.21805656222968,97.45547127629914,69.26331501690701,68.32091307714882,51.2406848078615,62.62750365405304,0.0,39.85386596166995,5.693409423095773,11.386818846191543,5.693409423095659,11.386818846191431,11.386818846191543,51.240684807861385,28.46704711547852,57.218056562229705,{}
48,68,408,0,13.61359999999988,5.758526005989552,179.34827322505294,11.517052011979104,28.79263002994776,51.826734053905966,52.145670812215606,53.09098652069792,93.7420117494785,65.65729836823579,63.34378606588507,46.068208047916414,63.34378606588507,2.879263002994776,37.43041903893209,8.637789008984328,8.637789008984328,5.758526005989552,11.517052011979104,8.637789008984328,40.30968204192686,23.034104023958207,52.145670812215606,{}
49,68,409,0,13.646966666666543,6.035716402834623,175.9698599792861,13.49627216964872,24.885896255159786,54.65573661223997,54.3214476255107,54.655736612240425,98.25434449068024,73.42765915733716,69.41073863259771,48.28573122267676,66.3928804311804,3.017858201417312,39.23215661842482,9.053574604251937,9.053574604251937,6.035716402834623,12.07143280566902,12.071432805669248,48.28573122267653,30.17858201417266,54.65573661224088,{}
50,68,410,0,13.68033333333321,6.212948073464759,174.95820627941845,18.638844220394503,24.851792293859265,49.70358458771807,49.70358458771807,50.09038874506847,94.01896479890436,69.46287116471868,68.34242880811325,43.490636514253765,62.12948073464827,3.10647403673238,40.384162477521386,15.532370183662124,9.319422110197138,6.212948073464759,12.425896146929515,9.319422110197138,49.70358458771875,31.064740367324248,49.70358458771898,{}
51,68,411,0,13.713699999999877,0.0,176.9772722898676,13.029246839689222,26.86048047114166,52.52257314388851,52.11698735875598,60.061860241778376,99.65457582448802,72.83570407292306,71.66085761829027,52.11698735875643,71.66085761829027,3.257311709922305,35.83042880914513,9.771935129766916,9.771935129766916,13.029246839688994,9.213068794097644,9.771935129766916,45.60236393891182,26.058493679378216,58.99242409662284,{}
52,68,412,0,13.747066666666544,6.755446134894328,176.16048276328334,15.105636775962235,21.36259639684766,47.76821771924303,47.28812294426098,54.46414794426632,96.72326896202055,75.52818387981091,70.93218441639169,47.2881229442612,60.79901521405009,0.0,40.53267680936665,13.510892269788885,13.510892269788885,9.553643543848784,6.755446134894555,10.133169202341833,47.2881229442612,27.02178453957777,54.04356907915553,{}
53,68,413,0,13.780433333333209,0.0,172.04650534085272,15.339299776947342,27.439773622801567,55.306631875496606,48.50712500726587,55.30663187549732,97.01425001453332,69.95797057561649,68.59943405700346,48.0196038399024,61.73949065130319,0.0,41.15966043420213,13.719886811400556,13.719886811400556,15.339299776947342,13.719886811400784,13.719886811400556,48.01960383990263,27.439773622801567,48.507125007266765,{}
54,68,414,0,13.813799999999874,0.0,178.43213259151963,14.229110075920744,29.33406190078137,50.30750112466672,49.801885265723286,50.30750112466742,93.57736134425424,64.42503595520752,64.0309953416438,49.80188526572306,64.0309953416438,7.114555037960372,35.572775189802314,7.114555037960372,7.114555037960372,7.114555037960599,7.114555037960372,10.671832556940672,42.687330227762686,28.458220151841715,57.35937648049339,{}
55,68,415,0,13.84716666666654,10.20288654985672,173.7488971052275,14.429060534161636,21.64359080124268,50.50171186956595,50.50171186956595,51.014432749284815,94.89233017799846,73.57406122650207,68.53803753726811,50.50171186956618,64.93077240372781,7.214530267080818,36.07265133540432,7.214530267080818,7.214530267080818,14.429060534161636,14.429060534161636,10.82179540062134,50.50171186956595,28.8581210683235,51.01443274928466,{}
56,68,416,0,13.880533333333206,7.362101738322963,169.96731711975988,14.724203476646151,29.448406953292533,52.057920629535296,52.057920629535296,52.057920629535616,96.83332983501978,67.87522427558334,66.25891564490803,44.172610429938686,58.89681390658484,0.0,44.172610429938686,14.724203476646151,14.724203476646151,7.36210173832319,14.72420347664638,11.0431526074849,51.53471216826165,36.810508691615496,37.53950042476504,{}
57,68,417,0,13.913899999999872,13.898862837218983,167.364471392032,13.898862837218758,21.97603172594083,41.69658851165696,41.69658851165696,43.95206345188189,92.71697942377207,70.87057282372874,62.54488276748498,41.69658851165673,55.595451348875486,6.949431418609265,41.69658851165673,13.898862837218983,6.9494314186094925,6.9494314186094925,13.898862837218758,13.898862837218758,62.54488276748475,41.6965885116565,42.271741039994986,{}
58,68,418,0,13.947266666666538,19.7278784766429,159.0512411058064,13.151918984428676,20.79500979640132,39.455756953286254,39.45575695328535,41.59001959280291,94.15341132887792,73.52146220938091,62.47161517603604,39.4557569532858,59.1836354299287,9.863939238321336,42.74373669939314,16.439898730535788,3.2879797461073395,14.7042924418758,14.704292441876207,13.151918984428448,65.75959492214292,39.4557569532858,46.499055497527685,{}
59,68,419,0,13.980633333333204,25.018330688030574,152.18056447976195,12.509165344015171,19.77872705736577,37.52749603204575,37.52749603204575,39.55745411473212,95.67671728183852,76.09028223988109,62.54582672007609,37.52749603204575,62.54582672007609,12.509165344015171,43.78207870405345,18.76374801602288,0.0,13.985672025501389,13.985672025501591,12.5091653440154,68.80040939208402,37.52749603204575,50.42605760976793,{}
60,68,420,0,14.01399999999987,29.73176584988664,144.68101701703253,11.892706339954657,18.8040197888908,35.678119019864425,35.67811901986352,37.60803957778132,96.79961645510969,78.2120647459405,62.43670828476206,41.6244721898413,65.40988486975061,17.839059509931985,41.6244721898413,17.839059509931985,5.946353169977328,13.29644990629077,13.29644990629077,11.892706339954657,71.35623803972794,35.67811901986397,54.82266740936981,{}
61,68,646,1,21.55486666666636,21.393073338997727,155.34684238114622,11.384368564581225,24.23360135229512,42.90430803714009,47.046686493702346,37.108501463965865,93.9210406577954,69.74377682468469,59.05641192876533,42.69138211717973,51.22965854061568,9.961322494008527,46.9605203288977,17.07655284687189,0.0,10.062455264427951,10.062455264427935,9.961322494008584,46.9605203288977,44.11442818775237,61.20752584526453,{}
62,68,647,0,21.588233333333022,8.211523579566062,146.6704273595739,10.673891536394422,24.445071226595736,39.9089251343399,42.80434483435072,42.69556614557792,85.51357642170336,61.06986041282662,57.18156180211315,45.74524944169059,54.89429933002873,7.624208240281746,35.07135790529617,6.099366592225465,3.049683296112676,14.058345364587328,15.248416480563549,14.485995656535351,53.36945768197239,48.79493273780332,62.5928458933252,{}
63,68,648,0,21.62159999999969,6.745592760094153,148.0961054592127,10.558522772070546,24.18085665671681,40.97635293895431,43.84635294061158,42.2340910882823,83.08314142844887,58.90335647044089,55.80933465237297,42.2340910882823,51.28425346434278,4.525081188030299,36.20064950424194,7.541801980050309,4.525081188030185,10.981029435592038,13.575243564090728,12.821063366085696,51.28425346434278,48.2675326723226,61.861168140533366,{}
64,68,649,0,21.65496666666636,4.698345035155325,141.34133752295855,8.914482926660867,23.956953015848946,40.22507795995864,43.18901125126239,40.1151731699739,77.38731949499086,53.5075289580555,51.25827682829993,41.600920324417416,49.02965609663477,5.200115040552191,31.94356382053479,3.714367886108676,2.22862073166516,10.505818880356042,11.88597723554784,11.14310365832614,47.54390894219131,44.572414633304334,62.40138048662618,{}
65,68,650,0,21.688333333333023,4.681645887845234,137.88222093263175,8.882798522371218,23.87180373785421,38.605840994648766,40.082107510281325,39.999999999999964,77.04117383421294,53.29679113422753,51.07609150363476,42.933526191461056,50.33585829343713,6.662098891778442,30.3495616181018,2.220699630592776,2.220699630592776,13.64922598036289,10.363264942766476,10.363264942766476,45.89445903225152,44.41399261185632,60.717175020464765,{}
66,68,651,0,21.72169999999969,4.69834503515536,139.94444809546434,9.037447120545975,22.48343423475488,40.225077959958526,43.31660092731613,41.62744306879132,77.38731949499086,54.99271871351284,52.74402398274344,41.600920324417416,50.51540325107828,4.457241463330433,31.20069024331304,4.457241463330433,2.9714943088869177,15.151707465544522,14.85747154443476,14.85747154443476,47.543908942191365,44.57241463330439,63.904401435529216,{}
67,68,652,0,21.755066666666355,5.377677466898714,141.9747590657548,9.072436500426935,22.570481097765665,44.96814956476928,46.45248398578945,43.27918968545764,79.27427907627568,56.755421855679366,54.439727116775884,40.27048307268353,49.219479311057626,1.491499373062311,34.304485580434175,7.457496865311782,5.965997492249471,12.299218911357189,11.931994984498829,11.931994984498829,47.72797993799532,46.23648056493295,65.64291908317698,{}
68,68,653,0,21.78843333333302,11.94113748793931,143.85897326887462,9.009275806904666,20.78845116059027,46.01004702121924,49.07837678769039,40.09968931067083,81.474833622202,60.72574857940151,54.80128530336231,39.99012711326441,47.3957062083133,3.702789547524503,37.768453384749705,11.108368642573396,2.221673728514702,11.94113748793921,11.848926552078352,11.108368642573453,44.43347457029381,44.43347457029381,62.2244942313848,{}
69,68,654,0,21.821799999999687,20.81266730105824,148.78079128691616,10.51198441654122,22.348785425805563,46.08519188091464,49.14844561048738,35.802528820375805,89.19714557596376,66.9143751331397,56.4915255314437,44.59857278798188,50.54504915971279,11.89295274346182,41.62533460211637,14.866190929327216,4.459857278798268,10.51198441654129,10.406333650529064,10.40633365052912,46.08519188091464,43.11195369504918,65.42813130690438,{}
70,68,655,0,21.85516666666636,26.966103003209128,149.8191737480746,9.112688940893564,20.97363566916272,49.43785550588348,52.51962607996881,34.58671286739349,91.39740566547282,70.42742678488587,56.92843967344163,46.44162183886033,47.93973867237196,12.733993084848862,44.19444658859277,17.22834358538364,6.741525750802339,19.70465046899351,18.03971554081102,18.72646041889527,44.9435050053487,46.44162183886027,61.42279017397652,{}
71,68,656,0,21.88853333333302,26.6659351009788,152.61716954174383,7.553895746004968,23.749303327408423,48.887547685127856,51.93501413272257,35.677819950041496,93.33077285342574,69.64347765604855,56.29475187984417,44.443225168298,47.40610684618457,10.370085872602886,47.40610684618446,19.258730906262485,5.925763355773029,11.943757882416294,13.3329675504894,13.3329675504894,44.443225168298,45.92466600724123,60.73907439667392,{}
72,68,657,0,21.921899999999685,20.94861364160044,152.26700859809998,8.955161539803044,22.43759959067763,47.78417658803286,50.83363527686363,36.09941025577125,88.07173609971098,65.73899175182997,55.22349616211898,44.77580769901533,47.76086154561642,10.447688463103532,41.79075385241436,14.92526923300511,4.477580769901465,10.865760014337477,10.553759085692809,11.193951924753776,43.28328077571479,44.77580769901533,62.68613077862142,{}
73,68,658,0,21.95526666666635,21.18657143971573,151.33946295700048,10.486817834581416,22.47175250267435,46.46577873091722,49.641723816183934,34.74856079330159,88.4015881708853,65.93416253165107,55.43032283993011,44.9435050053487,47.939738672371845,11.984934668093048,41.94727133832544,14.981168335116196,4.4943505005348925,21.18657143971572,22.52163436760977,21.722694085918533,43.44538817183707,47.9397386723719,61.42279017397652,{}
74,68,659,0,21.988633333333016,22.270175530415283,148.16862888602068,7.4069502023700124,20.79230004225257,44.44170121421973,47.4969779319902,37.15307320152353,87.40201238796533,66.67900967908464,55.552126517774695,45.923091254693645,48.885871335641696,10.36973028331795,39.99753109279766,14.813900404739911,5.925560161895987,16.562444158455033,16.362487804300862,16.29529044521388,44.44170121421968,47.40448129516767,62.23601479695977,{}
75,68,660,0,22.02199999999968,17.972404108317054,150.7452192533516,8.955161539803044,20.94861364160033,46.26833462231582,49.27599732412124,37.43238480183521,85.07403462812908,64.19601032024694,55.22349616211886,47.76086154561631,47.76086154561631,10.447688463103532,37.313173082512776,11.940215386404134,4.477580769901465,20.94861364160044,23.92702677959925,23.13416731115791,40.29822692911381,46.26833462231588,61.21180269701853,{}
76,68,661,0,22.055366666666348,14.922776252032008,147.74302145856566,11.93822100162572,23.92303022707003,47.752884006502654,50.82514448962506,37.574590507049614,88.09495104560304,64.32391689603004,56.70654975772186,47.75288400650254,49.245161631705855,11.192082189024063,39.54535706788499,11.192082189024063,2.238416437804858,20.94511457606235,21.10399256388292,21.63802556544653,43.276051130893,49.245161631705855,61.20157843526038,{}
77,68,662,0,22.08873333333301,6.040167432208849,140.64338498658014,6.040167432208712,19.10068653455043,48.36573206184915,49.89459609226464,42.885939404295954,73.26243726791502,54.28249302996301,51.27345242232002,42.4837177213509,43.94867350484572,0.7324778917474077,30.031593561644627,5.127345242231968,2.197433675242337,24.94729804613237,26.53147765977556,26.36920410290736,38.08885037086628,46.8785850718354,64.52460901341718,{}
78,68,663,0,22.12209999999968,4.701979215123227,136.8267872574895,7.581713671893075,19.386756953411524,47.67352470560009,49.26992203801028,43.35010641109485,74.3448191527998,55.03525569945737,52.78482159848784,44.6068914916799,47.58068425779186,2.9737927661120693,28.25103127806392,2.973792766111956,1.4868963830559778,19.32965297972794,17.90460342543296,17.84275659667196,41.63309872556789,47.58068425779186,65.44033522294554,{}
79,68,664,0,22.155466666666342,2.961318242901143,133.29222040542382,8.883954728703543,20.782041104885973,46.114866268013934,44.641320023569925,41.695739435946514,71.0716378296288,50.36417982120457,50.34241012932034,45.90043276496863,48.86175100786977,5.9226364858024,23.6905459432096,1.4806591214505715,1.4806591214505715,25.17120506466017,26.81587720606274,26.651864186110743,38.4971371577156,48.86175100786977,60.77920833788673,{}
80,68,665,0,22.18883333333301,2.063665927781212,134.28107848214674,8.87616277664377,20.48129953289818,42.41825029957634,45.44752770856002,41.09235105075997,71.50237641024955,51.093967928616,50.34350992150223,45.23619732077009,48.15466166404565,5.836928686551005,24.80694691784163,1.4592321716378365,1.4592321716377228,24.84982844840901,26.427818640280897,26.995795175298326,36.480804290943695,48.15466166404565,61.35719910778966,{}
81,68,666,0,22.22219999999968,2.109298641655769,138.7815922545257,9.072436500426956,23.91055389614106,43.35622182535465,44.96814956476928,42.4226052629364,76.1249357273768,52.39389133028023,51.45672837065115,46.23648056493289,50.71097868411994,6.71174717878057,27.592738401653605,0.7457496865310986,0.7457496865312123,26.846988715122336,28.49505551220365,27.59273840165349,40.27048307268353,52.20247805718236,62.71395723095984,{}
82,68,667,0,22.255566666666343,4.236601215471371,137.9337422477537,10.591503038678516,24.012598239637544,42.047066498210896,43.66988576252182,42.60365447335087,79.4009599309131,55.50190140472219,53.92313007557391,44.93594172964493,50.92740062693088,5.991458897285952,31.455159210751503,1.49786472432163,1.49786472432163,15.0533541766956,14.978647243214994,14.978647243214994,41.94021228100195,49.429535902609416,68.96687112387691,{}
83,68,668,0,22.28893333333301,2.133689926425513,143.36268808084228,9.052479695549437,24.18704823296301,45.362870074132886,46.98964631206477,44.399211254505374,78.5852801766275,54.649126732246415,53.560504865334565,48.27989170959734,51.29738494144715,6.034986463699624,28.666185702573443,0.0,1.508746615924906,16.66465105635027,15.16271583383248,15.087466159249177,42.24490524589771,49.7886383255223,66.45339510563697,{}
84,68,669,0,22.322299999999675,4.526239847774832,135.92124008131566,10.668449632127563,22.83147924234997,42.27183856405989,45.662958484700034,42.91316730342214,80.02048422463795,57.64912724885559,55.06925148125947,45.26239847774752,51.29738494144715,6.034986463699624,31.683678934423256,3.017493231849812,1.508746615924906,19.844463427722776,19.67164913475818,19.61370600702395,42.244905245897655,51.29738494144715,64.94624083442592,{}
85,68,670,0,22.35566666666634,1.491499373062311,134.26808391522923,10.546493208278685,23.910553896141053,38.80765578021075,40.38081337004832,45.362182502134935,79.10572974510187,55.36657821670899,55.1854768033071,47.72797993799532,50.71097868412005,4.474498119187047,29.82998746124701,0.0,2.982998746124622,16.406493103685875,16.47414903238215,17.152242790217088,41.7619824457459,50.71097868411999,65.6937328586225,{}
86,68,671,0,22.389033333333007,1.4680505487867777,129.19678922027282,8.808303292720552,22.020758231801324,39.66454162181847,41.13162220029236,45.88685485273384,76.46556583600676,54.49612450630685,54.31787030511009,48.44566810996309,49.91371865874976,3.6701263719668304,27.15893515255505,0.7340252743933888,2.2020758231801665,23.48880878058816,26.78940861223149,26.424909878161657,35.23321317088221,49.91371865874976,64.66091928482467,{}
87,68,672,0,22.42239999999968,1.485511481765684,136.6993462357898,9.036013579612202,22.33213437885977,40.218697364304745,41.70029445479632,46.43263122117071,75.81931854219252,53.663781016691146,54.22116908444855,47.5363674165028,50.50739038003417,2.971022963531368,26.739206671782767,0.0,4.456534445297166,28.26378352609062,28.574383879785945,28.96747389443135,37.13778704414284,49.02187889826854,63.94604994551453,{}
88,68,673,0,22.45576666666634,3.32223163471258,138.17448536324355,10.505818880356042,22.335677316072985,44.59717021123806,44.59717021123806,43.49459768919496,72.81676967472822,50.60272467018745,52.0011504055218,47.543908942191365,47.543908942191365,4.457241463330433,25.257701625539084,1.4857471544435157,4.457241463330433,26.78468773860337,28.38515952979597,28.22919593442606,38.62942601553044,52.00115040552174,61.0784854570195,{}
89,68,674,0,22.489133333333005,3.321132134430837,130.73623042898498,9.034456156415342,22.328285271749404,38.64519356658708,40.21176537691057,44.77989740230336,78.71853847737395,56.459246285326266,54.95445138986474,50.49868506095686,53.469195946895525,7.426277214846664,26.73459797344776,0.0,0.0,25.292988790419702,27.103368469245744,26.734597973447705,38.616641517202254,51.983940503926135,62.53966065491953,{}
90,68,675,0,22.52249999999967,1.4743194073823815,132.72150527413933,7.5175834275114255,22.163880607566675,36.88745978757849,39.91568344753169,46.29456843923051,75.24808401238079,53.25946975003243,53.075498665766304,47.17822103623666,50.12685985100154,2.948638814764763,26.53774933288321,0.0,1.4743194073824952,10.320235851676784,8.967934848917082,9.583076147985537,38.33230459194232,51.601179258383866,63.464270466665326,{}
91,68,676,0,22.555866666666336,4.662207325917989,131.24755384863823,8.845916444294403,22.163880607566675,41.307262149200135,42.85681940090519,41.7000500238009,76.72129282133929,54.7288334541169,52.338338962075,45.70390162885417,48.652540443619046,5.897277629529526,29.48638814764797,1.4743194073824952,0.0,10.425012505950251,8.967934848917082,9.583076147985537,39.8066239993247,53.07549866576625,63.46427046666532,{}
92,68,677,0,22.589233333333,3.297238379858852,131.24499880459567,8.96945811678416,22.167645301189705,38.36716224079333,41.52426346211581,41.70713307550971,75.21751656265198,53.16637135200877,51.60994408769966,47.18623459446826,48.66080442554539,6.635564239847099,27.27954187492685,0.7372849155385666,0.7372849155385666,11.888362046008842,11.888362046008842,12.533843564155577,39.81338543908254,51.6099440876996,60.52925057051326,{}
93,68,678,0,22.622599999999668,2.0853566537754857,131.24499880459567,8.96945811678416,23.593117297234016,39.84068292973488,42.86409893816496,41.52426346211593,75.21751656265198,51.63100507371717,50.87265917216109,47.18623459446826,48.66080442554539,6.635564239847099,27.27954187492685,0.7372849155385666,0.7372849155385666,22.16764530118976,24.004257736525645,23.59311729723413,38.338815608005405,51.6099440876996,63.475050326860064,{}
94,68,679,0,22.65596666666633,0.0,130.78371046043975,10.390136130832,22.089732416981185,39.67345286403804,41.169070701563584,44.47172467907492,76.46462544693834,54.54574078883289,54.36732429516326,48.48977572271315,49.95916286582565,5.14285500089386,27.18366214758169,2.2040807146687484,2.2040807146687484,17.69376425665085,14.767158027555002,14.693871431125215,39.6734528640381,51.42855000893826,60.31650770013359,{}
95,68,680,0,22.689333333333,3.347567510800157,136.23407094422328,11.976621621470258,22.456165540256507,41.94490068626028,43.441057394002335,45.01202561179753,77.84804053955611,55.3918749992996,56.14041385064149,50.900641891248256,50.900641891248256,5.988310810735129,26.947398648307853,1.4970777026837825,4.491233108051347,22.506012805898767,24.139652616534462,24.70178209428224,35.92986486441055,49.40356418856448,61.453170598968015,{}
96,68,681,0,22.722699999999666,3.238553220997248,133.24590277657296,10.138275211261089,20.276550422522064,42.00142587522407,43.473882954421306,44.9914192295562,76.76122659954751,56.48467617702545,55.76051366193542,50.69137605630488,50.69137605630488,5.793300120720573,26.06985054324264,1.4483250301801718,1.4483250301801718,24.66408652237965,26.4294516758184,26.069850543242524,37.65645078468367,50.69137605630493,58.00537225504439,{}
97,68,682,0,22.75606666666633,1.5081352379864938,140.26468515235717,10.664126537266489,24.17724709900937,42.2277866636224,45.26918574866383,43.96932011810215,78.4810161409839,54.48105931747207,54.29286856751446,49.76846285355498,48.260327615568485,5.278473332952899,29.408637140736914,2.262202856979684,2.262202856979684,21.16768677780252,21.59321047671262,21.867960950804445,39.21151618764935,52.78473332952797,63.50306033340756,{}
98,68,683,0,22.789433333333,4.767516111754856,140.2168554154709,10.553346786286513,24.121935511511992,42.21338714514616,43.74699385724545,42.320937350398175,81.42549060818128,57.309430524645165,55.02816538563695,49.7514919924937,48.24387102302421,6.784294362612855,32.41385084359422,5.276673393143142,0.7538104847346858,24.16900274750968,24.30965768520576,24.121935511512103,40.70576617567667,55.781975870371696,63.48140602559721,{}
99,68,684,0,22.822799999999663,10.597002531915583,143.90089546200522,12.082441866603524,25.476921991933068,46.45791657352504,49.45520151375251,40.71235425374775,88.534135189584,63.10334829447775,57.69773509937784,49.4552015137524,46.45791657352504,7.493212350568456,40.46334669307021,11.98913976090978,1.4986424701137366,28.5136176180562,30.3081682813473,30.722170637331143,31.47149187238796,46.45791657352504,58.75366594700488,{}
100,68,685,0,22.85616666666633,16.94281037872439,154.95729962116133,10.846522890932723,23.06002397835601,49.08575928623168,53.70945803443699,40.35139767241834,90.826272436481,67.77124151489757,59.05630414124744,49.08575928623168,46.01789933084217,7.6696498884736,42.950039375452775,13.80536979925273,0.0,21.52973320235777,24.73387769603368,24.54287964311584,32.21252953158955,47.55182930853698,64.71657665635324,{}
101,68,686,0,22.889533333332995,16.50767527399455,154.68838360926458,15.081825754318032,24.05801513122661,52.52442132634621,55.5460928280364,34.64629800185444,90.24173633159928,66.18400358785372,57.77686345898098,51.02372357416493,45.02093256543969,13.506279769631874,42.01953706107702,12.005582017450593,1.5006977521812814,25.511861787082463,27.385164168813933,27.762908415354445,31.514652795807763,48.022328069802256,57.73299524738916,{}
102,68,687,0,22.92289999999966,2.1241017508936,150.204184844735,9.01180051192273,22.529501279806823,46.58518828297132,48.08639856733496,40.664206901730765,73.61169544323438,51.08895253921782,50.315886191568325,45.05900255961342,43.557035807626335,3.754916879967823,29.288351663748813,3.754916879967823,2.252950127980625,15.094579044529468,13.60088740392066,14.26868414387758,37.54916879967789,51.06686956756192,63.15408531016911,{}
103,68,688,0,22.956266666666327,15.187801425207994,160.30574438927636,15.187801425208004,24.22706391453364,51.40447202260519,55.91598084574298,34.79142027924049,89.36800014956688,65.14139852190998,57.42722357130367,46.8485244923794,40.80355359013686,9.06745635336381,45.33728176681871,18.134912706727505,1.511242725560578,25.735536266267506,26.392719555698832,26.44674769731091,30.22485451121247,46.84852449237934,60.751205700832,{}
104,68,689,0,22.989633333333,13.424411691501854,146.88509607746266,9.017563271214009,19.32915180362407,48.94423953954978,51.8867394412348,39.25069446539819,80.54647014901124,61.23191606831439,54.11045684585906,42.991869822737385,37.061956743739074,1.482478269749663,40.02691328323817,16.307260967245156,2.9649565394990987,23.719652315993017,25.89036993141069,25.20213058574257,28.16708712524172,42.99186982273733,59.594888887990464,{}
105,68,690,0,23.02299999999966,8.997160719151339,139.74592075533133,15.070057695117583,21.046861403801103,46.50951000960357,47.98485716880714,44.12789124031167,89.09258925285833,68.07587371901471,62.98012503405937,53.98296431490803,44.98580359575669,5.998107146100892,38.9876964496558,14.99526786525223,4.498580359575612,26.991482157454016,29.115543614743167,29.240772337241825,29.99053573050446,47.98485716880714,61.64496075208635,{}
106,68,691,0,23.056366666666325,13.70059816679668,148.44461342835854,14.034808210032065,20.02258153955244,50.32770196728556,51.78019705580001,43.05682608912866,90.63692002519096,70.61844542340818,63.17498043578496,53.28010398198728,38.05721712999093,3.044577370399338,44.14637187078949,19.789752907595243,4.566866055598894,21.31204159279497,24.78106440183739,23.595474620594416,33.49035107439204,51.75781529678767,65.61752935564817,{}
107,68,692,0,23.08973333333299,16.50767527399455,154.60100549067,15.08182575431792,25.555961840373,49.52302582198365,52.61010559427857,34.64629800185444,91.73916458685206,66.18400358785361,57.77686345898087,48.022328069802256,45.02093256543958,12.005582017450593,45.02093256543958,15.006977521813155,0.0,25.511861787082463,27.385164168813933,27.762908415354445,30.013955043626424,48.022328069802256,64.80860152360071,{}
108,68,693,0,23.123099999999656,7.45392227725074,147.61777487504176,10.43549118815099,23.852551287202232,50.68667148530483,53.75099794790156,38.87490243043717,80.55755591144997,56.72821738519428,52.92284816848007,43.23274920805409,40.25118029715384,2.9815689109002506,38.76039584170371,10.43549118815099,2.9815689109002506,26.87549897395078,28.67581155375309,29.070296881277784,31.30647356445303,47.70510257440458,65.86501003703101,{}
109,68,694,0,23.15646666666632,4.674479576796265,152.31919196044967,10.347401637031568,23.69735247589653,51.73700818515749,53.21520841901906,38.68820250413811,76.99422706838038,53.29726738591005,50.99790806822659,41.389606548125926,36.955005846540985,0.7391001169307856,37.694105963472,11.086501753962352,5.17370081851584,25.129403975647904,28.7014568643041,28.085804443371217,28.085804443371217,44.346007015849295,62.36533618823625,{}
110,68,695,0,23.189833333332988,10.593657225082351,154.4931550304155,10.487185605990248,22.522424198551,53.95490129786043,56.95014549001066,40.89206577929064,84.1112367481068,61.589157982601385,56.18135146066197,43.44691179624522,35.956064934823644,0.749084686142055,44.19599648238727,15.730778408985202,5.243592802995067,25.468879328833395,28.817863265321897,29.214302759544125,26.967048701117733,47.94141991309812,64.85533510149466,{}
111,68,696,0,23.22319999999965,10.409497369306337,159.2902311669531,13.466001110499692,23.83956252114117,55.041720838404224,56.5087000048062,38.77806873539036,86.45499099481913,62.61611054817327,57.252235531185306,46.09920263549986,38.66384737170961,3.717677631895185,43.86859605636266,15.614246053959503,3.717677631895072,23.83956252114111,25.67082651870377,25.28020789688702,26.76727894964506,46.09920263549981,62.89800780021788,{}
112,68,697,0,23.25656666666632,15.000440922905907,161.3734252696104,13.516064767340826,26.866793858110555,58.23051944138629,59.703986351356775,31.66282020968512,86.89186572752911,60.16861582069214,52.24098805743722,43.28539010473367,35.82239181081411,8.209298123311555,47.01688925169344,15.67229641723111,0.7462998293918872,7.462998293919611,7.610794786121145,8.209298123311555,26.866793858110555,44.77798976351761,65.826860224582,{}
113,68,698,0,23.289933333332986,15.122215533933533,162.75999493454722,13.625789110653692,27.12666582242457,54.19069548968212,58.70323880286089,34.60848376566082,90.39578443365534,63.2697133912407,55.67451736215003,43.63678387844186,34.60848376566082,4.514150056390463,51.16036730575945,21.06603359648921,4.5141500563905765,15.047166854635066,13.872802377261252,14.294808511903398,28.58961702380668,49.65565062029589,63.484066506895175,{}
114,68,699,0,23.32329999999965,17.922179469543266,163.1284830849201,13.524353134294495,25.433643225527245,55.34072501812616,58.26622775747805,31.50573250722716,88.31966072384454,62.88744401552278,53.76653840862991,43.31193371806296,32.85732902749601,6.720817301078796,50.03275101914164,20.16245190323616,2.240272433692894,23.94286614543732,24.31266202298309,24.642996770622062,26.88326920431496,46.29896362965354,63.36447318278199,{}
115,68,700,0,23.35666666666632,13.608179125640731,163.64079454029653,15.195611960291512,25.748771118585665,57.47664786374974,58.96877621110991,34.80931224405396,89.3244233749865,63.57679609675984,56.70074635683636,46.8726169883181,36.28847766837532,6.804089562820423,47.62862693974262,17.3882288827632,3.7800497571224696,25.748771118585665,27.88026942925552,27.216358251281463,27.21635825128152,49.89665679401611,68.45961278413283,{}
116,68,701,0,23.390033333332983,22.4762798709194,166.38655011553027,13.455899075420916,26.95329670772121,55.39945346267621,59.82268172027027,33.027836244190866,95.87309876065328,68.9206998548269,57.56134604485578,47.84319671260732,35.88239753445555,8.970599383613944,53.82359630168321,22.42649845903464,0.0,25.46063380625036,27.568279941930736,28.406898048110577,28.40689804811064,47.84319671260738,64.91213430325534,{}
117,68,702,0,23.42339999999965,19.42124569322289,163.08619484207537,13.528219970348095,22.458872503339816,55.35654784592495,59.77635041383147,34.651725704849,89.94721802034829,67.49245606357385,57.51676609146773,43.324317315651,34.36066545724043,4.481825929205229,50.79402719765983,23.90307162242823,2.9878839528036,25.397013598829915,27.54692893610402,27.63792656343253,23.90307162242817,43.324317315651,57.25911457391106,{}
118,68,703,0,23.456766666666315,10.566639626377,163.2195273130683,12.047822827873691,23.9562289851244,56.86383878967472,59.848611058557786,37.47806988441364,84.0164141740347,60.07206651312253,54.54372049940912,40.34740968449432,29.886970136662512,2.2415227602497225,48.566326472076526,21.66805334908031,8.218916787582202,25.403924616163124,27.26930131371491,27.64544737641279,25.403924616163124,46.32480371182686,58.451762279744976,{}
119,68,704,0,23.49013333333298,17.9368139579027,160.38299154937832,15.021895776342252,25.454411255238817,55.38591389693708,58.31380547721403,31.389424426329697,89.73388044027918,64.29096163346215,55.3051763702,46.3367693912486,34.3788934193135,8.968406978951293,49.3262383842324,19.4315484543946,1.4947344964919012,23.915751943870248,24.33251470719292,23.91575194387019,29.8946899298378,50.82097288072424,63.06291749281098,{}
120,68,705,0,23.523499999999647,15.187801425207994,163.55668327382125,13.684884917160003,25.86830861573765,57.605908536265055,60.46859660577053,34.88974761693506,89.62319198870436,63.75940044022236,55.91598084574309,43.826039041258014,33.24733996233374,3.778106813901559,50.62663130628084,21.913019520629064,3.778106813901559,22.66864088340936,26.08809428679774,25.69112633453057,27.2023690600912,48.35976721793992,63.92038669842876,{}
121,68,706,0,23.55686666666632,9.147140601913202,164.352974987547,15.112808510975336,24.247734421726825,55.72111026412616,58.66672148739853,36.12205081847601,84.546715496369,60.32016415504576,55.63988411268724,45.11341955082753,33.08317433727359,3.00756130338857,45.113419550827416,16.541587168636624,6.015122606776913,25.60846172730595,27.728345144624004,27.06805173049645,27.068051730496503,49.62476150591027,62.11178438740457,{}
122,68,707,0,23.59023333333298,25.934936909346447,168.0637533448976,12.299655649941837,27.62951085263856,61.099612574355945,62.548965487247415,30.66386943300581,96.41404519881536,68.80369290222485,55.68383512889079,44.24195119829688,35.088444053821604,9.153507144475157,56.44662739093053,24.40935238526731,3.051169048158385,19.89118859743414,20.353836221694763,19.83259881302962,27.460521433425697,48.818704770534566,63.012366143699154,{}
123,68,708,0,23.623599999999644,21.113282406368427,167.3044503554566,15.11761672644548,25.74876797935045,57.33970454634128,60.18916378211458,30.42175732851657,92.36199792811796,66.61337539190485,55.65758621956911,45.12777261046142,34.59795900135373,9.777684065600056,51.896938502030594,21.81175676172301,0.7521295435077491,25.57240447926148,27.73716705605024,27.076663566276864,30.085181740307632,51.14480895852296,61.96744141300002,{}
124,68,709,0,23.65696666666631,22.942562084616185,170.13308462700735,15.160871767609931,22.94256208461609,56.27931246336391,59.14683371503994,36.669256763812456,97.6082309933428,74.67402704160247,62.91761783558161,50.0308768331131,39.41826659578612,8.33847947218544,52.30500759825463,26.53152559331761,0.7580435883804739,25.818034297489643,27.95526625455946,27.289569181698084,28.805656358459032,48.51478965635209,63.96378806027423,{}
125,68,710,0,23.690333333332976,8.97266798136161,152.7990297877848,8.972667981361724,20.98956607766993,50.86710564037384,52.3619223616852,37.41601352828216,76.32630020060739,55.35165757433244,50.8451185610495,46.3587845703687,37.386116589006974,4.486333990680805,34.395227261886475,10.46811264492203,1.4954446635601926,20.93622528984389,19.9517203277117,20.188502958063737,32.89978259832617,55.33145255173031,61.60433423700989,{}
126,68,711,0,23.72369999999964,9.123766022331369,153.25813158020017,7.648212593142566,21.052631578947405,52.58346718976063,54.018592655060125,39.02721955641757,76.55563111507198,55.517967826700094,50.99788841239854,44.99813683446928,35.998509467575445,1.4999378944824002,35.99850946757533,11.999503155858406,1.1368683772161605e-13,14.999378944823093,15.65981136272522,15.749347892064236,34.4985715730931,53.99776420136311,60.29675711581263,{}
127,68,712,0,23.757066666666308,6.005496606455267,153.25787306189878,9.008244909682844,19.51786397097942,52.54809530648333,54.04946945809706,40.56489579042301,75.08371982113252,55.57112874590271,52.54809530648333,42.03847624518664,36.032979638731376,1.5013741516138452,36.032979638731376,12.010993212910536,6.005496606455267,16.515115667751843,15.674806327403669,15.013741516137998,37.534353790345165,55.55084360971085,64.71601833814492,{}
128,68,713,0,23.79043333333297,7.714946720965994,154.51391298081035,10.698706149967403,19.727439397027467,49.92984261252377,51.442868146236606,39.33866387653393,77.17913437753502,57.49497028108806,53.71240644680586,45.39076601138527,37.82563834282109,2.269538300569252,35.55610004225173,11.34769150284626,3.782563834282087,21.23632534918425,21.663228855868702,21.938870238836216,36.3126128091082,55.98194474737517,62.328572202778254,{}
129,68,714,0,23.82379999999964,4.488216368661824,143.74754240960246,7.480360614436449,20.94500972042204,44.90709129958546,46.37823580950578,43.41187824747213,76.31434423149403,55.37488204706379,53.11056036249852,49.37038005528029,43.38609156373116,2.9921442457745115,29.9214424577458,5.9842884915492505,1.1368683772161605e-13,17.95286547464741,17.05784668691981,17.20482941320381,37.40180307218213,53.85859642394223,60.01095700937178,{}
130,68,715,0,23.857166666666306,1.501966751987197,147.31530020197792,9.011800511922615,21.027534527819626,48.08639856733497,48.0629360635877,43.55703580762645,75.09833759935589,54.07080307153626,53.319819695542606,49.5649028155749,43.55703580762645,3.003933503974168,28.53736828775527,3.003933503974281,1.5019667519870836,21.027534527819626,21.24101750893647,21.027534527819626,36.0472020476908,54.07080307153615,58.88399306010805,{}
131,68,716,0,23.89053333333297,1.5073319245208268,149.41605900457762,12.05865539616684,24.11731079233391,43.81645642249499,46.751595144058335,40.72586595023161,78.39575231151737,54.28488041150735,53.510283320490544,51.24928543370936,43.712625811105,6.782993660343891,30.900304452677688,3.768329811302124,0.7536659622603565,13.565987320687782,12.42977747533019,12.812321358427424,37.68329811302158,55.7712812072719,63.46923520805366,{}
132,68,717,0,23.92389999999964,1.5193318536039442,150.60556616140886,13.673986682436066,25.828641511268188,47.19720708397514,50.16096606625122,39.5318353165068,80.53892028495278,54.71704449204469,53.93628080294229,53.17661487614032,45.57995560812026,9.875657048426092,31.146302998882103,3.798329634009974,0.7596659268020858,13.758135087024494,12.528731425549584,12.154654828832122,39.5026281937042,56.215278583348265,60.94395928829732,{}
133,68,718,0,23.957266666666303,1.4970777026837825,148.33161920901577,8.98246621610258,22.45616554025662,47.92987261687373,49.42624197914993,44.93727544849052,77.86243418681606,55.41210208596949,54.64333614795771,52.39771959393204,46.40940878319702,4.491233108051233,28.44447635099175,2.9941554053675645,0.0,17.964932432205273,13.802374435914954,14.222238175495818,37.42694256709427,52.39771959393204,60.05129317031835,{}
134,68,719,0,23.99063333333297,7.598584311043711,150.69502219825517,12.014416707859846,22.35307481405323,47.77960663735824,50.68887962044347,40.26312159665844,81.97482051683622,59.626824156839525,55.88268703513313,49.17676459091706,41.72573965289939,5.215717456612424,36.510022196286855,11.176537407026558,0.7451024938017099,17.944444300016116,16.99095105225725,16.39225486363904,37.25512469008868,55.13758454133125,59.77561247090062,{}
135,68,720,0,24.023999999999635,21.00233957238531,150.00163265179194,10.580825818597544,22.495144254167755,52.56445220000256,55.44595032638605,35.94367423539738,89.83114888640903,67.35258729359815,56.86148002031814,53.86877054556453,43.39428738392701,12.719015267702844,41.1497552778618,17.20807947983303,8.229951055572428,14.96354737376788,12.339257271195777,13.467192636391133,37.40886843441984,53.86877054556459,55.54681624626581,{}
136,68,721,0,24.0573666666663,24.031468031793903,151.8844151741321,10.513767263909813,24.0314680317938,49.65584766785955,51.088952539217935,34.57787133065887,93.13405047063782,69.10679438858523,57.07473657551032,51.06686956756187,43.557035807626335,12.766717391890552,45.80998593560696,18.774584399838886,6.758850383942104,15.094579044529455,12.385535129217564,12.766717391890438,39.05113555166497,54.07080307153615,58.74975157253289,{}
137,68,722,0,24.090733333332967,19.67313227221655,152.96492437306108,9.079907202561571,22.6997680064037,50.03112178217755,52.98773976474256,37.9538190194066,89.33703834089957,66.65473783398636,56.74942001600925,49.93948961408819,43.88621814571388,9.079907202561571,42.37290027862025,16.646496538029396,4.539953601280786,13.619860803842244,12.929793524303433,12.863201870295484,39.3462645444331,54.47944321536892,60.70272420316284,{}
138,68,723,0,24.12409999999964,7.566589335467938,155.9892352790316,10.593225069654975,21.186450139310185,49.962413411308376,51.45280748118182,40.88759721249476,80.2201222692269,59.03879513987408,55.23610214891573,46.91285387990104,40.85958241152673,3.0266357341871526,36.319628810245945,12.10654293674861,3.0266357341871526,16.71514217580841,16.9194081119312,16.646496538029396,37.83294667733952,52.96612534827534,59.1937528739558,{}
139,68,724,0,24.1574666666663,6.028086615749885,152.32850832974276,12.056173231499884,24.11234646299988,48.24823439331626,49.73171457993704,36.19990236391328,78.37961525808664,54.27370636202316,51.23873623387453,46.71767127206215,40.68958465631215,7.535108269687385,34.661498040562265,7.535108269687498,0.0,10.656252308941667,10.656252308941612,11.302662404531134,37.67554134843721,54.25277954174959,57.445008727296816,{}
140,68,725,0,24.190833333332964,2.992144245774625,149.72685022251267,9.100251451722416,19.44893759753461,49.39304261330434,49.37038005528029,38.926635180658494,70.3790236256263,50.95438042387863,49.37038005528041,46.378235809505895,40.39394731795676,4.488216368661938,26.929298211970945,4.488216368661711,1.1368683772161605e-13,11.968576983098274,12.33692677241262,12.716613044541871,38.89787519506939,53.85859642394223,61.50294087869287,{}
141,68,726,0,24.22419999999963,2.9901997945379435,151.12346697865203,10.46569928088286,20.93139856176572,49.36094444058936,50.83339650714527,38.98743538517668,73.32089405665333,52.41386105562206,50.83339650714538,44.85299691806938,38.87259732899349,2.9901997945379435,31.397097842648577,5.980399589075887,2.9901997945379435,11.96079917815183,10.884491547570184,10.46569928088286,35.88239753445549,52.328496404414295,58.481153077764965,{}
142,68,727,0,24.257566666666296,9.132502433394734,153.32404499798875,7.506870758068999,21.07279040842508,49.56808987661464,51.06879541369793,39.15104792123923,76.62893653094933,55.57112874590259,51.046721154869374,46.54259870002795,39.03572794195895,3.7534353790344994,33.78091841131061,9.758931985489768,0.7506870758069226,10.50961906129669,12.380648421351616,12.01099321291042,36.032979638731376,52.54809530648322,61.62953446344471,{}
143,68,728,0,24.29093333333296,19.35936889027903,152.07897499845393,10.42427555630411,20.84855111260822,49.165571526407845,52.14264747340017,34.380441350621865,84.93562260796612,64.10406242962414,54.35515111501434,49.14301333686228,41.69710222521644,11.168866667468706,39.463328891722654,15.636413334456163,5.212137778152169,11.913457778633244,10.841410223719263,11.168866667468706,34.251191113570655,52.12137778152061,61.21969975668815,{}
144,68,729,0,24.324299999999628,23.87340714402564,156.61921366640408,10.42427555630411,20.90166852637221,53.63123910201661,55.11986263664548,35.864257150465306,90.888928094114,70.00740502100963,58.0781066708372,47.65383111453309,38.71873778055806,7.445911111645728,47.653831114533205,22.33773333493741,1.4891822223290774,11.913457778633244,12.280111196910347,11.913457778633244,31.272826668912387,52.12137778152061,58.38278079648112,"{'neutral': (['m1', 'm3', 'm12', 'e1', 'e2'], 5.742041219988238, 12)}"
145,68,730,0,24.357666666666294,23.90957610932992,154.09914246453235,12.047822827873803,25.447838088206552,50.82982019518335,55.31108496520304,31.381318643495547,92.69779968044898,67.26228463043388,55.29089475282558,49.3135007254931,41.84175819132747,14.196310814914796,47.07197796524338,18.679356335414013,6.724568280749168,17.932182081997496,16.707324216770864,17.18500782858098,31.381318643495604,52.30219773915934,56.96193070110498,"{'neutral': (['m1', 'm3', 'm12', 'e1', 'e2'], 5.742041219988238, 12)}"
146,68,731,0,24.39103333333296,20.968474858331334,155.82896201266468,13.528219970348095,25.440915124421323,52.37326771228832,53.80265634357829,31.372781504436944,91.14270516392982,65.73344696167737,55.27585312686506,49.30008522125809,37.34854941004403,11.951535811214171,47.80614324485623,19.42124569322277,2.9878839528036,13.528219970348152,10.563765022129168,11.951535811214114,31.372781504436887,52.28796917406152,57.08344276695808,"{'neutral': (['m1', 'm3', 'm12', 'e1', 'e2'], 5.742041219988238, 12)}"
147,68,732,0,24.424399999999626,24.121935511512103,163.26915612689115,10.660490109709212,25.673859982468738,55.863409455143895,58.81654310738686,31.69591577020924,92.07602990838028,66.40381552225205,54.27435490090204,49.751491992493584,37.69052423673759,12.060967755755996,48.24387102302421,19.59907260310365,6.030483877877941,18.09145163363405,16.855714860189746,16.583830664164566,33.167661328329075,52.76673393143267,60.77414421301445,"{'neutral': (['m1', 'm3', 'm12', 'e1', 'e2'], 5.742041219988238, 12)}"
148,68,733,0,24.45776666666629,19.4063421156856,162.67181026705424,11.999852310418785,25.34651306221314,55.25146926556383,56.63742545257794,31.291786417663765,87.86595098999481,62.530453369395815,52.83814662335385,41.67515790011021,29.76796992865013,4.465195489297457,52.09394737513776,23.81437594292015,1.4883984964325236,11.90718797146002,12.2736484276035,12.651387219676336,31.2563684250826,50.60554887870518,54.09668234933761,"{'neutral': (['m1', 'm3', 'm12', 'e1', 'e2'], 5.742041219988238, 12)}"
149,68,734,0,24.49113333333296,17.945335962723334,161.8469125141493,8.972667981361724,22.43166995340414,52.36192236168508,55.35165757433244,34.525021033504004,83.79829287736514,61.38613638179219,52.340563224609696,43.367895243248086,32.89978259832617,3.738611658900824,45.61106223858837,20.188502958063623,0.7477223317800963,10.468112644921971,10.887001484056944,11.215834976702126,35.89067192544667,55.33145255173031,60.11613146819907,"{'neutral': (['m1', 'm3', 'm12', 'e1', 'e2'], 5.742041219988238, 12)}"
150,68,735,0,24.524499999999623,22.33773333493741,162.87324235535172,8.935093333974919,22.33773333493741,53.69322861117199,56.66724825685603,34.38044135062187,87.91221737724933,65.591672955676,54.35515111501434,44.67546666987482,31.272826668912444,3.722955555822864,49.88760444802688,24.5715066684312,0.7445911111645955,8.935093333974919,9.418415347182806,9.679684445139516,28.29446222425406,50.632195559191416,61.346355100675424,"{'neutral': (['m1', 'm3', 'm12', 'e1', 'e2'], 5.742041219988238, 12)}"
151,68,736,0,24.55786666666629,26.684608855492115,166.46059254395914,8.89486961849741,25.245695234655365,56.41214546323292,59.31765887379363,31.272913360038125,92.02118904653176,66.77737755668034,53.36921771098434,41.50939155298784,29.649565394991328,4.447434809248648,56.33417425048344,26.68460885549223,1.482478269749549,8.89486961849741,9.3760158282282,8.894869618497353,31.13204366474082,51.88673944123474,57.98745541087211,"{'neutral': (['m1', 'm3', 'm12', 'e1', 'e2'], 5.742041219988238, 12)}"
152,68,737,0,24.591233333332955,32.47497797998358,159.75713226423414,7.526843019246875,23.66425007340375,57.73935124254877,59.06386331891887,32.50850920004664,96.0509381989296,72.39085812356228,56.09314378360807,44.28406088179588,33.95111334271019,6.642609132269399,56.83121146497126,28.78463957316717,5.166473769542904,10.437853249331914,12.612106067731132,11.809082901812246,29.52270725453053,50.18860233270192,56.40305301376854,"{'neutral': (['m1', 'm3', 'm12', 'e1', 'e2'], 5.742041219988238, 12)}"
153,68,738,0,24.62459999999962,33.971475775017666,163.28261601101454,7.531357299233079,23.678442883087484,56.30142471313077,59.09928730948189,32.62845341058273,97.66223397797806,73.98384673143578,56.86529640600793,45.7876412619803,29.54041371740675,5.169572400546258,59.81933777774839,33.23296543208244,3.692551714675915,10.44411342931718,10.752872901876524,10.339144801092344,29.54041371740664,51.695724005461614,59.54060734527661,"{'neutral': (['m1', 'm3', 'm12', 'e1', 'e2'], 5.742041219988238, 12)}"
154,68,739,0,24.657966666666287,36.13354322926334,163.02310260573117,9.025554522092191,22.613972684962803,54.34103420191038,57.2409620853578,31.910154032701897,99.56558969445334,76.95281388014655,58.66610439359988,48.13629078449219,34.59795900135384,9.777684065599942,57.91397485009213,32.34157037083071,6.769165891569173,27.118416349083024,29.20742826966057,29.33305219679994,30.085181740307576,52.64906804553834,52.9917832543652,"{'neutral': (['m1', 'm3', 'm12', 'e1', 'e2'], 5.742041219988238, 12)}"
155,68,740,0,24.69133333333296,24.005251723284573,157.8841529096927,7.650202935358402,18.066344313352943,51.209347767944045,54.03265025140607,37.62804064632199,87.22573383916956,69.16171420979018,57.012472842800776,45.00984698115849,34.50754935222153,2.250492349057936,47.260339330216425,24.75541583963718,0.7501641163526074,21.004595257873973,22.95060880607525,23.25508760693191,31.506892886810988,52.51148814468496,51.55980077261624,"{'neutral': (['m1', 'm3', 'm12', 'e1', 'e2'], 5.742041219988238, 12)}"
156,68,741,0,24.72469999999962,16.242466744149738,149.60247480829662,8.859527314990714,22.197983316424352,50.29077122215199,51.70166581360272,31.565843653472,78.60663838070204,56.420343897342526,47.9891062895332,44.2976365749538,32.484933488299475,7.38293942915891,39.86787291745839,14.765878858317931,2.9531757716636093,10.441053070895656,10.749722070035794,11.07440914373842,32.48493348829936,51.68057600411265,57.75705178084621,"{'neutral': (['m1', 'm3', 'm12', 'e1', 'e2'], 5.742041219988238, 12)}"
157,68,742,0,24.758066666666284,10.533016798244487,156.84461124839805,15.122215533933645,27.12666582242457,54.25333164484916,57.17923404761348,28.629187446929905,81.37999746727361,54.25333164484904,48.903292277564105,43.63678387844186,33.10376708019726,9.780658455512937,42.884425535709966,11.28537514097627,0.752358342731668,7.523583427317533,8.103147339266155,8.275941770049258,31.59905039473369,54.16980067668641,58.99180307888882,"{'neutral': (['m1', 'm3', 'm12', 'e1', 'e2'], 5.742041219988238, 12)}"
158,68,743,0,24.79143333333295,10.578699078924387,152.90460846556164,12.089941804484964,25.73553626626756,55.93639931669768,57.42722357130367,31.87970022011112,80.22407490228728,54.488631366807766,49.11538858072015,43.826039041258014,34.75858268789432,7.556213627803118,40.80355359013686,10.578699078924387,0.0,9.067456353363752,9.557938220264647,9.06745635336381,31.736097236773105,52.89349539462182,54.739539668639765,"{'neutral': (['m1', 'm3', 'm12', 'e1', 'e2'], 5.742041219988238, 12)}"
159,68,744,0,24.824799999999616,0.0,142.2584952116543,10.584139319942892,21.16827863988556,48.4082564370656,48.38463689116713,40.936385634129486,72.63992884563658,51.49754223717133,51.408676696865086,48.38463689116713,42.33655727977123,4.536059708546986,27.216358251281463,3.024039805697953,1.5120199028489196,12.096159222791812,12.468435534964913,12.096159222791812,28.72837815413044,49.89665679401605,59.27812273361686,"{'neutral': (['m1', 'm3', 'm12', 'e1', 'e2'], 5.742041219988238, 12)}"
160,68,745,0,24.85816666666628,2.130781711126742,144.76776199617416,9.040141182996194,22.65052028438619,49.72077650647918,51.22746670364529,40.792089327750375,73.88929162820651,51.24961912271469,50.47412160506224,46.7073961121472,40.6806353234831,3.013380394331989,30.1338039433208,4.520070591498097,3.0133803943321027,15.142049081080808,15.14204908108082,15.066901971660345,30.1338039433208,49.7207765064793,57.57055159840757,"{'neutral': (['m1', 'm3', 'm12', 'e1', 'e2'], 5.742041219988238, 12)}"
161,68,746,0,24.891533333332948,1.5070216539374997,144.74470317994903,7.535108269687385,19.59128150118738,46.74197175291065,48.22469292599965,45.31100634453598,73.90554653322536,54.33643846506156,53.49926871478078,49.73171457993715,45.21064961812465,2.260532480906249,26.372878943906017,2.260532480906249,0.7535108269687498,19.591281501187325,19.821775095094537,19.591281501187325,36.16851969449965,55.75980119568703,60.450168346227954,"{'neutral': (['m1', 'm3', 'm12', 'e1', 'e2'], 5.742041219988238, 12)}"
162,68,747,0,24.924899999999614,1.502697886174019,142.78793142693556,9.016187317044114,21.03777040643638,45.0809365852208,45.0809365852208,43.57823869904678,73.64752847816924,52.6158887494944,52.59442601609089,48.08633235756884,45.0809365852208,3.005395772348038,27.048561951132456,1.502697886174019,1.502697886174019,10.625678653883451,10.939805741736462,10.51888520321819,39.07014504052472,55.59982178843899,66.27221380550542,"{'neutral': (['m1', 'm3', 'm12', 'e1', 'e2'], 5.742041219988238, 12)}"
163,68,748,0,24.95826666666628,2.995729448643033,137.8361130679524,10.4850530702505,22.517844335434845,43.463894586803576,46.43380645396644,44.9608992110079,74.8932362160748,52.44665905357167,53.92313007557391,49.42953590260936,46.43380645396644,2.995729448642919,26.961565037786954,1.4978647243215164,2.995729448643033,19.47224141617949,19.984007965402625,18.723309054018728,38.94448283235892,53.92313007557391,55.60286910943838,"{'neutral': (['m1', 'm3', 'm12', 'e1', 'e2'], 5.742041219988238, 12)}"
164,68,749,0,24.991633333332945,1.48673204425495,136.8520493394012,10.407124309784308,22.30098066382357,43.11522928339218,43.14085497913658,41.73455727660848,74.47028788771149,52.22642300143977,52.03562154892154,47.57542541615692,43.11522928339218,3.716830110637375,28.9912748629705,3.7168301106371473,3.7168301106371473,26.80244309218224,27.13031391416219,26.761176796588245,38.655033150627446,53.52235359317649,58.15384271279049,"{'neutral': (['m1', 'm3', 'm12', 'e1', 'e2'], 5.742041219988238, 12)}"
165,68,750,0,25.02499999999961,9.17917585213264,149.51756770661686,10.563330500718848,24.14475543021456,49.79855807481749,51.30760528920587,39.264236988467815,83.05245310719357,58.93017758552445,54.325699717982616,49.79855807481749,43.76236921726377,7.545236071941986,36.21713314532178,7.545236071941986,0.0,10.563330500718848,12.443922117935037,12.826901322301469,31.689991502156545,45.271416431652256,63.45180170497954,"{'neutral': (['m1', 'm3', 'm12', 'e1', 'e2'], 5.742041219988238, 12)}"
166,68,751,0,25.05836666666628,8.128492777847459,151.0102302938603,10.565962506764777,22.641348228781567,46.79211967281526,48.30154288806728,39.50538612997311,80.35463786696349,57.85247231007511,53.58452414144972,48.30154288806739,43.77327324231112,6.792404468634572,33.96202234317229,6.792404468634345,0.7547116076261773,24.15077144403369,24.338718025256,24.90548305165976,30.188464305042142,45.28269645756319,59.17632065695241,"{'neutral': (['m1', 'm3', 'm12', 'e1', 'e2'], 5.742041219988238, 12)}"
167,68,752,0,25.091733333332943,9.078686844513626,152.30357871861625,11.940215386404134,25.416817638431755,50.7459153922174,53.75169478220789,38.83439183968191,85.19178421337999,59.775656694930014,55.22349616211898,46.26833462231582,41.79075385241436,5.223844231551766,41.04449039076405,11.193951924753948,2.2387903849507893,14.92526923300511,14.999709940344385,15.671532694655411,34.32811923591174,46.26833462231582,58.38051064926231,"{'neutral': (['m1', 'm3', 'm12', 'e1', 'e2'], 5.742041219988238, 12)}"
168,68,753,0,25.12509999999961,7.695263598508745,158.4911057598571,12.073322846472706,22.637480337136367,52.82078745331819,52.84234256029703,39.69994218198143,81.84352747361176,59.33918427174058,55.08453548703176,43.76579531846357,40.74746460684537,3.018330711618092,39.23829925103644,12.07332284647282,6.03666142323641,25.70015993414377,25.83274977338053,26.41039372665904,31.692472471990925,46.78412603008178,58.93479115548757,"{'neutral': (['m1', 'm3', 'm12', 'e1', 'e2'], 5.742041219988238, 12)}"
169,68,754,0,25.158466666666275,8.067153422789522,157.3219735820893,10.486229480797531,23.968524527537284,53.92918018695877,56.94495329919087,40.5576987318253,82.60941137389439,58.72976341159375,54.67819657844427,40.44688514021914,37.45081957427692,1.4980327829711086,43.44295070616124,16.478360612681854,7.490163914855429,13.482295046739694,12.077526411713778,12.73327865525414,32.95672122536365,44.94098348913229,63.077676193973794,"{'neutral': (['m1', 'm3', 'm12', 'e1', 'e2'], 5.742041219988238, 12)}"
170,68,755,0,25.19183333333294,9.250280042013726,165.82306798202984,7.754265961474775,21.29031339677215,57.78799350552436,60.82946684792034,46.02584340545848,83.86142325483986,62.64622988852168,57.78799350552436,45.622100135940286,41.059890122346246,2.28110500679702,40.29952178674728,14.446998376381089,5.322578349193009,22.86168509157991,23.01292170272924,24.331786739168138,31.935470095158166,48.66357347833628,62.5168908302678,"{'neutral': (['m1', 'm3', 'm12', 'e1', 'e2'], 5.742041219988238, 12)}"
171,68,756,0,25.225199999999607,7.754658271809564,164.27603063600563,7.604068047923192,21.291390534184984,56.270103554631646,57.81092440634741,47.53606980273624,83.98967678857016,62.81530947051804,58.55132396900865,45.624408287539154,42.58278106836997,3.0416272191693,39.54115384920067,13.687322486261792,6.083254438338599,13.687322486261737,14.021208684821636,15.208136095846385,31.93708580127742,47.14522189712386,59.38967000686442,"{'neutral': (['m1', 'm3', 'm12', 'e1', 'e2'], 5.742041219988238, 12)}"
172,68,757,0,25.258566666666272,3.4008638441062,156.72042594449758,12.167300380228085,25.85551330798478,56.2943133789255,57.814685349804456,41.17714485378216,82.25592263415946,56.45843708979648,54.752851711026665,45.62737642585546,41.06463878326997,2.2813688212927445,38.783269961977226,8.365019011406844,3.802281368821241,12.26198897079622,12.261988970796274,13.688212927756696,31.93916349809882,45.62737642585552,62.52412103754976,"{'neutral': (['m1', 'm3', 'm12', 'e1', 'e2'], 5.742041219988238, 12)}"
173,68,758,0,25.29193333333294,6.270475149194357,152.11177418963672,9.1248816575079,22.812204143769577,51.70766272587775,54.74928994504705,43.01510465032352,80.96100922955038,58.289038056557104,54.74928994504705,54.74928994504705,51.70766272587775,10.645695267092492,27.374644972523583,0.0,4.562440828753893,21.291390534184984,23.014085991787987,23.57261094856193,31.93708580127748,45.62440828753927,59.48695044881463,"{'neutral': (['m1', 'm3', 'm12', 'e1', 'e2'], 5.742041219988238, 12)}"
174,68,759,0,25.325299999999604,4.701979215123084,147.27031261323677,10.408274681391958,25.277238511951964,53.52826979001589,55.01516617307186,40.25619214408752,80.41621725615512,55.19570868044196,52.78482159848795,50.55447702390393,46.093787874736,8.177930106807935,31.96827223570392,2.230344574584024,2.23034457458391,13.382067447503973,12.261261683377446,12.638619255975982,31.22482404417593,44.6068914916799,62.52041258480921,{}
175,68,760,0,25.35866666666627,4.528172926779689,149.46019622015925,12.075127804745875,24.15025560949175,51.319293170169885,52.82868414576319,41.00434982407712,81.6327983583603,57.53532309194876,55.09277060915304,52.82868414576319,49.80990219457669,10.56573682915257,30.187819511864745,1.5093909755933057,3.018781951186384,16.603300731525565,15.392828076381518,16.60330073152562,33.20660146305113,46.79112024339025,61.90343446961784,{}
176,68,761,0,25.392033333332936,3.0069876190617606,148.85348035295365,10.524456666715992,25.559394762024567,49.6152957145182,52.6437574349976,41.0373946333915,79.91179211928446,54.45886199242925,52.62228333357996,48.111801904987374,46.60830809545655,6.765722142888876,32.32511690491344,2.255240714296292,0.7517469047653549,18.104462906094536,18.29079161829925,18.041925714370336,33.0768638096788,46.60830809545655,61.80804351905145,{}
177,68,762,0,25.4253999999996,2.086704081316413,147.5596380514505,8.85313563737111,23.608361699656143,50.167768611769134,50.167768611769134,40.08427643828214,74.01183739856933,50.51375732281128,49.43000730865492,45.74120079308364,44.26567818685521,5.164329121799824,28.772690821455853,2.213283909342749,0.7377613031142118,11.804180849828072,13.361425479427387,13.279703456056552,35.4125425494841,48.69224600554065,62.12984003459353,{}
178,68,763,0,25.458766666666268,3.2993688498645626,150.5683883489809,8.85313563737111,23.60836169965603,51.64329121799767,53.11881382422621,41.55109385398473,76.95384418764598,53.44570191770959,51.643291217997785,47.21672339931217,42.790155580626674,3.688806515571287,31.72373603391281,5.164329121799824,2.213283909342749,22.181968652422366,24.019767792283307,23.608361699656143,30.985974730798603,47.21672339931212,62.12984003459353,{}
179,68,764,0,25.492133333332934,4.6674413965844295,146.15129664609557,8.855847395138653,22.13961848784652,50.20483605537136,50.18313523911854,43.03168345762004,78.44912425470785,56.39690897398904,53.87307165375967,48.70716067326214,45.75521154154933,4.427923697569327,30.99546588298506,5.903898263425731,1.4759745658564043,13.283771092707866,14.833360806794994,15.497732941492472,30.995465882985,44.27923697569287,63.535519223573374,{}
180,68,765,0,25.5254999999996,4.772705624883137,157.0285429397758,12.074096300902395,22.638930564191924,52.82417131644786,54.33343335406062,41.19483661993877,80.34605752269147,57.84629476833532,55.08806437286705,48.29638520360948,43.76859909077109,5.28241713164482,33.958395846287885,8.300941206870334,2.2638930564191924,24.195311071198,24.336119113913192,24.90282362061112,33.20376482748145,45.27786112838385,57.43133733915116,{}
181,68,766,0,25.558866666666265,10.44594337642252,164.21157514575478,13.430498626828808,22.384164378048126,53.72199450731546,56.72618159135751,37.42613243736334,83.62082565690132,61.256133411270646,55.96041094512032,43.27605113089305,38.79921825528345,3.730694063007945,42.52991231829151,15.66891506463378,5.22297168821126,17.907331502438524,19.62784767487272,19.399609127641668,28.35327487886093,41.783773505689794,64.32391689603016,{}
182,68,767,0,25.59223333333293,11.895910780669167,157.6839320928571,14.869888475836431,23.79182156133833,50.57948357381393,53.55224715351413,35.81143369157556,86.29661340399652,62.52430049554984,56.505576208178354,47.58364312267656,43.12267657992561,9.66542750929375,40.89219330855019,12.6394052044609,0.7434944237918444,19.387962543353623,21.290440242790133,21.561338289962805,29.739776951672862,43.12267657992567,65.57941136416338,{}
183,68,768,0,25.6255999999996,17.90460342543297,160.75681174296523,14.868963830559892,23.790342128895983,52.12626966797465,55.09548032703309,38.77351390682306,95.17298418465543,71.38651321043227,62.44964808835175,47.58068425779186,40.146202342511856,5.204137340695979,51.29792521543186,24.53379032042392,3.7172409576400014,20.869585243295248,22.745141015679188,23.04689393736794,25.277238511951964,40.14620234251191,64.09196101407585,{}
184,68,769,0,25.658966666666263,15.035894053464176,159.49391504297998,10.52512583742498,22.55384108019632,51.21040983871545,54.15009775181764,42.52793058562814,90.41562064781694,67.92830209003226,60.14357621385693,46.611271565739,40.59691394435333,1.5035894053463608,46.61127156573912,21.05025167484996,4.51076821603931,21.050251674849846,19.77663091321451,21.050251674849903,30.071788106928462,45.10768216039264,63.22231397671366,{}
185,68,770,0,25.69233333333293,8.92137829833598,165.2128569537039,11.895171064447936,22.30344574584001,55.03525569945737,58.06515996934933,40.3932582272266,83.3855945931732,61.12572979660078,56.502062556127726,46.09378787473588,38.65930595945588,2.230344574584024,40.8896505340399,15.612412022087938,5.204137340695979,22.30344574583995,24.20491946475809,24.53379032042397,28.25103127806392,44.606891491679846,61.12572979660089,{}
186,68,771,0,25.725699999999595,11.893856354039258,156.36152528040355,10.407124309784308,22.30098066382357,50.63626880844055,52.1205084268011,39.10981389138456,83.46911455321707,61.24542084833912,55.009085637431326,47.57542541615692,38.655033150627446,4.460196132764736,40.1417651948824,14.867320442549044,1.48673204425495,20.814248619568616,21.286763378680742,22.30098066382345,23.78771270807846,44.60196132764708,62.72529366306362,{}
187,68,772,0,25.75906666666626,2.961663203965145,154.2625714720987,10.36582121387778,19.250810825772987,48.957107973604685,50.43530698606892,39.51351553838624,71.63307634205461,52.58516213111323,50.34827446740644,47.38661126344141,38.50162165154609,4.442494805947717,28.135800437668195,7.404158009912635,1.4808316019824588,17.831573790537316,20.14148736276901,19.99122662676428,29.616632039650824,50.34827446740644,62.47635373087747,{}
188,68,773,0,25.792433333332927,1.46864414024526,152.1305508520933,10.384882307173104,20.61340280747741,51.59102502931188,53.19655328315802,40.62068982880149,70.87634624658716,50.70545737814286,49.93390076833873,46.99661248784821,30.84152694515035,0.7343220701226301,31.575849015273093,9.54618691159419,3.6716103506131503,20.61340280747736,22.799488199806024,22.029662103678906,29.372882804905203,49.93390076833879,60.50029579529684,{}
189,68,774,0,25.825799999999592,1.4465339964516488,156.6536879575339,8.798922792418292,18.80494195387064,52.155524959080594,55.044372582354114,45.97156957206402,73.03206197805973,54.47117710219168,53.52175786870896,44.84255388999941,33.27028191838667,5.786135985806368,33.27028191838656,11.572271971612736,8.679203978709552,18.804941953870696,22.45624646499369,22.421276944999704,28.93067992903184,56.41482586161203,57.0785525280736,{}
190,68,775,0,25.85916666666626,15.987215339548657,154.1071638980457,10.13190127535904,21.711217018626485,47.85231912466044,52.42758184569232,36.9019730806081,84.39804134277182,62.84179572546908,54.27804254656621,50.65950637679521,36.185361697710846,7.237072339542124,40.527605101436166,18.81638808280968,1.447414467908402,20.315430156814283,21.074672763415727,21.711217018626485,27.500874890260206,52.10692084470355,54.04111441137616,{}
191,68,776,0,25.892533333332924,4.732717114523098,165.306702129836,10.476315922207164,19.513492559347288,54.06494957767075,55.69746550001076,45.51781567654885,79.67287140853406,60.53439358254117,57.61973757213934,46.39511336977455,31.42894776662149,5.986466241261269,40.40864712851328,19.45601528409896,8.97969936189179,22.49908031600107,21.42828811093073,21.70094012457196,26.9390980856756,50.8849630507205,64.7881143035911,{}
192,68,777,0,25.92589999999959,2.948638814764763,153.9022814651712,11.794555259059166,23.58911051811833,48.853170327552405,53.40212020191249,39.33974851303546,77.17326311007712,53.80760909350263,51.60117925838381,50.12685985100143,36.85798518455988,5.160117925838449,33.17218666610381,8.108756740603098,0.7371597036910771,20.64047170335357,23.3110366295902,22.85195081442714,26.537749332883152,51.601179258383866,65.47040655096927,{}
193,68,778,0,25.959266666666256,2.0870448975341547,153.93282573745466,7.378817998435807,20.66069039561989,47.31658051700347,48.7895570277346,41.97503383618277,68.4601628032803,48.047381763122566,47.96231698983206,45.74867159030134,33.94256279280421,1.475763599687184,28.0395083940557,5.903054398748623,4.427290799061552,20.66069039561995,21.12971915201706,21.398572195463544,26.56374479436852,48.7001987896756,65.35150460730641,{}
194,68,779,0,25.99263333333292,0.0,149.95154787644165,8.886694914058808,20.735621466137104,47.41884299573409,48.96650434498987,41.31224716632802,70.38027982700082,49.96433959222678,48.876822027323215,45.91459038930361,35.54677965623512,0.7405579095050143,28.881758470690897,6.665021185543992,3.7027895475243895,22.216737285146905,22.65671538906568,23.69785310415665,25.178968923166508,47.39570620831336,63.96294309429297,{}
195,68,780,0,26.025999999999588,0.0,150.76863521433322,10.31935970359504,20.431289826962484,46.79121324854931,48.2478349500892,39.69936943383678,69.34732569247947,49.23102521372077,48.15946887784037,49.6188467226234,37.94382396435901,5.837511379132252,24.809423361311588,4.378133534349104,1.1368683772161605e-13,21.939259668654568,20.89511084531346,21.890667671745632,24.8094233613117,45.24071318827424,58.829401683986525,{}
196,68,781,0,26.059366666666254,2.0795009796401827,151.7109627423682,10.397504898200625,20.586009418626645,47.14554806874884,48.72426555684607,39.2359460120367,71.1298774036583,50.76708872190028,49.259379680285065,48.524165058191215,39.70158959306559,5.881716976750454,26.4677263953771,5.881716976750454,0.0,22.05643866281423,23.93685386538871,24.262082529095665,24.997297151189457,47.05373581400369,60.73424609434654,{}
197,68,782,0,26.09273333333292,1.4756531296951607,151.1014043250176,8.85391877817085,20.659143815732023,47.31303857961444,48.89736466087535,39.375336663138384,66.99205176786309,46.59420031185771,46.48307358539694,48.69655327993962,35.41567511268329,3.689132824237845,24.348276639969868,2.213479694542684,0.7378265648475235,22.134796945427127,22.57315231082933,22.8726235102746,28.037409464207656,50.17220640963478,60.95001217029809,{}
198,68,783,0,26.126099999999585,5.920081816096058,154.78070607582563,9.002612961812183,19.29710580724497,52.13790881415215,53.6086208940337,39.49187141124823,72.76223701649275,53.79217767537573,50.32069543681632,51.80071589084048,35.520490896576234,5.1800715890840365,28.86039885346827,8.140112497132122,2.2200306810360644,20.720286356336203,21.549423087355287,21.460296583348168,28.120388626456247,50.32069543681644,62.59979164346618,{}
199,68,784,0,26.15946666666625,4.732717114523133,156.51632874434492,9.103563135309823,18.021649859223587,55.4556519173795,57.04838490150589,44.04224945863096,75.06990475272245,57.36162478459031,54.62650445150871,50.88496305072056,34.422180887252125,0.7483082801575165,32.17725604677901,12.721240762680054,3.741541400788151,19.513492559347345,21.42828811093073,21.70094012457196,25.442481525360225,47.891729930089866,63.49606311810244,"{'neutral': (['m1', 'm3', 'm12', 'e1', 'e2'], 5.32495920878874, 40)}"
200,68,785,0,26.19283333333292,16.27120575594006,153.07402823359064,10.459527207369812,20.761568703803057,48.90318361335353,51.96185320053726,39.16391152339062,85.90831924929807,65.35321518519756,56.94922014579026,53.25121883762199,38.45921360494924,7.396002616336318,39.93841412821655,17.75040627920737,1.4792005232671954,22.188007849009125,22.96336733400048,23.667208372276377,28.104809942078305,53.25121883762199,64.2218377535589,"{'neutral': (['m1', 'm3', 'm12', 'e1', 'e2'], 5.32495920878874, 40)}"
201,68,786,0,26.226199999999583,10.461601850371292,158.8648580441081,13.315445298848315,22.241670620844364,57.77608462771266,59.253685403392446,40.38232519070452,86.0144735346139,64.04688006119373,58.44000992272299,53.26178119539316,39.94633589654484,6.657722649424159,39.20658893549785,14.05519225989542,2.219240883141424,19.23342098722537,19.738910893498243,19.97316794827248,31.06937236397937,54.74127511748748,65.51669514461676,"{'neutral': (['m1', 'm3', 'm12', 'e1', 'e2'], 5.32495920878874, 40)}"
202,68,787,0,26.25956666666625,22.188007849009185,154.41181479086546,8.997625517727682,20.761568703803057,50.37975444679789,53.333333333333336,37.24531749379611,88.7643572111639,68.10750677151876,56.94922014579015,53.25121883762199,39.93841412821644,9.614803401237282,42.1572149131174,19.96920706410833,5.177201831435468,22.188007849009185,21.53748471533409,21.448407587375584,36.98001308168193,57.688820407423805,65.23592948465208,"{'neutral': (['m1', 'm3', 'm12', 'e1', 'e2'], 5.32495920878874, 40)}"
203,68,788,0,26.292933333332915,29.265572556090547,155.7962313651858,8.90077640859547,21.99790129592422,47.03023948370817,50.09459102053728,36.69884128264542,96.57638943509868,74.64155450831575,59.99442373998557,57.06786648437651,42.43508020633124,13.169507650240575,46.82491608974488,23.41245804487255,8.77967176682705,20.53809425166152,19.90274110214609,19.75426147536104,40.97180157852671,62.92098099559456,70.374422799832,"{'neutral': (['m1', 'm3', 'm12', 'e1', 'e2'], 5.32495920878874, 40)}"
204,68,789,0,26.32629999999958,20.748569181259995,152.0446592943426,8.892243934825729,20.801431863575857,53.43573576824616,55.01545717813727,40.26134678605663,90.45305844926727,69.79766409489054,59.28162623217145,54.83550426475858,38.53305705091145,6.669182951119296,43.72019934622642,21.4895895091621,3.705101639510645,19.26652852545567,19.772888559118226,20.007548853357832,38.5330570509114,66.6918295111928,72.75597060139374,"{'neutral': (['m1', 'm3', 'm12', 'e1', 'e2'], 5.32495920878874, 40)}"
205,68,790,0,26.359666666666246,29.40520745253491,157.20102009794542,11.853618081226246,22.249076699932697,48.718669814779936,53.25509570990646,31.18893238782695,94.09666384811167,72.10274391294871,57.34015453244308,55.86989415981634,35.28624894304187,14.702603726267512,48.51859229668253,26.46468670728132,8.821562235760553,20.58364521677441,18.186116440500143,19.11338484414773,41.167290433548885,69.10223751345706,75.21355449119106,"{'neutral': (['m1', 'm3', 'm12', 'e1', 'e2'], 5.32495920878874, 40)}"
206,68,791,0,26.393033333332912,25.1125551512772,159.54294837370514,7.5193201916393235,20.85484192891336,50.22511030255452,53.59734949199576,35.51451608077872,88.4796008910489,67.89844606415954,55.299750556905565,54.56242054948018,30.96786031186707,7.373300074254075,45.71446046037522,25.069220252463765,4.423980044552536,17.695920178209747,16.813711093092326,17.695920178209803,36.86650037127038,69.30902069798833,66.50700318176429,"{'neutral': (['m1', 'm3', 'm12', 'e1', 'e2'], 5.32495920878874, 40)}"
207,68,792,0,26.42639999999958,17.833025874097984,163.94156733263958,9.03950513240017,21.01642254108321,49.39977065483252,52.54105635270784,38.89457939426544,86.1929583914739,65.45527602360151,56.47124860131044,53.49907762229407,28.235624300655218,2.2291282342621344,45.32560742999931,24.52041057688484,0.7430427447541206,17.894838974083473,18.38186232581973,18.57606861885216,37.15213723770421,71.33210349639216,72.954538569752,"{'neutral': (['m1', 'm3', 'm12', 'e1', 'e2'], 5.32495920878874, 40)}"
208,68,793,0,26.459766666666244,26.44682736368065,164.7743494457698,10.389294983182568,22.234062204957525,51.61294674895357,54.85705162422217,34.079421425018054,92.56389577288236,70.58606592967465,57.30145928797481,55.83219110110372,32.323900111165244,10.284877308097975,48.48585016674792,26.446827363680768,5.87707274748459,20.569754616196064,18.58493585655492,19.10048642932492,32.323900111165244,67.58633659607278,65.0638670746687,"{'neutral': (['m1', 'm3', 'm12', 'e1', 'e2'], 5.32495920878874, 40)}"
209,68,794,0,26.49313333333291,13.32547563016078,159.7754157786614,10.469482422914302,20.93896484582849,50.8821154164372,52.34741211457129,40.222437993323645,84.39467899101874,63.73498964673569,57.00342352902146,53.301902520643466,32.57338487372658,2.961216806702396,41.45703529383377,20.728517646916885,0.0,20.781329242438243,20.13845153316733,20.728517646916885,28.13155966367288,62.1855529407506,66.89007952720235,"{'neutral': (['m1', 'm3', 'm12', 'e1', 'e2'], 5.32495920878874, 40)}"
210,68,795,0,26.526499999999576,26.898273122996216,159.4127394324887,10.566639626377,22.46498399580139,46.54121975279722,51.15825234478583,33.41464843354171,92.69779968044898,70.37731030667051,56.78524325965873,55.29089475282558,37.35871267082814,13.449136561498108,46.32480371182692,23.90957610933004,8.966091040998663,22.46498399580133,20.81386622460211,21.668053349080367,32.87566715032875,62.762637286991264,66.02247497386637,"{'neutral': (['m1', 'm3', 'm12', 'e1', 'e2'], 5.32495920878874, 40)}"
211,68,796,0,26.55986666666624,25.26600588091944,159.0921481991752,8.902025711792021,19.34470247716345,50.532011761838994,52.013195419665664,37.35788001224672,90.61331310311044,71.46305636758939,58.60500260263064,50.44481236682134,40.05911570306398,8.160190235809296,45.25196403494272,24.480570707428,3.709177379913285,20.82431416061586,21.242935207020523,21.513228803497327,34.12443189520269,59.3468380786133,71.6015358832519,"{'neutral': (['m1', 'm3', 'm12', 'e1', 'e2'], 5.32495920878874, 40)}"
212,68,797,0,26.593233333332908,32.46851693205936,156.9717503790504,10.32023585167667,19.22277325328856,48.741811235097984,50.32161203654746,31.275037517850777,92.9873715630669,73.95148525148561,57.49845688791345,56.02413748053107,41.280943406707024,17.691832888588692,44.2295822214719,25.06342992550072,11.794555259059166,22.163880607566675,22.55275028253413,23.58911051811833,33.90934636979512,58.97277629529583,63.82287675967545,"{'neutral': (['m1', 'm3', 'm12', 'e1', 'e2'], 5.32495920878874, 40)}"
213,68,798,0,26.626599999999573,25.54207931893268,164.10716753491704,9.014851524329174,21.08824511765503,51.10624908587639,52.60809344551366,39.78014271244015,94.84653961981526,74.00357939200353,60.850247789221896,57.09405965408479,46.57673287570077,12.771039659466396,42.82054474056349,20.283415929740613,8.263613897301866,25.58623160654364,24.45852511083846,25.54207931893268,34.55693084326185,57.09405965408479,67.76146738613369,"{'neutral': (['m1', 'm3', 'm12', 'e1', 'e2'], 5.32495920878874, 40)}"
214,68,799,0,26.65996666666624,27.120423548988697,163.16835731100116,9.040141182996194,16.64193716875604,49.74359990750066,51.31601900258858,39.63483092386639,92.01918417580744,75.57519580652348,61.7742980838076,60.267607886641485,48.21408630931319,15.066901971660286,37.66725492915111,21.093662760324605,9.04014118299608,22.600352957490543,23.39012183394799,23.35369805607354,34.65387453481884,58.76091768947549,72.57181004045619,"{'neutral': (['m1', 'm3', 'm12', 'e1', 'e2'], 5.32495920878874, 40)}"
215,68,800,0,26.693333333332905,25.38238526637344,164.63165654952076,9.066387872719426,19.60453223049897,52.18896305237429,55.22919350856736,40.68286871301424,93.9491197447072,74.76334968408281,61.855956868895134,58.12969440691353,43.224644558987,10.43353489354854,43.22464455898705,22.35757477188986,5.9620199391705455,19.376564802304472,21.340783666182706,21.61232227949353,35.77211963502373,58.12969440691353,68.82195938697775,"{'neutral': (['m1', 'm3', 'm12', 'e1', 'e2'], 5.32495920878874, 40)}"
216,68,801,0,26.72669999999957,24.198024160756063,165.68635146906036,7.561882550236305,19.718977163744185,51.50968784069224,54.63427435343362,41.27984517372051,92.3664684903151,72.84569913791154,60.49506040189033,55.95793087174855,39.32178926122879,6.805694295212675,44.61510704639409,24.954212415779693,3.7809412751181526,22.736004311229745,24.61970588081469,24.95421241577975,31.759906710992425,58.98268389184307,69.83184612882786,"{'neutral': (['m1', 'm3', 'm12', 'e1', 'e2'], 5.32495920878874, 40)}"
217,68,802,0,26.76006666666624,20.989566077669817,162.859348019704,11.963557308482224,21.1487812498542,49.55317857074826,52.68127024415508,38.996425790118565,92.72962839410695,71.92140514280933,61.31323120597142,58.32234187885081,37.386116589006974,8.97266798136161,44.86333990680839,23.927114616964445,2.990889327120499,22.48146284475784,23.215544205699576,23.927114616964445,34.39522726188642,61.31323120597142,72.16973183810835,"{'neutral': (['m1', 'm3', 'm12', 'e1', 'e2'], 5.32495920878874, 40)}"
218,68,803,0,26.793433333332903,33.82783240857321,155.12998656589386,10.285710001787606,20.623831349675147,50.045522762375874,53.0812927699525,32.62568923621047,97.07968523714526,76.63385758042389,59.51017929605706,64.65303429695092,48.489775722713205,24.24488786135657,40.40814643559429,19.836726432018963,18.36733928890657,22.040807146687825,24.23375358391001,23.51019428980038,35.26529143470054,58.77548572450087,60.69120340908975,"{'neutral': (['m1', 'm3', 'm12', 'e1', 'e2'], 5.32495920878874, 40)}"
219,68,804,0,26.82679999999957,4.663728148203099,152.76824453362815,11.798402668928816,22.171110514173943,45.932395357885774,48.869106339174,41.94763573127365,79.76202335886349,57.81894472351164,55.30501251060366,58.99201334464385,42.76920967486683,9.586202168504656,28.758606505513853,5.161801167656336,3.687000834040191,25.071605671473662,27.55154392022192,26.546406005089693,33.92040767317019,58.99201334464385,63.84369592246363,"{'neutral': (['m1', 'm3', 'm12', 'e1', 'e2'], 5.32495920878874, 40)}"
220,68,805,0,26.860166666666235,2.1486597131122323,157.08745213385816,10.743298565561208,19.809663748632456,45.68113210466348,47.319321666043805,47.489754557211,76.10320970216591,56.54282849933721,56.97494451015029,60.77327414416027,47.0992874617242,6.836993341217976,22.0303118772581,2.27899778040603,0.7596659268019721,25.82864151126813,25.0574628510992,25.068975584466106,36.4639644864962,59.25394229055632,67.28084542258603,"{'neutral': (['m1', 'm3', 'm12', 'e1', 'e2'], 5.32495920878874, 40)}"
221,68,806,0,26.8935333333329,2.1265016971441684,147.97915680454233,10.525646391787744,19.605376935330003,42.20985347493148,43.83895555190449,48.70106740045456,77.05451597036975,57.8471002409665,57.89105515483266,63.153878350726586,49.62090441842804,8.27015073640473,20.299460898447705,0.7518318851276717,2.255495655383129,25.56228409434169,25.95726123314326,25.562284094341635,39.09525802664018,60.14655081021567,66.587012872873,"{'neutral': (['m1', 'm3', 'm12', 'e1', 'e2'], 5.32495920878874, 40)}"
222,68,807,0,26.926899999999566,3.333495382186487,152.52699448641917,12.01908852699592,20.92415693987501,44.822809110106455,44.94659506552316,46.43021800329429,80.62649692185228,59.92879342069753,58.88598599028074,61.12216267345588,49.19588702985476,8.944706732700752,25.34333574265247,4.4723533663504895,1.4907844554501253,23.85255128720229,24.5866470993994,23.852551287202232,38.76039584170371,61.12216267345588,67.49813701024753,"{'neutral': (['m1', 'm3', 'm12', 'e1', 'e2'], 5.32495920878874, 40)}"
223,68,808,0,26.960266666666232,2.1339176325557405,153.0035311418626,12.071261027789774,21.17852779490199,42.35705558980409,45.367711172866535,48.87090689355207,80.32719043641683,59.53974365145908,59.601851324712015,61.86521276742258,48.285044111159095,6.7900843281317975,24.896975869816288,3.772269071184269,0.7544538142369674,24.189629460481783,24.885542125989552,24.14252205557949,39.23159834031674,61.86521276742252,72.99121331477431,"{'neutral': (['m1', 'm3', 'm12', 'e1', 'e2'], 5.32495920878874, 40)}"
224,68,809,0,26.99363333333289,6.127583471701831,156.618698234782,14.861572872714872,22.292359309072253,44.68368592886191,49.24543129871178,42.27066071580506,85.17898531941918,63.052313744368405,59.44629149085949,56.47397691631648,43.09856133087317,8.17386507999322,34.92469625087995,12.632336941807694,2.2292359309072936,25.26467388361528,24.51033388680702,23.778516596343763,41.61240404360166,62.41860606540246,68.76589646077643,"{'neutral': (['m1', 'm3', 'm12', 'e1', 'e2'], 5.32495920878874, 40)}"
225,68,810,0,27.026999999999564,17.069312060639113,167.91313209585886,10.479543918786362,19.462010134889056,47.92987261687384,49.494213006422285,39.63723495854524,86.16979505257623,66.95135021600268,57.63749155332516,47.90648648588069,38.92402026977811,4.491233108051347,41.91817567514556,22.456165540256507,1.4970777026837825,22.506012805898823,21.43489066484712,21.707626688914672,35.92986486441055,56.888952701983385,67.51803841769636,"{'neutral': (['m1', 'm3', 'm12', 'e1', 'e2'], 5.32495920878874, 40)}"
226,68,811,0,27.06036666666623,25.73939925634176,182.0050375782725,7.455216823969522,19.440826980051447,50.69547440299209,53.69826607496319,38.01429606348524,90.06938681913081,71.08696819795249,57.4051695445645,41.74921421422869,35.78504075505316,1.4910433647938817,50.69547440299209,29.820867295877747,2.982086729587764,22.41529681595281,24.59091714168621,24.602215519099104,34.293997390259335,59.64173459175532,70.47447655190189,"{'neutral': (['m1', 'm3', 'm12', 'e1', 'e2'], 5.32495920878874, 40)}"
227,68,812,0,27.093733333332896,27.315087216359053,184.11956442388444,8.981145353053876,21.00939700796495,50.91516485334337,53.88687211832337,37.42143897105797,93.77785727181958,73.39182824891311,58.37744479485031,37.42143897105797,38.91829652990026,2.2452863382634405,54.635300897744514,30.685579956267475,5.2390014559481415,21.00939700796495,21.43173868471695,22.452863382634742,34.42772385337332,58.37744479485036,67.77310846124684,"{'neutral': (['m1', 'm3', 'm12', 'e1', 'e2'], 5.32495920878874, 40)}"
228,68,813,0,27.12709999999956,10.078910407733842,177.34936850774216,9.014851524329174,18.029703048658348,51.10624908587639,52.67241964860764,47.17867995822436,83.50573097259176,65.71504548995867,60.09901016219453,37.56188135137154,42.06930711353607,6.761138643246909,42.820544740563605,20.283415929740613,12.771039659466396,22.587155795377875,22.98345191734807,24.039604064877835,34.5569308432618,57.09405965408473,72.36879149598643,"{'neutral': (['m1', 'm3', 'm12', 'e1', 'e2'], 5.32495920878874, 40)}"
229,68,814,0,27.160466666666228,4.748732109389513,163.6901114535173,10.51176662455282,19.52185230274074,46.576323700106144,49.57821875073198,46.26054837306077,80.49065905190761,61.256803589631744,57.81471643504,43.548747444575554,45.05042839094023,0.750840473182393,35.28950223956997,11.262607097735213,8.259245205005868,22.52521419547014,24.445594718451783,24.77773561501715,34.53866176638758,58.56555690822239,67.84208282180813,{}
230,68,815,0,27.193833333332893,3.367437643248417,158.1907372297056,12.047711168472231,22.63960158458433,45.20400931185378,48.21436961777152,47.28822553919724,84.66946354473568,62.40217222943852,60.23855584236077,58.73259194630174,54.21470025812465,9.78876532438369,27.86033207709181,2.258945844088544,0.7529819480295146,22.639601584584387,24.515316088148094,24.84840428497381,31.625241817239328,57.22662805024265,71.35472437227723,{}
231,68,816,0,27.22719999999956,3.354835916891136,145.809984196136,9.126140357048294,24.05209128338136,43.53537879159729,45.03484550959573,45.63070178524124,81.23969135071668,57.50388404097076,55.51214461009545,60.01312930821132,51.01115991197969,10.502297628936958,25.5055799559899,1.5003282327053284,4.500984698115758,22.55487898709896,22.95060880607525,23.25508760693191,33.00722111951626,57.01247284280083,64.94879156818621,{}
232,68,817,0,27.260566666666225,4.515460168241248,151.12369662437425,9.030920336482495,24.0824542306201,43.75312883881385,45.25483399593907,45.37981306295037,82.90649386907948,58.87439757879042,56.443252103015766,61.711288965963945,48.1649084612402,9.783497031189428,27.845337704154417,3.762883473534316,5.268036862948179,24.12944442989883,24.50212199587788,24.83503092532692,33.1133745671026,61.711288965963945,72.80960745707328,{}
233,68,818,0,27.29393333333289,1.486588292494389,143.4846518059246,9.042563563564524,20.865260986196635,43.13668370033767,44.82008231814756,44.8200823181475,75.83057591165927,55.08406433485465,54.26047267604309,63.92329657725628,49.05741365231296,11.892706339954657,19.32564780242637,1.4865882924942753,5.946353169977328,23.83182328536724,25.96214839282894,25.272000972403703,31.21835414238097,62.436708284762005,69.17029988904434,{}
234,68,819,0,27.32729999999956,1.499210779556165,154.1564896536462,11.993686236449207,22.687175853156788,48.34809489523726,49.67797290316954,45.20064559314922,80.97126248740682,58.6419511199294,57.71961501291196,61.46764196180243,41.9779018275724,6.746448508002686,29.23461020134505,6.746448508002686,0.7496053897781394,26.98579403201086,25.13135217595748,25.486583252454693,29.98421559112313,68.96369585958325,71.74314937274922,{}
235,68,820,0,27.360666666666223,1.490173963749271,158.27443459657707,12.014166585550209,22.55042401535008,46.578366416875625,49.53567783598968,44.80445370475447,80.48319076678602,58.13588624148976,57.3716976043462,59.60695854997016,35.76417512998205,2.980347927498542,32.78382720248351,11.921391709994056,2.980347927498542,25.37674818113005,26.405949914028,26.078044365611905,25.332957383737323,65.56765440496719,72.51499480255943,{}
236,68,821,0,27.39403333333289,8.872090153890351,165.2301059543344,13.207846422341907,22.072057832163672,48.48486863072458,51.56797655560252,38.0346601941612,81.73158257106242,59.80106809983806,55.42538019009385,59.80106809983806,35.00550327795395,9.480657137779076,34.27622195966342,13.85634504752352,2.1878439548720507,24.966570743607985,26.294611873351272,25.52484614017488,27.712690095046923,68.55244391932666,67.23641535854355,{}
237,68,822,0,27.427399999999555,0.0,165.16428718869753,12.12866666634734,20.800491729436807,52.00122932359192,53.45766842194829,45.97332192120138,77.95329439566717,57.43723512166184,57.36185814020792,55.891041264817886,30.88715438318889,2.2062253130849285,34.56419657166373,15.443577191594386,5.147859063864757,25.047108844539995,26.062941434393007,25.73929531932407,25.003886881629057,66.18675939254751,71.57303822841811,{}
238,68,823,0,27.46076666666622,1.5052812771496065,167.32337258599816,13.630901705816704,21.287891973312224,50.0378682028666,53.21972993328065,48.54386256027168,84.3091904605207,63.38288858577376,62.46917300170742,61.716532363132615,37.632031928739366,1.5052812771494928,34.62146937444027,13.54753149434623,4.515843831448819,25.634016457975328,25.23311225865164,25.58978171154285,28.600344265841954,69.24293874888053,74.73535841906327,{}
239,68,824,0,27.494133333332886,4.796563054962103,166.5036205431415,12.228884307715155,19.950473591520144,50.26102348736057,53.62720524629713,50.420981684167614,86.5111708146185,67.01469798314739,64.46427282575706,60.67225677718312,40.95377332459856,0.7584032097147428,35.64495085659519,15.926467404010625,5.308822468003655,25.830282558783665,25.01581232369229,25.027305920588105,27.30251554973239,62.189063196612665,70.57633605436968,{}
240,68,825,0,27.527499999999552,13.552534219959728,165.95697634488326,14.966270360917292,24.132385836087177,50.97328008659465,55.69785536219135,40.65760265987908,92.83914197631525,69.10463644620847,62.11002199780671,65.85158958803606,44.89881108275188,14.966270360917292,37.41567590229317,14.966270360917292,4.489881108275199,23.94603257746769,25.835788367647936,26.19097313160529,29.932540721834584,62.858335515852616,66.67973142600393,{}
241,68,826,0,27.56086666666621,10.62612856723719,163.65617952057804,13.608084275790665,21.25225713447416,51.29240074347896,52.93902699037231,42.31814844807594,87.17312166280122,66.27501990899664,60.86184129799284,64.61874508181967,43.58008389238995,12.022092108245602,33.06075329767509,13.524853621776174,4.508284540592172,24.0910997425004,25.94168586718327,26.29832648678706,30.055230270613777,60.11046054122755,65.05412761779925,{}
242,68,827,0,27.594233333332884,3.0488637358669166,166.01615971602126,15.32035066560379,21.39642087906949,50.51370098228895,53.896805563629584,48.87700390296176,82.31932086840425,60.99632713920965,62.50170658526986,70.12386592493692,48.78181977386919,10.671023075533869,22.866478019001192,3.048863735866803,1.5244318679334583,25.960139267568955,26.315774184913188,25.915341754867995,28.9642054907348,59.452842849403055,73.94673149971973,{}
243,68,828,0,27.62759999999955,4.606364699146752,170.4631574774219,15.431130763982466,18.67961506190565,51.04088589270374,52.7669525900502,49.230429187996464,87.53439715018926,69.1125289914705,66.79228813762853,76.77274498577987,53.74092149004599,16.122276447013746,22.26409604587616,5.374092149004582,6.909547048720128,26.147854734711725,26.815566998732155,26.870460745022967,30.709097994312003,61.41819598862395,71.44404164600627,{}
244,68,829,0,27.660966666666216,1.5174502460819213,170.40094686974786,13.7410964062341,21.459987182355803,53.305502320854615,56.65599189469838,50.16774050644986,84.97721378059322,63.80512895389526,63.73291033544496,77.38996255018316,51.59330836678879,14.415777337779218,20.485578322107244,2.2761753691229387,6.828526107369157,27.356223351070906,26.501129240977427,26.555379306435384,27.3141044294764,60.698009843280886,73.40445002479399,{}
245,68,830,0,27.69433333333288,1.5231934631012791,161.55906402269588,12.28037830004644,21.379039038947106,48.95592130471821,50.63329685363438,55.17241379310344,89.92003317520897,68.69585631720759,67.78210910800925,73.11328622886396,50.26538428234397,6.854370583956097,28.179079067374573,6.85437058395587,0.7615967315505259,25.8942888727226,26.60143021419261,26.65588560427329,30.463869262026662,62.45093198715461,78.41118264630225,{}
246,68,831,0,27.727699999999547,2.111413345069228,155.62276584540288,12.036908041371497,21.114133450692275,40.750824554440726,42.46513656997201,50.95903872475875,82.1282797377566,61.23098700700754,61.95927980872824,70.17075062675241,46.282835519772846,7.464973470931113,23.887915106979563,5.971978776744891,1.4929946941862229,26.873904495352008,27.529461915104555,27.620401842445062,32.84588327209684,65.69176654419374,75.37775213454601,{}
247,68,832,0,27.761066666666213,23.68146202018817,155.74050076212896,10.465826489304073,19.467562595266184,44.62420271797286,47.937598351466896,41.67975158626727,94.72584808075248,75.54268068999086,63.64392917925545,71.0443860605643,47.36292404037624,17.76109651514105,35.52219303028221,17.76109651514105,11.840731010094032,25.20504790323724,25.848684628733963,25.90159908458071,29.601827525235137,63.643929179255565,67.40512280118689,{}
248,68,833,0,27.79443333333288,29.859893883724453,163.00329821776324,12.036908041371497,23.93452571736341,50.95903872475869,55.56267562188183,37.444116435964965,103.0166338988493,79.14280239415122,64.19877185000752,70.17075062675241,46.282835519772846,20.90192571860712,44.78984082558668,20.90192571860712,13.436952247676004,25.42478348957532,26.07403138842946,26.127407148258897,31.35288857791068,64.19877185000752,60.3878981637579,{}
249,68,834,0,27.827799999999545,20.791729702663897,162.98883003194146,7.553429524893745,17.837808970094013,49.08611692773079,52.37361049539961,47.42632141106397,93.32501254403051,75.56334131624739,65.17937384027528,63.69802443481444,41.47778335290241,5.184722919112801,40.7371086501721,24.442265190103285,3.703373513651968,26.705406191335072,24.431040268643223,25.182939892833588,25.182939892833645,60.73532562389289,71.6581243326828,{}
250,68,835,0,27.86116666666621,22.307534429908888,166.2072615172093,10.4925815802004,19.34736447008593,50.53896538947088,53.60466771157055,43.26202214057656,95.01436730204118,75.80844808420636,64.5485676113612,65.29050517011234,43.03237840757407,11.129063381269134,40.80656573132024,21.51618920378712,6.677438028761458,25.225876997543423,24.472695378755425,25.225876997543423,31.16137746755362,65.2905051701124,69.04405704912669,{}
251,68,836,0,27.89453333333288,22.07718306050822,164.85610750842665,10.302685428237169,22.126189076547707,51.59746215160244,54.77435679276541,38.5210117637247,92.7708812847322,70.78483370186264,59.60839426337242,64.75973697749095,42.68255391698273,15.45402814235581,39.00302340689791,18.39765255042346,9.566779326220283,25.06405868057872,25.70409510180508,25.75671357059298,29.43624408067774,61.81611256942318,68.2768589260338,{}
252,68,837,0,27.927899999999543,20.76582300014184,165.9477003117721,13.431608926905463,20.81872964130316,50.51846043940804,53.58291892771463,37.3478616365729,91.97489153095124,71.25888367272252,60.81419592898675,63.78074207186416,43.01491907172232,16.31600378582573,38.56509985740627,17.79927685726443,7.416365357193513,25.215642214457887,25.9042505461717,25.95727875017729,28.18218835733535,60.814195928986805,67.15804463452722,"{'neutral': (['m1', 'm3', 'm12', 'e1', 'e2'], 2.5940144226341793, 126)}"
253,68,838,0,27.96126666666621,7.705196267624468,169.25818254401804,12.460959599327271,19.875592460847525,53.08289638745191,56.41939418133936,47.2328676239793,86.14671317192945,66.64335223396343,62.711202468238014,63.46675912448183,40.80005943716691,5.288896593706909,34.00004953097243,14.355576468632762,0.7555566562438116,27.20003962477796,24.921919198654543,25.68892631229028,27.20003962477796,60.44453249950652,76.09772198888736,"{'neutral': (['m1', 'm3', 'm12', 'e1', 'e2'], 2.5940144226341793, 126)}"
254,68,839,0,27.994633333332875,10.609967600789354,167.52329131707836,12.00380806190026,22.55710053295605,54.10043183501181,57.33310775374117,43.74601710243535,88.64245366520443,66.2931968123557,60.76927831337002,63.01999232497633,45.014280232126,10.503332054162684,34.510948177963314,12.003808061900372,3.000952015475036,25.50809213153809,24.74648427442778,25.50809213153798,28.509044147013128,60.01904030950129,72.58334591710796,"{'neutral': (['m1', 'm3', 'm12', 'e1', 'e2'], 2.5940144226341793, 126)}"
255,68,840,0,28.02799999999954,21.00616146697593,165.60568706511182,12.066192918043589,22.648076719708467,53.96165518874415,57.04878421963532,39.37011048665232,94.33500327844118,72.0871040171046,61.36170847976081,64.35496255194431,46.39543811884363,16.4628973970091,38.91230293838487,16.462897397008987,8.979762216550398,23.94603257746764,24.6830054078452,24.69434609551353,29.932540721834584,58.36845440757742,66.27540390974737,"{'neutral': (['m1', 'm3', 'm12', 'e1', 'e2'], 2.5940144226341793, 126)}"
256,68,841,0,28.061366666666206,4.526787302125968,168.4670517964377,10.562503704960475,18.35691478933416,51.392273309514685,54.6557366122403,48.661501335285685,81.5380385490045,63.66178850078282,61.11162857870005,58.848234927637066,40.74108571913331,1.508929100708542,31.687511114881545,13.580361906377902,3.017858201417312,24.1899736865939,24.88589625516006,25.65179471204692,28.669652913464176,58.84823492763701,68.31967076530053,"{'neutral': (['m1', 'm3', 'm12', 'e1', 'e2'], 2.5940144226341793, 126)}"
257,68,842,0,28.094733333332872,6.08545403721223,168.5146173266537,10.7576645407796,18.319642585996352,51.92732585514474,53.78832270389816,49.06249896342945,83.73029704481284,65.57765008889515,62.37590388142587,62.37590388142587,42.59817826048595,3.803408773257616,31.187951940712992,14.452953338379189,0.7606817546515003,25.863179658152205,24.76600362939737,25.102497903500648,30.42727018606137,60.85454037212281,73.420567922111,"{'neutral': (['m1', 'm3', 'm12', 'e1', 'e2'], 2.5940144226341793, 126)}"
258,68,843,0,28.12809999999953,0.0,160.0603247864733,10.720355235576791,19.767358338474416,50.12267668431415,51.747233564540565,51.74723356454045,81.88274418601085,62.233485776577446,62.159574247201135,65.19174860072314,48.51478965635204,5.306305118663545,25.01543841655655,5.306305118663545,0.7580435883804739,25.773482004937023,26.171722480697834,25.773482004937023,33.353917888742046,59.12739989367907,64.12529037725702,"{'neutral': (['m1', 'm3', 'm12', 'e1', 'e2'], 2.5940144226341793, 126)}"
259,68,844,0,28.161466666666204,2.1392974510777147,151.64133494450627,12.101693877057528,21.2319209692035,48.50122784293777,50.01108270932218,45.607694350990734,80.30205701051936,59.30524571611164,58.23940178333942,65.0466045891842,54.45762244675893,14.37076147900575,20.42160841753457,2.2690676019482225,6.807202805844895,24.203387754115056,24.62516294169224,24.95974362143113,31.766946427276025,57.483045916023286,63.98252074634172,"{'neutral': (['m1', 'm3', 'm12', 'e1', 'e2'], 2.5940144226341793, 126)}"
260,68,845,0,28.19483333333287,0.0,151.91409284259746,15.130255337128348,24.208408539405468,46.928188837538606,50.02145707967794,44.29316030355754,83.43619055238217,59.31754808090282,59.00799581480078,69.59917455079074,55.98194474737511,18.91281917141044,20.42584470512338,3.782563834282087,8.32164043542059,24.255644503422783,26.118870327194003,25.721434073118303,31.7735362079697,55.98194474737517,60.99200916274948,"{'neutral': (['m1', 'm3', 'm12', 'e1', 'e2'], 2.5940144226341793, 126)}"
261,68,846,0,28.228199999999536,3.35909182433937,144.59710086889595,12.017852259018923,24.035704518037846,45.09197621261258,46.6659950250546,45.291720163554885,84.33929728359466,60.38896021807316,58.58702976271701,69.1026504893585,58.58702976271701,18.77789415471705,20.28012568709437,3.755578830943477,9.764504960452882,25.58208117593173,24.77543712850132,24.786820284226337,33.04909371230195,52.5781036332076,63.379217783328016,"{'neutral': (['m1', 'm3', 'm12', 'e1', 'e2'], 2.5940144226341793, 126)}"
262,68,847,0,28.2615666666662,7.751577436479868,139.9913952509162,10.641465856467562,21.282931712935124,42.59300137151893,47.12649165007065,45.83374640738729,85.3486233226368,64.13770518959285,60.04827161863835,68.40942336300571,62.32858573073855,19.76272230486836,19.762722304868248,3.040418816133638,12.161675264534438,24.323350529068705,24.74721622242227,25.08345523310209,36.48502579360303,53.20732928233781,61.11166187651634,"{'neutral': (['m1', 'm3', 'm12', 'e1', 'e2'], 2.5940144226341793, 126)}"
263,68,848,0,28.294933333332867,23.25187776276536,139.87513771798243,12.160182404104148,24.320364808208296,44.08066121487741,45.62601069549645,44.498002226685,103.90776248525974,79.75413482485183,67.641014622829,71.44107162411166,68.40102602308554,25.840387608721244,33.44050161128632,7.600114002565078,15.200228005130157,15.2002280051301,16.99437154648351,16.720250805643218,39.52059281333834,53.20079801795549,60.97167478718122,"{'neutral': (['m1', 'm3', 'm12', 'e1', 'e2'], 2.5940144226341793, 126)}"
264,68,849,0,28.328299999999533,32.96486823058365,143.72950679833403,10.47800291189617,23.9964521487258,44.93066746520136,47.89944188295419,43.640522095225606,111.02001898576694,87.02395660935113,70.35230526558894,67.35859014790424,64.36487503021965,22.452863382634742,44.90572676526949,17.962290706107865,13.47171802958087,13.47171802958087,13.554621692249386,13.47171802958087,43.4088692064272,56.88058723600801,58.549904387103474,"{'neutral': (['m1', 'm3', 'm12', 'e1', 'e2'], 2.5940144226341793, 126)}"
