,video_id,frame_seq,gap,time_seconds,m1,m3,m4,m5,m6,m7,m8,m9,m10,m11,m12,m13,m14,m15,m16,m17,e1,e2,e3,b1,b2,b3,label_measures
0,46,102,1,3.399999999999991,22.68590861783048,174.49011727109425,14.24940999758194,25.521647195059245,43.97681086039864,48.22840232448586,39.700340081203365,102.09643461994564,76.57806887915953,65.22198727626261,51.04329439011855,56.7147715445762,14.17869288614395,48.20755581288984,18.432300751987327,1.4178692886143835,17.01443146337283,18.43230075198727,18.43230075198727,53.87903296734743,49.62542510150422,48.22840232448598,{}
1,46,103,0,3.433333333333324,19.938734441014294,175.10003987486644,14.205760094145944,25.727725766495027,44.12941118546627,47.0723246290185,42.82983661489502,102.63600224237544,76.92127231184674,66.76707244248621,49.72016032951103,61.084768404827855,12.78518408473144,46.87900831068168,17.046912112975065,1.1368683772161605e-13,17.04691211297518,18.4674881223898,17.757200117682487,58.24361638599862,48.299584320096415,48.38307545297427,{}
2,46,104,0,3.466666666666657,19.51599665534983,178.52084130835948,15.358101634403948,26.56464730130733,44.68973533852086,48.84444753356734,41.92176542589762,103.35316082927572,76.79050817201966,66.74194508484396,51.44691600290054,65.35148789557633,16.685486271210948,44.49463005656276,12.514114703408382,1.3904571892675222,15.358101634403935,15.358101634403935,15.295029081943426,69.52285946337912,48.66600162436544,53.12929460261466,{}
3,46,105,0,3.4999999999999907,12.784960567387545,167.60078086580168,15.318728078065206,26.986400594062363,43.55143925549309,46.07927352664358,38.69096594947291,93.73431863658313,66.74854628903762,59.79110282761843,43.25313821572399,61.06325395161031,13.993662363910744,40.70883596774013,8.905057867943128,1.2721511239918757,15.476386379789204,16.732535594863375,15.9018890498985,68.69616069556164,40.70883596774024,51.45532855788551,{}
4,46,106,0,3.533333333333324,16.745345310110977,164.09533768483487,14.359015142033838,25.81429861190257,41.41773228781353,42.69242124905249,38.870254469743706,95.73921128456278,69.9329737101321,61.004694500319374,44.950827526551166,62.9311585371716,15.411712294817503,41.09789945284672,10.274474863211708,0.0,15.624297679108777,16.89245219425628,16.053866973768322,69.35270532667886,41.09789945284675,50.67735658276894,{}
5,46,107,0,3.566666666666657,16.628770006208608,174.38258429655428,16.628770006208534,26.539940445971567,45.84643070999792,48.5385515359182,41.57192501552133,101.35183979359054,74.82946502793847,65.61007077970515,46.47380013562452,73.81132962716839,19.13627064408076,39.6394177627385,6.834382372885898,1.366876474577225,16.62877000620855,19.57069277859825,18.452832406792083,75.17820610174556,41.006294237315785,51.47156631379255,{}
6,46,108,0,3.5999999999999903,18.780344117677693,177.93125383339418,17.370461294569466,27.723698632238293,46.24536784253024,50.70351147044188,44.63009137415288,108.4503014744922,80.77100437538434,70.67823458488965,51.40235242537426,79.95921488391559,21.417646843906027,41.40745056488481,7.1392156146353045,2.8556862458541445,15.963771420352534,18.78034411767764,17.84803903658826,81.38705800684266,44.26313681073896,54.37064627490326,{}
7,46,109,0,3.633333333333324,17.1573187281024,170.4216373352926,15.767889506031048,26.00506957057373,45.67791852601428,50.08135893341744,45.67791852601428,104.57332793519667,78.59941019664198,69.10582268249442,52.181947739842656,81.79872888948313,21.86000513425841,35.96323425313483,3.5258072797190607,4.936130191606708,13.002534785286866,15.189642623585572,13.39806766293259,76.15743724193254,35.258072797191005,50.96712660949776,{}
8,46,110,0,3.6666666666666567,21.355469113082435,173.0731628884925,13.01070523085891,24.64570776001162,45.94564021313434,50.112828721739206,49.47289403925961,108.17633620490216,83.6907691006053,72.67726973855048,55.03715572433924,83.26133814707731,19.75692769591666,38.10264627069637,7.056045605684517,4.233627363410733,10.273757478631666,12.622238101319406,10.584068408526718,74.79408342025584,31.04660066501185,52.72712406605989,{}
9,46,111,0,3.69999999999999,18.69136230189101,170.07875193620598,14.492208504380407,23.133473176086312,46.026255946786186,48.83631124264156,48.50436985117715,104.70750830466572,81.60997216998815,71.76443701776918,55.42204046916822,83.84359968412627,21.31616941121854,34.105871057949685,5.684311842991633,5.684311842991633,8.987686177261459,11.4570967999761,9.94754572523533,73.89605395889095,31.263715136453868,48.25391532107529,{}
10,46,112,0,3.733333333333323,16.029881904047134,164.532506998271,16.029881904047134,26.163595917169022,45.020858655844265,49.50093976630147,44.81491718068619,103.01116917047132,76.84986860694895,68.103420656612,53.048980300939775,81.72410478793427,22.940099589595548,34.410149384393435,1.433756224349736,5.73502489739883,9.067870556777011,10.919162093767602,10.036293570448038,73.12156744183596,34.410149384393435,48.36669892147353,{}
11,46,113,0,3.766666666666656,16.38495562348539,165.1676547318649,14.442230769821848,24.80742719018288,45.124463431083775,48.200312569329256,46.54374638254798,102.06130856697456,77.25427384565693,68.26014444644665,53.17105988460054,83.34922900829275,22.27436292462994,32.33375263252742,2.155583508835207,6.466750526505393,8.741268398980864,11.585913230807224,10.059389707897424,74.72689497295212,35.92639181391928,47.40105862275684,{}
12,46,114,0,3.7999999999999896,11.007840540817693,169.90063880975765,16.1600663469046,24.95147736102774,46.6127582629317,49.67216412126524,49.48253480671431,101.2296275196086,76.2782521025099,70.10191333281557,57.81601099613658,85.2786162193014,22.403704261002986,28.18530536061656,2.168100412355102,5.058900962161943,7.370124206684927,10.422929609468056,8.672401649420465,75.16081429497757,31.79880604787513,45.271265694165706,{}
13,46,115,0,3.833333333333323,7.196619534230513,179.59855795163898,17.510131059051968,29.356562749555867,48.03979377582822,51.11120055741665,49.46334559767433,102.74796962344534,73.39140687388948,69.08754752861353,53.25498455330626,83.48078659707471,19.43087274242248,32.384787904037694,2.1589858602691265,0.7196619534230422,5.93448449740319,9.216169793442909,6.47695758080755,73.40551924915192,28.786478136922312,42.33178607297636,{}
14,46,116,0,3.866666666666656,7.696774955624102,177.88343138467778,14.575600597576816,26.35416423547281,49.11732860568098,52.16292089205762,51.94708692899496,100.35366760601696,74.01831193101566,69.3188785704786,55.74095390203428,82.89680323892281,17.86569035321611,29.29973217927443,3.5731380706432674,2.143882842386006,7.696774955624145,9.151698793531894,7.146276141286421,71.46276141286452,27.155849336888537,47.51064523649813,{}
15,46,117,0,3.899999999999989,19.160476318138848,188.89451685118385,13.240541988534655,24.074066729010507,55.04364660762887,56.46782301079095,48.169546905136,104.52286046261072,80.55187597511456,69.6527132569941,53.13712145378935,81.85988980718906,20.10593784737977,34.467322024079635,5.74455367067992,5.74455367067992,7.733842065010258,9.19577271049113,6.4626228795149245,70.37078246582914,27.28662993572965,45.41468435107348,{}
16,46,118,0,3.9333333333333225,24.04858183200228,190.163774046761,12.182067177939413,21.961533925603653,55.37384693031311,58.29225284683413,48.097163664004434,106.07742970506769,84.30928632217784,70.91004665366711,50.22794971301414,81.25109512399354,18.466157982725804,37.67096228476066,9.602402151017486,5.170524235163157,6.606653525219995,9.45928830011646,5.909170554472269,73.86463193090319,31.02314541097934,46.71609508633104,{}
17,46,119,0,3.966666666666656,23.648439851221823,188.2033254668684,10.575903813829491,21.151807627658705,57.11948752596129,58.56069741052554,45.61608560598384,100.85631044798602,79.78021936495567,66.82475715819601,50.84492392471441,79.89916616740834,20.3379695698859,33.41237857909789,7.263560560673341,8.716272672808259,6.496726068940932,10.27222585602276,6.537204504606166,72.63560560673486,27.60153013055924,50.53266964745533,{}
18,46,120,0,3.999999999999989,23.325629690302613,184.21870689864767,12.24254952988332,22.24431113266801,56.3397848869762,57.76132171075157,44.78759285063167,102.2881088699168,80.10054121795632,67.34545595440062,53.01663553857071,81.67427637023053,22.92611266532782,32.9562869564088,4.298646124748984,10.030174291080924,9.06234173950874,10.332659345238003,7.880851228706433,71.6441020791496,28.65764083165982,43.95469302964897,{}
19,46,121,0,4.033333333333323,31.775210463504333,183.98747783477,9.05096679918785,19.4648400969544,54.84990428432855,54.84990428432843,47.420501895277326,107.2835495311374,88.04362555006463,71.55417527999327,55.81225671839479,84.43392683039201,22.897336089597843,35.777087639996694,10.017584539199106,12.879751550398735,7.297122720634463,10.119288512538825,7.155417527999305,71.55417527999327,30.052753617597205,46.61467580065327,{}
20,46,122,0,4.066666666666656,31.622776601683874,183.33179666207067,9.007546982220852,22.10981260407742,53.17505248607237,55.99913068000989,47.19301354420339,109.58153854670812,87.62125762061542,71.21091148698565,55.54451095984871,85.45309378438276,23.499600790705244,37.74178308810235,10.68163672304786,13.530073182527303,9.007546982220903,11.123499967244896,8.545309378438219,72.63512971672534,29.908582824534,48.19248087598044,{}
21,46,123,0,4.099999999999989,33.19883408112262,182.17517748231592,10.420045823481107,22.219803569852623,54.85833117123104,57.53768340588287,49.18771441406659,114.8347815546806,92.71487855874337,75.14342696093826,60.11474156875062,85.8782022410723,24.33215730163716,40.07649437916712,12.8817303361609,12.881730336160786,7.29824381699161,10.120843193461951,6.44086516808045,72.99647190491146,28.62606741369075,43.460743786734206,{}
22,46,124,0,4.133333333333322,27.72258498145944,182.22282101729243,10.4923023337027,23.76935042778387,56.66796359142975,59.370920526440166,50.95512460151792,112.79397653893334,89.08844534362423,74.2232711323939,60.53159975845716,87.91494250633065,23.7802713336796,36.75132842477751,7.926757111226493,13.691671373936742,10.4923023337027,12.39791690611166,9.367985676904084,72.06142828387752,31.707028444906086,39.65343380267835,{}
23,46,125,0,4.166666666666655,29.211774503855302,179.77197695152097,9.135372931520369,19.646362348168783,52.49859664502924,56.79381341141816,55.568304168152864,113.31177206405091,93.79897357748348,77.99918149436536,62.11045933810573,89.55461578982687,20.94422466052401,35.3885175298509,9.388790365062505,10.83321965199525,8.786120344219544,10.415927715635393,8.666575721596132,70.77703505970192,30.33301502558652,41.10917819184172,{}
24,46,126,0,4.199999999999989,31.97170969142959,179.9129199587477,9.708725153801732,21.072879332744023,54.036515574032,55.47110889675848,56.74046408384259,118.73082403058612,97.83946063630432,81.04831249671497,66.57539955087304,92.6266428533886,23.15666071334715,37.62957365918908,10.131039062089371,13.02562165125778,11.934669757215111,12.450070472172452,9.40739341479724,72.36456472920977,31.84040848085226,36.2978810053358,"{'happy': (['m1', 'm3', 'm12', 'e1', 'e2'], 5.414002629306742, 122)}"
25,46,127,0,4.233333333333322,26.37067506993376,182.05038381404108,13.424366135027094,22.27369427975509,54.18875990312316,57.08490195135069,57.25179011562949,119.2294983774271,96.99046468515914,82.99638591050575,69.89169339832063,93.18892453109424,24.75330807857188,36.40192364495874,8.736461674790121,11.648615566386752,11.73926763838159,10.49992017819386,9.46450014768925,72.80384728991734,33.48976975336194,33.2674549316386,"{'happy': (['m1', 'm3', 'm12', 'e1', 'e2'], 5.414002629306742, 122)}"
26,46,128,0,4.266666666666655,25.19327066019541,182.4667319008565,9.2301002092902,22.3246340789766,51.59782876776981,54.31268925740369,57.382724600809006,113.96464196504556,91.65261773419758,78.07827367865167,65.67331430914629,89.02382606350938,20.43169778506774,35.02576763154457,7.297034923238357,10.215848892533929,13.21549231927269,12.469178742772522,11.675255877181542,74.42975621703243,33.56636064689701,34.68970801208529,"{'happy': (['m1', 'm3', 'm12', 'e1', 'e2'], 5.414002629306742, 122)}"
27,46,129,0,4.299999999999988,25.051774012004945,179.82129520324918,10.564970484824666,21.96079684950365,49.68143816025803,51.30803234065952,58.33793221700592,115.75164873174823,93.7913076612679,80.54217186627028,68.20688428314776,89.97503884159909,21.042549406502985,35.55465244547065,6.530446367535433,10.884077279225608,13.14126821821858,12.980019556645091,11.609682431174065,72.56051519483799,33.37783698962545,37.19743881521188,"{'happy': (['m1', 'm3', 'm12', 'e1', 'e2'], 5.414002629306742, 122)}"
28,46,130,0,4.3333333333333215,21.92662310855815,176.49282672333177,14.561787778249611,26.717355489870823,52.48327505854861,53.92360232597599,56.971644454766505,120.07957821510288,93.45459846093333,81.86579023346559,69.54969789745752,89.8350264508826,23.183232632485897,39.1217050673198,7.244760197651772,8.69371223718224,13.120818764637123,11.681824807616684,9.41818825694736,69.54969789745752,31.876944869668023,35.78647548787271,"{'happy': (['m1', 'm3', 'm12', 'e1', 'e2'], 5.414002629306742, 122)}"
29,46,131,0,4.366666666666655,21.84835462787256,177.2971138556676,14.723723896827147,26.346511065704306,53.595163974163285,56.60280179294821,58.20062894177947,121.0796909869634,94.74100949071868,83.01734498276426,72.18899563718628,92.4019144155984,24.544258516643367,37.53827773133685,5.77511965097483,11.550239301949889,13.073983164600886,12.91356011777468,10.82834934557792,72.18899563718625,36.09449781859314,32.4449182523758,"{'happy': (['m1', 'm3', 'm12', 'e1', 'e2'], 5.414002629306742, 122)}"
30,46,132,0,4.399999999999988,23.492392111025787,176.01816713148517,13.432289083133512,25.1506202060903,51.1797484392456,55.535843718396,60.17693728272378,122.18302572782332,97.04770764253908,84.50230599034421,72.84681550891742,93.24392385141437,23.31098096285359,37.88034406463703,5.827745240713398,10.198554171248476,14.642028705187217,11.746196055512922,10.198554171248418,71.38987919873907,33.50953513410201,31.383368575235387,"{'happy': (['m1', 'm3', 'm12', 'e1', 'e2'], 5.414002629306742, 122)}"
31,46,133,0,4.433333333333321,29.243824212540453,174.38713534657816,13.094214074824151,24.751773421444664,53.678098068319336,56.56114936380752,55.62927095264167,122.69836026240144,97.95611208828248,82.4228004529133,70.85468810864484,88.20685662504764,24.58223873157067,41.93440724797347,11.56811234426857,13.0141263873021,5.784056172134285,7.78702393516669,3.6150351075839353,72.30070215167842,34.704337032805654,38.935119675833285,"{'happy': (['m1', 'm3', 'm12', 'e1', 'e2'], 5.414002629306742, 122)}"
32,46,134,0,4.466666666666654,30.814848630853778,176.77925979323243,13.392549020681228,26.308173885472584,55.371538298518864,58.26822705563524,57.3189317822028,127.78154784501162,101.49687464227502,84.97861486964365,71.17866886517157,90.06280550287016,23.96832727092521,45.75771569903873,13.799946004471964,12.3473201092645,4.357877685622725,4.593606416997008,2.1789388428113625,69.72604296996394,37.76827327539712,38.12970039344186,"{'happy': (['m1', 'm3', 'm12', 'e1', 'e2'], 5.414002629306742, 122)}"
33,46,135,0,4.499999999999988,26.63167836801145,175.4326178104175,14.883089385984388,28.072253851984105,51.4117410211573,54.31268925740359,55.93547344132992,125.49202968365633,97.42019880862613,83.18619812491863,68.59212827844158,93.40204701745245,25.539622231334647,43.05250604710693,9.486145400210034,9.486145400210034,7.441544692992194,8.509731922481933,5.107924446266907,74.42975621703243,36.48517461619235,38.77740753670831,"{'happy': (['m1', 'm3', 'm12', 'e1', 'e2'], 5.414002629306742, 122)}"
34,46,136,0,4.533333333333321,22.13060962851956,172.6880963620693,11.929985207869205,24.974314753560314,49.527824793136446,54.015305374768936,55.44933559660135,114.40095849853246,89.42809256572428,77.39969170998239,63.65582121942481,89.69683899100761,21.700848142985706,36.16808023830947,5.786892838129461,8.680339257194305,5.964992603934615,8.183902335682536,5.786892838129575,72.336160476619,37.61480344784189,39.80461141708027,"{'happy': (['m1', 'm3', 'm12', 'e1', 'e2'], 5.414002629306742, 122)}"
35,46,137,0,4.566666666666654,14.634387007553972,183.87301266300707,14.63438700755384,24.772281027523245,53.40510248916233,55.00076930009197,46.72085682253152,100.75841469050891,75.98832487344833,67.4459263708913,54.5307489807206,78.926084051043,20.807785795274867,32.2879434754268,2.1525295650285443,6.457588695085292,11.569498776061511,12.26081377700649,11.480157680151706,73.18600521096721,35.87549275047411,42.81075327119567,"{'happy': (['m1', 'm3', 'm12', 'e1', 'e2'], 5.414002629306742, 122)}"
36,46,138,0,4.599999999999987,18.02366455467492,185.5923353534443,12.902980199917527,24.59751514709789,54.61274456146896,57.63346812998338,44.74263551159358,100.04757449641934,75.45223510102095,65.54520654195949,55.57093598122651,81.21906028025421,24.223228504637177,29.92281168219893,0.0,9.974270560732975,8.667302747697606,10.27506969773532,8.549374766342567,72.66968551391165,35.62239485976062,40.12542988832777,"{'happy': (['m1', 'm3', 'm12', 'e1', 'e2'], 5.414002629306742, 122)}"
37,46,139,0,4.63333333333332,9.674839909178733,183.7766902916176,13.29679561882824,25.18763842170381,52.419025070704215,55.48407987021336,49.5635584552887,97.30578424339674,72.12641998569194,66.34303910561096,51.920639300043376,79.32319893062174,16.585759776402824,29.565919601413498,0.7211199902784529,3.605599951392037,11.62771045814965,12.899786545571544,10.816799854175656,73.55423900839475,36.055999513919005,47.572062218594255,"{'happy': (['m1', 'm3', 'm12', 'e1', 'e2'], 5.414002629306742, 122)}"
38,46,140,0,4.666666666666654,4.533265536335727,185.94679408792825,16.344921336552225,26.433253268933704,50.90596820542144,52.31946218697373,46.07457303642207,90.81252234423128,64.38194722517197,62.35918284927072,48.74051073276337,78.84494383241133,17.919305416457178,25.087027583039912,6.45094994992462,0.716772216658228,11.557604715036767,12.822011206649057,10.751583249874272,73.110766099145,31.537977532964533,48.06116725525136,"{'happy': (['m1', 'm3', 'm12', 'e1', 'e2'], 5.414002629306742, 122)}"
39,46,141,0,4.699999999999987,7.193220850381612,182.7248006699196,17.501861704344385,27.93341703285981,50.86375241877296,53.53998890185727,48.01710644736285,99.87962641007384,71.94659350716029,67.61627599358707,54.66847846290017,77.68678518412133,18.702374210992048,31.650171741679173,1.1368683772161605e-13,1.1368683772161605e-13,12.947797530686842,12.291781177311346,11.509153360610584,71.93220850381601,33.088815911755376,47.45345496722977,"{'happy': (['m1', 'm3', 'm12', 'e1', 'e2'], 5.414002629306742, 122)}"
40,46,142,0,4.73333333333332,5.155722029799764,183.2221368658811,17.395971036613826,27.50544529301009,50.37368347878132,53.38868267432414,50.777973137085226,100.40174889965128,72.91292018368532,69.3520905241067,57.19760043225296,81.50658061596056,19.304190145885286,29.31377022152969,3.5748500270157137,2.144910016209451,14.370719254267836,14.08327583153028,12.869460097256932,71.49700054031624,34.318560259351784,45.78041770634485,"{'happy': (['m1', 'm3', 'm12', 'e1', 'e2'], 5.414002629306742, 122)}"
41,46,143,0,4.766666666666653,9.621514669643334,182.7637602459718,15.842258841224227,27.58913291663124,52.13010483074712,54.97282903127052,49.51939352740447,102.11706759770462,74.54173235287924,68.84595471306824,54.50304748117895,81.75457122176846,19.3629247630505,32.27154127175072,0.7171453615944756,2.151436084783427,12.988054898533314,12.254585310800335,11.474325785511382,73.14882688263495,34.42297735653409,44.532359504019865,"{'happy': (['m1', 'm3', 'm12', 'e1', 'e2'], 5.414002629306742, 122)}"
42,46,144,0,4.7999999999999865,11.610741689623206,187.5772725950646,14.473180279345616,26.28000246463812,53.59548083383783,55.196835872894745,48.30360520165831,99.98314741462896,73.72873716854521,66.96628976931669,51.844869498825744,77.76730424823864,17.281623166275153,33.12311106869424,0.0,2.8802705277124687,13.040979465231684,12.304521088151844,12.241149742778248,74.88703372052606,37.44351686026306,37.38808601290516,"{'happy': (['m1', 'm3', 'm12', 'e1', 'e2'], 5.414002629306742, 122)}"
43,46,145,0,4.83333333333332,19.155044854166043,187.00365895280416,13.236788661863775,26.47357732372757,53.815990033662686,56.6522911473513,48.1558921736847,106.99811083730346,80.52904175090016,69.63296864332261,57.429252489338126,83.2724161095403,22.971700995735205,34.45755149360298,1.435731312233543,8.614387873400688,14.428921113294926,14.14031353577342,12.921581810101088,74.65802823613961,35.89328280583635,42.22612469552904,"{'happy': (['m1', 'm3', 'm12', 'e1', 'e2'], 5.414002629306742, 122)}"
44,46,146,0,4.866666666666653,17.89497781180382,185.77863887445343,11.929985207869176,26.400221191969,52.80044238393807,55.90045626991348,51.373953952801656,107.5354334562482,81.1455686379051,70.88943726708663,54.9754819622305,82.46322294334567,18.0840401191548,36.89144184307565,3.616808023830913,5.063531233363392,13.100635850597955,14.248571169242483,12.297147281025218,73.78288368615142,34.72135702877716,37.97476192163383,"{'happy': (['m1', 'm3', 'm12', 'e1', 'e2'], 5.414002629306742, 122)}"
45,46,147,0,4.899999999999986,13.386106879430868,191.6158814527861,14.806809708534866,27.92837629984584,54.03432269583002,59.97004003992373,51.82383397987216,107.92224390824413,80.0142283586804,71.87039377066901,56.62515872840584,79.85599307852101,17.423125762586324,37.7501058189373,4.355781440646638,2.9038542937643115,13.147759507535335,12.986431195223696,12.34138074849875,72.59635734411006,34.84625152517282,39.94779063939691,"{'happy': (['m1', 'm3', 'm12', 'e1', 'e2'], 5.414002629306742, 122)}"
46,46,148,0,4.933333333333319,9.69028441159869,190.8217975558686,16.150474019331078,29.21406027502201,56.63269130687341,59.8570645168162,48.45142205799339,103.12049205104326,73.95435904716712,67.89348861900902,54.89260781962429,79.44982710735104,19.501321199077097,33.946744309504425,0.7222711555214119,3.6113557776069456,13.080886974827171,13.7041316381354,12.27860964386332,72.22711555213729,34.66901546502589,42.48526394480445,"{'happy': (['m1', 'm3', 'm12', 'e1', 'e2'], 5.414002629306742, 122)}"
47,46,149,0,4.966666666666653,27.53767198175672,191.8345605556807,9.116135796200874,22.37635335404382,55.244835933928265,59.53471838856879,45.26048961533919,104.03983431399998,81.75349362210977,67.02452473777578,46.12440412061994,70.62799380969932,13.693182473309092,43.96232267746586,16.575957730847676,5.04485670069289,11.885986881749393,11.620838578347556,10.089713401385607,73.51076906723804,36.034690719234334,37.83470927863088,"{'happy': (['m1', 'm3', 'm12', 'e1', 'e2'], 5.414002629306742, 122)}"
48,46,150,0,4.999999999999986,13.760418323075548,191.79761413095,16.21680851368401,26.468693129361995,56.86529754104252,59.91007945234967,47.22405921321576,103.54403662870943,77.09382758139948,68.89758380791994,53.667591597748185,79.77614967232847,20.30665628022905,34.811410766106974,1.450475448587781,4.351426345763343,13.054279037290089,11.046491912070763,9.428090415820634,71.07329698080173,33.36093531751919,35.321385349174406,{}
49,46,151,0,5.033333333333319,15.173565894992732,201.9077832020568,16.249103785084632,26.52140471114521,58.42451075297876,62.91572411000448,45.89041500766762,103.75024136757756,77.24735754896075,68.30810919736876,52.3211049171336,75.57492932474844,18.893732331187152,37.78746466237419,5.8134561019036255,2.9067280509518696,10.276835579466116,9.74946227105078,8.720184152855609,69.76147322284476,33.42737258594644,35.391726793061785,{}
50,46,152,0,5.066666666666652,7.218899563718605,186.0908534845697,16.141950147218356,26.62198618417447,55.33652628358331,59.63352869460704,46.56050315342366,94.5868694545404,67.9650863837904,64.24820611709578,46.20095720779926,77.96411528816117,15.881579040180895,30.31937816761831,1.4437799127437074,1.4437799127437074,7.218899563718594,9.685170088331088,7.940789520090448,76.52033537541746,38.98205764408061,45.2205144613579,{}
51,46,153,0,5.099999999999985,9.692243890024685,185.53609207885123,14.734477729964436,26.641430205212583,57.01148893144875,61.11154272036502,48.223715942544274,98.8946675067442,72.2561675415898,66.4623829906464,53.45887327508507,80.91072711904775,19.50526457334184,29.61910546322281,3.6120860321003647,3.6120860321003647,4.3345032385203695,7.224172064200741,4.3345032385203695,78.02105829336742,37.56569473384354,43.465268489646114,{}
52,46,154,0,5.133333333333319,23.818537845400872,187.478852431902,10.651973949393495,23.81853784540085,54.62903736331836,56.079361304376754,50.51615516489552,108.75727113645245,84.93899366688007,71.69489629391643,58.526445954217536,83.40018548476002,21.21583665840388,35.8474481469583,5.121064020994027,10.97370861641582,4.626921814251849,6.543455581754943,2.9263222977108967,74.62121859162744,38.04218987024143,37.015374514014844,{}
53,46,155,0,5.166666666666652,21.81776571727267,184.16590024904133,11.761339910871234,24.62127150534617,53.46142213854784,54.66548972361064,49.24254301069212,107.41636615242383,82.79751369187355,70.60046218206105,58.47715049423243,82.72377386988978,22.10721543074635,34.943663100212234,3.5656799081849613,9.270767761280696,5.880669955435617,8.068212616378151,4.991951871458866,75.59241405352003,37.083071045123006,39.24192333345261,{}
54,46,156,0,5.199999999999985,14.739093734274618,178.02862600864296,16.158800446204324,26.37401372707083,52.35052346639185,55.39429111399231,57.02934944089184,114.28739281730694,87.91337909023612,79.49078771164727,66.48320426792327,91.0530841060688,22.40194926419156,33.96424565861287,0.7226435246512892,6.503791721862172,7.226435246513404,9.254352535437755,6.503791721862058,70.81906541583132,34.68688918326433,37.93706442535763,{}
55,46,157,0,5.233333333333318,33.45165545759963,179.72262814637128,10.548530072078218,23.58723030386763,55.36437969285345,59.68908640465239,55.36437969285341,122.75112572310906,99.20825528293476,81.8657902334657,68.10074585792717,91.28397849041306,24.63218467201625,42.01960914638062,13.040568355773305,13.040568355773305,5.795808158121474,9.27781992319466,5.795808158121417,70.9986499369879,34.77484894872879,36.22380098825909,{}
56,46,158,0,5.266666666666652,33.45165545759963,179.72262814637128,10.548530072078218,23.58723030386763,55.36437969285345,59.68908640465239,55.36437969285341,122.75112572310906,99.20825528293476,81.8657902334657,68.10074585792717,91.28397849041306,24.63218467201625,42.01960914638062,13.040568355773305,13.040568355773305,5.795808158121474,9.27781992319466,5.795808158121417,70.9986499369879,34.77484894872879,36.22380098825909,{}
57,46,159,0,5.299999999999985,29.243824212540453,183.8486161043697,11.924137271107718,23.53940318598419,55.42215499223454,59.56805663833213,55.25211900433703,119.83609646380413,96.320166581715,80.97678640987982,67.96266002257772,92.5448987541484,25.30524575308744,38.31937214038953,9.399091279718164,13.737133408818863,10.22486335520014,10.224863355200124,7.230070215167814,70.85468810864486,34.704337032805654,44.89634923459681,{}
58,46,160,0,5.333333333333318,33.6260664295154,182.6938178810721,11.95471935239899,25.02609338529264,53.95228161104575,58.27812987886744,52.69098745958527,123.22642653639238,98.20734215338167,80.45960791493854,65.23751993103127,88.43308257317568,24.645285307278414,44.94140261915493,14.49722665134027,13.047503986206266,8.818318706801364,9.282754334675376,7.248613325670135,69.58668792643334,34.79334396321667,33.93713749832488,{}
59,46,161,0,5.366666666666651,24.885116715633405,178.9969251493602,14.701045428158508,26.305930399432857,56.51561835511619,59.38441343575349,49.20333187525056,114.9816091801007,88.68792457136693,75.68169556135956,67.75313697874094,92.25959077956212,30.99345627750916,33.87656848937047,2.1623341588959875,16.57789521820257,11.622196884646534,12.89366978496336,10.811670794479936,70.63624919060226,34.5973465423358,43.77206248322528,{}
60,46,162,0,5.399999999999984,30.41006969791108,185.29913497755487,10.436361005710996,22.254594217657505,56.20152400250571,59.05437530760184,50.68344949651865,113.6033087264607,91.4439554836179,75.26108274911985,61.642410632612496,87.44621043231075,24.370255366381684,37.2721552662307,8.601266599899418,14.335444333165697,10.136689899303729,9.179163106406264,7.884494383241133,70.24367723251186,32.9715219662811,37.21697810012831,{}
61,46,163,0,5.433333333333318,30.41006969791108,185.29913497755487,10.436361005710996,22.254594217657505,56.20152400250571,59.05437530760184,50.68344949651865,113.6033087264607,91.4439554836179,75.26108274911985,61.642410632612496,87.44621043231075,24.370255366381684,37.2721552662307,8.601266599899418,14.335444333165697,10.136689899303729,9.179163106406264,7.884494383241133,70.24367723251186,32.9715219662811,37.21697810012831,{}
62,46,164,0,5.466666666666651,23.488808780588148,188.14299853702653,11.898508132156076,24.908420422369968,55.3030334089281,58.16540254610707,53.87278685296628,114.0991133939849,89.19213796967662,76.47402083105726,63.487866350311606,90.9030813652189,23.80794988136688,35.35119830869621,5.050171186956618,10.82179540062134,11.543248427329388,11.633080509221353,10.10034237391318,72.14530267080866,36.07265133540437,37.46001989369352,{}
63,46,165,0,5.499999999999984,20.48370593156862,183.7138631639055,10.415246109201153,21.88464623091139,56.25178998284786,59.090969473359664,48.9773640391513,101.60595000431584,79.73193931724413,68.67091580276417,57.22576316897016,84.40800067423106,22.174983227975986,29.328203624097227,0.7153220396121469,12.160474673406156,7.294882076970467,6.069708779303134,5.007254277284915,67.24027172353996,31.47416974293361,35.334302224125544,{}
64,46,166,0,5.533333333333317,14.714812245300362,189.367333475545,13.302936507167407,24.90842042237008,58.16540254610707,61.02997972721457,51.23840459460206,104.1494347056768,79.24168904698374,70.70239661739248,59.15914819006315,85.13145715155423,21.643590801242567,30.3010271217396,0.0,7.2145302670809315,8.77685487646043,10.404943522538794,7.935983293788979,69.2594905639763,33.18683922857201,41.06582620595712,{}
65,46,167,0,5.56666666666665,17.818687087582184,190.4858868487273,13.281265199210468,23.450544055476485,56.64149800497669,59.50034710998541,50.93132707695732,105.3970869296509,81.94722326876256,72.02777350189308,57.622218801514464,83.552217262196,20.167776580530017,33.13277581087084,4.321666410113608,7.202777350189308,8.762556835962421,9.224055645565873,6.482499615170354,67.70610709177947,31.69222034083293,35.57909551936592,{}
66,46,168,0,5.599999999999984,16.23817454207216,189.54467605255263,11.74410662260279,22.964246665580053,54.41792240046879,57.410616663949895,53.383087858106045,104.19914389844531,81.27826200435483,71.92119706520964,59.81564904433287,84.02674508608663,19.22645862139268,30.619915582218027,2.136273180154717,7.833001660567447,8.662961636484205,9.553704098671306,7.833001660567447,66.93655964484864,32.756188762372744,34.239660382165745,{}
67,46,169,0,5.633333333333317,16.916651196937345,185.3858830568668,13.324888204595716,24.94952278411049,56.66188846617899,59.69577909055854,51.09861366615102,106.00961297573632,81.06501553851032,71.54170894048264,62.1473431200152,88.16251000746342,24.56987983814554,28.90574098605361,1.445287049302692,11.562296394421423,13.087630866597966,12.34853796230098,10.839652869770134,69.37377836652863,33.241602133961635,41.7134981452856,{}
68,46,170,0,5.66666666666665,16.63017274197937,188.5329736475876,13.447283071708704,25.17869495267256,57.34952550483083,60.24411066653944,50.12449763803929,105.27953204099671,80.10151917367926,70.74028787419871,59.80106809983812,86.05519555830364,23.33700218530271,30.629815368209734,1.458562636581405,8.751375819488544,13.12706372923276,12.461964629731844,10.939219774360652,70.01100655590801,35.005503277954006,40.68317911175059,{}
69,46,171,0,5.699999999999983,17.839523331972774,187.47455550325213,14.708019608285188,26.120076971122565,56.70773162192511,58.138552290748464,49.37434375561034,107.89844454859887,81.80183782530882,72.11199902783795,57.68959922227037,80.76543891117848,20.19135972779464,37.49823949447568,5.7689599222270544,5.7689599222270544,11.62771045814972,10.983772456125893,9.374559873618978,69.22751906672448,34.61375953336227,38.83349993368312,{}
70,46,172,0,5.7333333333333165,20.72382135591032,186.7108561423068,11.93568547046727,24.986247723285235,55.30562916367147,59.625746664694894,49.741383234651536,107.3236111637358,82.3374031969849,70.92330892751312,62.23882212006259,85.39745360659748,24.6060459544434,31.84311829398553,2.894828935816804,11.579315743267443,11.669428508894162,12.366714634836436,11.579315743267443,68.02847999169629,30.395703826077067,40.7595614921842,{}
71,46,173,0,5.76666666666665,26.143450442247463,180.7300903960644,13.208401194838714,24.731412488597293,54.741565958040496,57.46703772928508,50.4692301011985,114.47779079036248,89.75540677379378,75.93056973359444,65.90200391972348,90.25709232483872,27.936719052926264,35.099980348548456,5.0142829069354775,13.610196461681994,12.893870332119832,12.240586267696717,12.177544202557556,70.19996069709674,37.248958737235,33.07534580531409,{}
72,46,174,0,5.799999999999983,31.889155648967343,177.62171003160714,11.903853287172652,24.91961000739208,53.896988071616114,58.03016260600192,56.75940760137285,125.34839636473347,100.44897323031196,83.72614642301221,70.73415818495857,93.8310261637206,25.98397647610716,41.86307321150616,10.104879740708384,12.991988238053636,15.879096735398887,13.694758055455786,12.991988238053636,72.17771243363126,36.08885621681566,38.86888768570648,{}
73,46,175,0,5.833333333333316,27.332416755897928,176.22492352268674,11.797393302612235,24.69674592862357,50.3984862812515,54.66483351179576,56.25178998284779,119.97808079738044,95.29636084372768,80.83139047617038,68.67091580276423,92.99186514957654,25.03627138642446,37.91206809944276,7.868542435733389,12.160474673406156,14.37779505429678,13.572281434149076,12.875796713018303,72.962848040437,37.196746059830616,42.0765046840608,{}
74,46,176,0,5.866666666666649,26.143450442247445,177.5217445189406,12.973217975394322,25.94643595078853,53.31699641174869,57.59190805007316,54.91003074119211,119.9498745058782,94.01081153751944,80.2285265109677,70.19996069709674,91.68974458396308,26.50406679380194,37.96528486679711,6.446935166059802,13.610196461682108,15.824161414118151,13.591332701456754,12.177544202557556,71.63261295622118,34.38365421898618,38.0665168077599,{}
75,46,177,0,5.899999999999983,30.53324164988452,175.0414276334126,11.93568547046727,26.41283547361476,50.98927068130229,53.866380693770765,55.30562916367141,124.05617067875184,97.66562520467058,81.77891743682636,66.5810655237878,88.29228254241428,22.43492425258069,45.59355573911557,13.75043744513016,10.855608509313242,15.987215339548598,12.946068567439752,12.3030229772217,75.26555233123847,37.63277616561925,43.54288484849311,{}
76,46,178,0,5.933333333333316,30.41637593724673,174.37145811572887,13.05672893485089,28.98131880913709,47.66916479601124,53.66020759760324,56.52810093596098,128.9812956834232,100.0,84.34965835653918,69.20997608741675,90.83809361473436,23.79092928004945,48.30279581100967,15.139682269122432,10.81405876365875,13.056728934850776,11.624763874381946,10.093121512748212,70.65185058923782,37.488737047350696,40.60355463070504,{}
77,46,179,0,5.966666666666649,36.60588312983398,180.68654254264453,10.625845596195193,26.433975793032268,49.81825700593887,54.31883574215974,55.54050791484938,128.97201004691257,102.54468175811807,83.92539825269063,67.14031860215249,87.57432861150318,21.893582152875865,51.08502502337683,18.97443786582562,11.676577148200408,11.767446823335566,10.525124407436858,8.757432861150278,71.51903503272757,37.94887573165136,41.54015144586014,{}
78,46,180,0,5.999999999999982,37.38360503940503,182.68356929866303,12.243089014971083,30.02605008916,55.25370917153819,58.37693584895287,52.15478153698094,131.6697206674151,101.65537627997814,82.40044059374554,59.38770493242919,83.14278690540095,19.30100410303953,59.3877049324293,23.75508197297177,7.423463116553648,11.969974606128616,11.969974606128652,9.650502051519766,77.20401641215801,40.08670082938971,38.97141383060746,{}
79,46,181,0,6.033333333333316,32.05765050140462,179.9991810260638,9.17807863956028,27.724786537768125,52.56403506636095,56.89298396747704,47.97686431311168,116.67356087072424,88.94926757285816,72.55908261287482,44.98663121998232,68.20553765610225,8.707089913544905,59.49844774255735,24.670088088377497,1.1368683772161605e-13,14.584195108840497,11.96675046843203,12.335044044188749,76.91262756964727,44.98663121998237,39.927279373900944,{}
80,46,182,0,6.066666666666649,33.754002042699824,180.32041683777297,8.851869375398762,26.355487654649515,54.157551479440365,57.21881762971672,46.65849130431746,115.55179066100156,89.19792099091887,72.03429887320556,45.11238919332061,66.94096460944354,9.459049346986603,58.9371536235318,25.46667131880997,0.727619180537431,13.177743827324758,13.805603278341245,13.097145249673758,75.67239477589271,42.20191247117094,40.97988432416891,{}
81,46,183,0,6.099999999999982,33.754002042699824,180.32041683777297,8.851869375398762,26.355487654649515,54.157551479440365,57.21881762971672,46.65849130431746,115.55179066100156,89.19792099091887,72.03429887320556,45.11238919332061,66.94096460944354,9.459049346986603,58.9371536235318,25.46667131880997,0.727619180537431,13.177743827324758,13.805603278341245,13.097145249673758,75.67239477589271,42.20191247117094,40.97988432416891,{}
82,46,184,0,6.133333333333315,15.647938598110162,171.87107666254963,8.513399014587906,26.92173151593096,47.91438659424988,52.086720425287815,45.13555597663863,96.19601275383286,69.27637731908635,60.88234667882375,36.3894485896418,55.98376706098736,1.3995941765247153,48.9857961783639,16.79513011829613,5.598376706098748,15.459022957268056,15.074090607382228,13.995941765246812,78.37727388538224,44.787013648789866,35.87441365845445,{}
83,46,185,0,6.166666666666648,7.705196267624468,182.9383508814064,7.705196267624446,28.86977929877123,54.73485212776958,57.91724957236532,45.43402857586381,89.61551723700006,60.74600335968411,56.66674921828746,24.17781299980265,48.35562599960531,9.066679874925969,52.88896593706818,15.111133124876574,15.111133124876574,16.894760442136505,17.687127853761588,16.62224643736431,87.64457212428448,55.91119256204354,54.252966538759104,{}
84,46,186,0,6.1999999999999815,3.2937488590089803,183.1099239439401,7.93239768090903,26.879896781394507,56.45681551664245,59.5795377787041,44.28836984533344,80.63969034418353,53.75979356278903,52.29182908184987,17.676111238935164,44.19027809733791,13.257083429201316,48.60930590707165,14.73009269911256,19.14912050884641,19.374412029770088,16.794889704960493,16.93960660397954,85.43453765485333,54.50134298671679,42.89467741153151,{}
85,46,187,0,6.233333333333315,5.14154891827071,177.0664648680253,6.377306554551418,23.21374625738172,53.24191685771198,54.85966530989437,38.60773141930338,72.44631473614118,49.233467457484565,46.34529565032892,12.83408187239877,37.07623652026314,13.547086420865412,46.34529565032892,16.399104614731755,17.825113711664926,16.25900528291047,14.044560819762737,14.260090969331998,85.56054581599187,54.188345683461534,46.03160898998376,{}
86,46,188,0,6.266666666666648,5.143412289920176,179.95724629157277,6.379617782631212,23.222159254581584,52.0633098764775,54.87954724560283,38.62172341924696,72.47257032781779,49.25131037776419,46.3620918553969,12.838733129186837,37.08967348431759,13.551996080808294,46.3620918553969,16.405047887294245,19.2580996937802,15.949044456578015,15.364154181219767,14.978521984051326,87.01808009782201,55.63451022647638,46.04829151047178,{}
87,46,189,0,6.299999999999981,6.417892353233294,187.9686617195727,9.076270407793103,27.60439877568944,55.00324707530805,57.85009989997757,38.98572468620781,81.63599437315858,54.040025592798095,50.22795250937031,14.350843574105852,37.31219329267515,12.915759216695164,54.53320558160203,20.09118100374804,20.09118100374804,5.917004387275497,7.175421787052903,5.022795250937065,86.10506144463488,58.83845865383387,48.13419264924993,{}
88,46,190,0,6.333333333333314,9.481841512148057,197.6799096248501,9.119343154903426,24.174047447618687,55.79401089480184,58.775946286580215,42.08485206925949,84.60916606666535,60.435118619046655,55.47079884357788,13.492897016005486,35.98105870934785,17.240923964895728,59.21882579246813,26.23618864223272,23.23776708312039,25.88039069523754,24.034177146619925,25.486583252454693,86.95422521425712,58.46922040269016,35.63583341622061,{}
89,46,191,0,6.366666666666648,9.360919788320905,194.0500835262617,10.465826489304185,28.16065898580073,56.554212078705945,60.97186078919745,40.07195357563538,87.77578302408305,59.66439083228107,54.76338092168498,14.800913762617595,39.96246715906739,12.580776698224897,59.94370073860114,24.42150770831904,21.46132495579548,27.29153648860217,25.335083407218885,25.901599084580766,87.32539119944369,60.68374642673206,39.49376385258952,{}
90,46,192,0,6.399999999999981,16.118029294891414,188.34798288026,7.350952361225168,27.54250053253799,53.515740980586,57.953225501618505,41.8324191173806,92.6695578073507,65.12960385596368,56.94479448340212,23.066245866694544,41.80757063338388,9.370662383344666,59.82807521673885,25.22870641669715,15.137223850018245,8.769156004535969,10.395816525603363,9.370662383344666,79.29022016676242,53.34069356673109,37.4271607545705,{}
91,46,193,0,6.433333333333314,24.908514450127903,187.53647959935367,7.4199450783405405,26.354266818978427,54.330712890179456,55.773116736971474,45.13376389940063,103.6853978426125,77.34339699522675,64.75510735072737,30.55858998573649,52.38615426126262,3.6379273792543927,61.844765447324,28.3758335581839,10.913782137763064,16.0728885032697,14.839890156681092,15.279294992868302,81.48957329529748,52.38615426126268,44.82776875156782,{}
92,46,194,0,6.466666666666647,28.777521867696866,195.31621219456065,9.100251451722528,28.58241777494283,55.67720394092584,60.141355020973975,44.90709129958535,111.20355514894548,82.62328352519897,68.07128159137142,34.40965882640751,52.36252430105492,1.4960721228873126,67.32324552992782,32.91358670352031,8.976432737323762,15.035338755243496,14.734601599548116,14.212685167429242,85.27611100457517,55.35466854682949,47.89767835503589,{}
93,46,195,0,6.4999999999999805,10.42224791128626,181.49239281832084,8.708118426838329,24.5051448955395,54.70158274856436,57.54984295231077,48.75873831083193,92.16918176552244,67.66515001472575,62.2748545057691,34.3585404169761,54.40102232687877,4.294817552121913,47.24299307334195,15.74766435778065,11.452846805658623,16.005839995840105,13.19875378591689,13.600255581719694,77.30671593819613,50.10620477475675,34.861880613145686,{}
94,46,196,0,6.533333333333314,12.922619939098,179.2474993180876,7.548142799719023,24.19631562009864,50.94393852362239,53.721979492104495,47.73864670262487,91.97676310288423,67.80301990944693,60.971989446409225,33.639718315260325,54.66454226229792,3.50413732450636,46.95544014838424,16.11903169272898,10.512411973518851,15.981325054298814,14.633707086863708,14.717376762926392,79.89433099874321,51.86123240269296,42.16629069205544,{}
95,46,197,0,6.566666666666647,24.57433677230967,181.85190554294803,7.731201533665775,23.370657587321805,52.17943884944316,55.02485329985791,46.030379216816,101.3225861917328,78.00207790315133,65.32198779056,41.63379441596135,60.29721949897851,5.024768291581495,49.52985887416094,19.381249124671623,2.153472124963514,16.05103353023114,15.46240306733156,15.074304874744598,74.65370033206858,41.63379441596135,37.271592030383616,{}
96,46,198,0,6.59999999999998,15.949044456577958,177.85866381070065,11.763433953500993,24.41819020154037,51.532939748992526,53.08900047451596,52.954670599624926,104.9248349328774,80.50713661598532,72.03955811377068,47.07535480701847,65.6201915491772,3.566314758107524,47.78861775863993,16.405047887294245,6.419366564593361,17.3544366254925,14.893367672757208,14.978521984051326,77.03239877512112,45.648828903775495,40.599638959291305,{}
97,46,199,0,6.633333333333313,21.726557201094188,178.08277824728324,10.152153468421291,23.37201245605128,50.577698460400015,53.60490849626615,53.43158518409061,108.6327860054712,85.30225750397473,73.94016258002284,47.37913330370407,70.35083429943927,5.74292524893383,48.81486461593738,18.664507059034804,4.307193936700287,17.28849438599269,16.369855592539206,15.793044434568005,74.65802823613961,41.63620805477018,42.83198240597272,{}
98,46,200,0,6.666666666666647,21.5543821611893,175.25917987541462,11.74552122089081,24.38100747805738,50.35850677860216,53.180109151666095,52.8740340390205,110.4218638562954,86.04086526267577,74.77856743051439,47.00367095632328,69.79332960181341,5.697414661372477,51.27673195235275,19.940951314803897,5.697414661372591,17.32801021088428,14.870688843272475,14.955713486102807,74.06639059784288,39.88190262960768,41.89149806153508,{}
99,46,201,0,6.69999999999998,19.17781169837848,187.9098085621029,12.49999999999992,32.889675724013614,60.96184178521961,63.869608759385066,52.919568868526966,117.31163297290352,84.42395303558011,74.420840753525,51.16432801804842,77.52170911825522,11.628256367738231,51.93954510923106,11.628256367738343,0.775217091182526,6.201736729460379,8.77058019307031,6.201736729460436,79.07214330062038,49.61389383568337,39.74074638298732,{}
100,46,202,0,6.733333333333313,19.17781169837848,187.9098085621029,12.49999999999992,32.889675724013614,60.96184178521961,63.869608759385066,52.919568868526966,117.31163297290352,84.42395303558011,74.420840753525,51.16432801804842,77.52170911825522,11.628256367738231,51.93954510923106,11.628256367738343,0.775217091182526,6.201736729460379,8.77058019307031,6.201736729460436,79.07214330062038,49.61389383568337,39.74074638298732,{}
101,46,203,0,6.766666666666646,27.29025791822969,192.26298269546496,9.096752639409942,27.08460119753717,58.49668277298383,61.47929458189012,49.712621156648645,113.15487492758318,86.07880740756032,71.78385224094359,46.36040457227614,64.30636763251198,5.981987686745356,56.828883024080255,22.43245382529483,1.4954969216862537,8.053497391843159,8.720170609242185,7.47748460843161,79.2613368493752,49.3513984156487,35.00868537148672,{}
102,46,204,0,6.799999999999979,22.615513159773844,180.25842915488244,10.454024656217316,25.52152667487369,54.88114033520785,57.96094420127647,51.93451709350837,110.397668210463,84.90315785990707,73.18190607851625,50.266359730698014,72.44269490600595,9.60974524263338,48.04872621316724,15.523434622715628,0.739211172510295,7.392111725102666,7.392111725102632,5.913689380082133,76.87796194106761,45.83109269563647,40.89114160971596,{}
103,46,205,0,6.833333333333313,28.720151578278344,187.9522671231749,10.94405407515905,25.732033352034595,54.637611309911534,57.61707318580378,48.47936973872759,113.74388059094603,88.01581242893167,72.90914982296658,48.10500606876144,72.15750910314216,12.026251517190303,52.614850387707975,18.03937727578568,1.503281439648731,4.7537933135471935,7.5164071982439395,4.509844318946364,78.17063486173743,42.09188031016629,37.58203599121983,{}
104,46,206,0,6.866666666666646,26.6095786066622,188.26136396854207,9.29246792827746,23.69123764786094,54.85705162422219,56.31342902251596,47.222745812955786,106.61056941537424,82.9193317675133,69.05560478294387,45.54731379300552,70.52487296981508,11.019511401533578,47.75121607331232,15.427315962147077,2.2039022803066928,4.407804560613442,7.346340934355737,3.67317046717784,74.93267753042858,39.67024104552098,35.32360294282051,{}
105,46,207,0,6.899999999999979,23.333205574411075,179.30751902407212,9.152036195276526,23.333205574411203,50.97692376234721,53.8533370901276,48.10263558377388,103.7555974005168,80.4260403692736,68.01200707263172,50.6472393094067,72.35319901343803,13.74710781255328,41.24132343765973,10.852979852015665,5.064723930940659,8.682383881612566,8.185830026070645,5.064723930940602,70.90613503316933,37.62366348698782,33.40806622470608,{}
106,46,208,0,6.933333333333312,13.75327679217933,180.65778192018067,13.127797076275655,29.31882645287072,50.05218677058521,52.90991224080797,49.820706003164,105.819824481616,76.50635803096505,68.86182659386628,47.84084794942288,76.83530125210342,13.047503986206266,42.041957288886806,7.248613325670135,1.449722665134118,11.68803778986082,11.688037789860797,10.148058655938144,76.83530125210348,40.592234623752745,45.4066469307418,{}
107,46,209,0,6.9666666666666455,19.51147784454359,181.7969388861389,11.790625418001712,25.24575109073359,51.70531287751832,54.60237720384208,51.70531287751832,108.19143672375468,82.94795710417249,72.39113117094928,51.18564830269145,77.50969600121846,13.162023849263504,42.41096573651578,10.237129660538358,1.4624470943625738,13.24302168360345,12.49515345156293,11.699576754900932,74.58480181249331,38.023624453428,38.38749517909253,{}
108,46,210,0,6.999999999999979,19.441050070054526,182.1868348297719,13.434428011065426,24.942703708218524,52.78088101394111,55.849670538943926,54.22937564462873,111.898761951864,86.96743778847129,76.50133624802032,58.286732379444,81.60142533122172,16.028851404347165,40.80071266561083,8.743009856916615,2.914336618972243,16.094950041078448,12.450051493807257,12.385930630631831,74.31558378379123,36.42920773715253,40.5920119994608,{}
109,46,211,0,7.033333333333312,16.59754334641373,179.1162849479098,14.84529407283219,24.917584835563066,52.72772734446139,55.79342640524728,55.62225135118574,111.78607285509804,86.87985610444285,77.87999543631003,61.139435669626494,84.43064925805567,17.468410191321823,37.84822208119738,5.822803397107236,2.911401698553618,14.629612476792092,15.197963051731447,13.829158068129855,74.24074331311789,37.84822208119738,38.67893307196034,{}
110,46,212,0,7.066666666666645,26.43960895744791,182.3451952304996,11.769954503724907,22.092041325579988,52.87921791489582,55.782058098231545,52.87921791489582,113.17626092541347,91.08781987087669,77.3738086988186,55.475560953869945,77.3738086988186,13.868890238467545,45.98632026439213,16.788656604460584,3.649707957491501,13.138948646969196,11.769954503724907,10.219182280976042,72.99415914982882,37.95696275791096,34.174989123362245,{}
111,46,213,0,7.099999999999978,24.583680657041857,180.49250085393984,10.155424874257667,23.15793174613832,50.45110415062052,51.882196168162096,49.02031055569645,106.89760570254823,83.74377885917885,71.09160096473983,54.57537043757799,73.24589190306523,15.08003656827816,42.367721787067126,13.643842609394484,5.026678856092758,15.863280766573164,14.144870076843532,12.925745629952758,78.9906677385998,44.52201272539264,43.20533583040551,{}
112,46,214,0,7.133333333333312,30.41143685078828,179.07132483169383,7.375856844858878,23.54771343782713,48.08470368343445,53.83326141938882,46.6490146501946,107.83158862431806,84.34614994311701,68.70991554294665,53.521407896611095,73.77275142505857,17.358294452954965,43.39573613238736,13.018720839716252,8.67914722647754,13.09883680105844,11.66225366254858,9.402409495350582,76.66580050055103,39.05616251914864,32.506596028229524,{}
113,46,215,0,7.166666666666645,26.14387937905045,179.05310622109624,7.773777537141317,23.276612852900342,49.41933704841503,52.2877587581009,53.586787002862536,110.47670716000556,87.2007140020826,73.62126668230383,51.96795295221443,75.06482093097645,10.104879740708384,46.19373595752404,15.879096735398887,4.330662746017879,13.071939689525223,13.694758055455786,11.54843398938101,76.50837517964914,40.41951896283348,38.86888768570648,{}
114,46,216,0,7.199999999999978,29.40917511930709,181.48507328040708,10.651973949393495,22.14164595015625,48.63773026169672,52.99795088818243,55.90730899783279,117.96382309369172,95.82309277159216,80.47386318704918,57.06328480536212,80.47386318704918,13.168450339699008,48.28431791222943,19.021094935120686,2.926322297710953,11.796382309369127,10.551005092930172,9.5105474675604,76.08437974048286,36.57902872138601,33.42930998099452,{}
115,46,217,0,7.233333333333311,33.43664450153047,182.9186447287333,11.887376180012373,21.81470232432764,53.6483583072787,56.51561835511619,53.6483583072787,120.69535569311356,98.88066166242396,81.4479199850822,60.54535644908765,82.16869803804752,18.01945132413323,48.29212954867705,20.902563535994545,7.928558582618621,11.622196884646534,11.622196884646534,10.811670794479936,72.07780529653292,36.03890264826646,36.9499823044707,{}
116,46,218,0,7.266666666666644,32.3049084910704,182.100129707882,9.201847916611092,24.904559566758536,54.14644425915933,58.48786032374397,51.254375497323686,117.49033865913734,92.59180857070773,75.65687505731233,53.83277648308757,78.56675486720889,15.276869001957266,50.19542672071691,19.641688716802264,6.547229572267384,10.287978730078656,9.316160969382798,7.274699524741607,69.83711543751906,33.4636178138112,33.589896065586025,{}
117,46,219,0,7.299999999999978,29.27396160158984,175.79466375397263,10.298543753703726,22.03984609263484,51.16210399378358,55.42109435786768,53.966727663007816,115.50908377104514,93.4958046336713,78.64743734557493,59.71379502164024,78.64743734557493,15.292557261639558,45.87767178491868,19.66185933639372,6.553953112131239,11.742146502281216,10.502495112344924,8.738604149508376,69.90883319606655,36.41085062295133,39.61928887568352,{}
118,46,220,0,7.333333333333311,24.772281027523245,176.3907174798927,13.230228013611397,26.18665236702837,51.978624620160055,56.13110367041308,55.00076930009197,119.14120970180348,92.95561015843889,79.64359390605262,64.57588695085337,86.10118260113791,20.80778579527498,42.33308144555952,12.197667535161145,7.8926084051042835,14.42176959954755,12.83520648261775,11.480157680151706,71.75098550094827,37.3105124604931,33.13000265348878,{}
119,46,221,0,7.366666666666644,30.68963375880941,179.63852047321288,10.532303944768332,23.32771081139154,53.84065510675504,56.58888856347603,54.01530537476901,118.46357643479628,95.14336442770772,78.84641491951487,60.76237480035997,85.35666936241051,19.530763328687044,44.12505789073771,15.190593700090062,9.403700861960374,11.66385540569577,11.017915710785807,10.12706246672667,72.336160476619,36.16808023830947,33.866922042899326,{}
120,46,222,0,7.399999999999977,30.549882326959377,177.2010220455397,10.484342976301576,24.65114493108373,50.58955563653151,53.59548083383783,55.02749116737438,120.5763946350968,95.92857633929476,79.92750714402297,63.36595160967585,86.40811583137628,20.161893693987736,44.644193179544345,14.401352638562685,10.080946846993925,11.52108211085016,9.660721040331586,9.360879215065722,69.12649266510095,33.123111068694186,35.56871719226668,{}
121,46,223,0,7.4333333333333105,33.90444283655861,181.5011974771712,10.641513708381073,25.020690119005543,51.49337586653817,55.71835437407701,55.85240800678135,125.28265142782048,100.26406031326792,82.58742432017743,62.85414594278984,87.70345945505562,19.73327837738748,48.96776486240606,18.271554053136583,8.039483783380092,14.690147651088814,11.784798259068491,10.232070269756491,73.08621621254639,36.54310810627322,35.59531337217517,{}
122,46,224,0,7.466666666666644,32.152765718937594,178.37361142743728,8.808373840032592,26.42512152009778,52.45196876576341,55.33135482009909,56.77168836611888,124.11387595166666,97.7110547993936,81.09291339006819,63.71586052076788,88.33335208560999,19.549184477962854,47.062851521021685,13.756833521529416,10.860658043312696,13.350709288770265,12.37246706649022,10.860658043312696,73.85247469452634,37.65028121681735,35.26324082373151,{}
123,46,225,0,7.499999999999977,32.18145885800755,184.27657110346703,10.551645766691676,23.59419720882032,52.67853357824273,56.69281000470775,55.3807325399711,121.54933211065224,97.98066171567852,81.1652807335754,60.87396055018155,85.51342077287404,18.117250163744643,47.10485042573555,16.66787015064483,7.971590072047661,13.12469423013516,11.038149323940342,10.870350098246718,72.469000654978,37.68388034058859,31.22060095483162,{}
124,46,226,0,7.53333333333331,24.746813803059297,180.84263879807096,10.436361005710996,21.9290131172505,51.92518782525796,54.77565588605644,56.365829604334415,113.358834738443,91.4439554836179,78.12817161575299,60.208866199295926,84.5791215656775,16.485760983140494,39.42247191620561,12.185127683190784,7.884494383241076,14.406943252181698,12.822011206649057,12.185127683190842,71.67722166582843,37.27215526623081,34.909088184593195,{}
125,46,227,0,7.566666666666643,26.173349605703702,180.9367837905021,9.071251024254089,21.94042915711624,51.81344219029144,56.1025891942384,53.5511222179738,110.58930250449346,88.65958789792096,74.58311760582382,58.80591965074581,83.18886194495741,17.92863403986155,38.0087041645063,10.757180423916791,9.32288970072807,14.414443372576208,12.82868622619101,12.1914711471058,71.71453615944603,35.85726807972304,33.57588499931067,{}
126,46,228,0,7.599999999999976,15.190018559705525,183.35129360618595,13.175041192151973,23.684705690760044,54.14644425915933,56.91028636658622,54.78771285700483,106.71763529669886,83.03361285452321,74.20193515236394,61.10747600782918,84.38651448700216,18.914218764327984,32.00867790886298,2.9098798098966654,5.819759619793217,14.621965080936024,15.190018559705612,14.549399049483156,69.83711543751906,36.37349762370786,37.772436850240695,{}
127,46,229,0,7.63333333333331,12.994656155040015,187.7903002139552,13.23022801361142,24.563580754154582,54.83202612970502,57.6870783981902,53.78931681329291,104.52027898450218,79.9757997812582,72.46849535595783,61.70584753081545,83.23114318109998,19.37276608525599,30.85292376540781,2.15252956502843,6.457588695085292,14.350197100189687,12.260813777006527,11.480157680151706,67.44592637089136,31.570433620417248,41.78840472888608,{}
128,46,230,0,7.666666666666643,16.199776282634286,187.0944417677915,11.948364610875682,23.58723030386752,55.36437969285346,58.24715111299845,55.53476115812664,107.19307625205283,83.61344690192573,74.62103003581382,59.407033620744926,84.03921829276118,16.66294845459913,34.05037292896361,5.071332138356297,5.071332138356183,11.681824807616698,10.448541748429683,8.69371223718224,69.54969789745752,34.77484894872873,33.919097615456145,{}
129,46,231,0,7.699999999999976,15.0502875957076,178.9969251493602,11.622196884646534,24.67546582980689,52.39416926192472,55.081781466807215,56.88213074588596,108.0686453916598,83.42363776485914,74.96091750839423,59.10380034315699,83.61025414397818,15.136339112271912,35.31812459530113,5.045446370757304,2.1623341588959875,14.415561059306585,12.3166607681569,12.253226900410596,72.07780529653292,37.48045875419712,36.9499823044707,{}
130,46,232,0,7.733333333333309,13.29679561882824,180.32037576719875,13.296795618828329,24.89692222207145,52.10060739356926,55.27750447756785,55.484079870213286,106.93993069016337,82.04304808249714,74.27535899867308,59.131839202827166,82.20767889173527,15.864639786124371,34.61375953336221,4.326719941670262,2.8844799611134704,14.422399805567636,13.682289813348994,12.980159825010844,72.11199902783795,36.05599951391895,42.880877402176175,{}
131,46,233,0,7.766666666666643,9.63117843473697,179.32853085572145,14.42892111329488,24.57576142201461,50.577698460400015,53.43158518409061,57.87617948264501,105.99159393581826,81.43267524639036,76.09375954837304,60.3007151138051,81.83668479730687,13.639447466217804,33.73968583748615,3.589328280583686,0.7178656561167145,13.00109998715735,14.140313535773371,12.203716153984374,71.7865656116727,34.45755149360292,44.96842489247278,{}
132,46,234,0,7.799999999999976,16.49906788848581,180.57595938025656,10.23228753258837,24.76974545199127,51.16143766294182,55.2922370497636,55.292237049763656,106.62220364858156,81.85830026070697,73.07673100357243,59.32962319101915,79.5885189147819,14.470639802687629,36.17659950671896,5.788255921075006,4.341191940806311,15.91770378295638,15.107791492009923,14.470639802687629,70.90613503316928,36.176599506719015,36.17659950671902,{}
133,46,235,0,7.833333333333309,9.749076166475724,177.02322761979894,14.605549246832402,26.320499590292293,49.75319927377088,52.64099918058471,55.53076218650264,105.64248561919128,79.33509361873946,74.11862988861293,61.03887167297541,81.38516223063385,15.98637115244594,33.42604877329609,2.906612936808415,1.4533064684042074,16.052294612137583,13.787275735238175,13.079758215637582,72.66532342020884,37.7859681785086,37.25116772741849,{}
134,46,236,0,7.866666666666642,9.649095995760712,174.1358131915627,14.455764253654856,26.0505737021975,49.24296289115737,52.279542572229694,55.130415812268,104.7666517133648,78.74513677337804,73.35851753100286,58.974494485708135,81.98893135817963,15.82242534982413,33.08325300417778,1.438402304529518,1.4384023045294043,14.384023045294724,13.645882421844725,12.945620740765207,73.3585175310028,37.3984599177661,40.93764726553424,"{'neutral': (['m1', 'm3', 'm12', 'e1', 'e2'], 2.2209034885580134, 80)}"
135,46,237,0,7.899999999999975,13.663119723633429,170.0739813506247,11.611419014560196,23.222838029120503,47.87510706033702,50.735799673152606,58.05709507280103,106.3229138663992,83.1095127018959,75.61151197294083,60.4892095783527,83.5327179891537,14.402192756750653,33.12504334052653,4.320657827025229,2.880438551350153,14.474024587675167,13.663119723633391,12.961973481075574,72.0109637837532,37.4457011675517,38.26757743560946,"{'neutral': (['m1', 'm3', 'm12', 'e1', 'e2'], 2.2209034885580134, 80)}"
136,46,238,0,7.933333333333309,11.193464924169444,177.40482095840696,14.771045394021506,26.496726709942376,48.70255169188784,51.63071338487913,57.396507604037,109.24880295821696,82.77842047956567,77.16313240298922,61.73050592239139,80.83756727932206,13.962852530064763,37.47923573859475,5.144208826865906,0.7348869752665905,14.771045394021437,13.943499987805042,13.227965554798176,74.9584714771895,42.62344456546072,46.03467162713456,"{'neutral': (['m1', 'm3', 'm12', 'e1', 'e2'], 2.2209034885580134, 80)}"
137,46,239,0,7.966666666666642,15.113231802605648,175.24749654694094,11.93709227088382,24.77866502893316,49.74724600632292,52.43376122635397,53.73641673177048,105.22659053854396,80.45500175915147,72.37925337587984,55.00823256566872,78.16959364595021,13.02826560765834,37.63721175545743,7.237925337587967,1.4475850675175934,14.5480498795437,15.590968321858336,14.475850675175993,73.82683844339743,37.63721175545754,43.03979826261659,"{'neutral': (['m1', 'm3', 'm12', 'e1', 'e2'], 2.2209034885580134, 80)}"
138,46,240,0,7.999999999999975,9.174396385339932,170.76457555152606,14.578343915350196,26.47095570090335,46.78042619428333,49.66052543756864,56.74050802206195,106.695508373265,80.25630654303274,75.43117071071373,65.27697465350235,84.13476733118085,18.13249295930632,31.18788789000655,0.7252997183721845,3.6264985918613775,14.578343915350242,13.761594578009843,13.05539493070046,72.52997183722482,37.71558535535689,38.54338517143656,"{'neutral': (['m1', 'm3', 'm12', 'e1', 'e2'], 2.2209034885580134, 80)}"
139,46,241,0,8.033333333333308,15.64628673525787,176.77629826823977,12.082441866603524,27.34765879056377,48.32976746641409,51.3052539686125,57.26304837950602,112.11808966585204,84.77602025532492,76.43076597579915,61.44434127466212,83.92397832636772,15.735745936193894,38.2153829878996,3.7466061752843416,3.746606175284228,12.082441866603524,12.082441866603546,10.490497290795986,71.93483856545805,38.96470422295647,33.67780089139447,"{'neutral': (['m1', 'm3', 'm12', 'e1', 'e2'], 2.2209034885580134, 80)}"
140,46,242,0,8.066666666666642,28.62248566841356,179.18631797787015,9.475255074246236,25.64452885390721,48.15163908421455,51.135661336088674,48.15163908421461,111.68146770148664,86.03719440818304,71.16304518350506,56.93043614680397,74.90846861421579,17.97803246741171,44.94508116852956,13.483524350558923,10.487185605990136,10.487185605990248,10.05002567470775,8.989016233705911,73.41029924193151,38.952403679392205,37.00205393638264,"{'neutral': (['m1', 'm3', 'm12', 'e1', 'e2'], 2.2209034885580134, 80)}"
141,46,243,0,8.099999999999975,22.20935460571444,177.1467009658034,9.28214167428774,23.664910762562982,48.78646334743176,53.01801369589436,50.436291484081615,105.44529283776932,81.79352457792304,69.7126844809053,57.23778304748021,76.31704406330687,16.87780782169284,37.42470430027549,8.07199504515745,8.07199504515745,11.83245538128154,12.539482890547262,11.741083702047206,70.44650221228329,36.690886568897554,36.30729619706906,"{'neutral': (['m1', 'm3', 'm12', 'e1', 'e2'], 2.2209034885580134, 80)}"
142,46,244,0,8.133333333333308,25.35244524377801,171.1045677518776,7.552186690503458,25.352445243778124,47.60320613551523,50.553241255202366,49.4343284346302,107.66324060246384,82.31803546741642,68.8714134496363,54.80090962659233,71.0930719480117,14.07050382304385,43.69261713471565,12.58939815746055,8.146081160709628,11.848845324668616,11.2797646948941,9.627186826293268,72.57417761359528,38.50874730517302,34.671794703444895,"{'neutral': (['m1', 'm3', 'm12', 'e1', 'e2'], 2.2209034885580134, 80)}"
143,46,245,0,8.166666666666641,23.89813150970532,176.90465969185112,7.905694150420945,23.53464064618008,47.34320764739986,50.10764275107104,47.34320764739992,102.35376448107942,78.92051872524696,66.06227469540414,55.78592085389681,71.93447689055114,16.882581311047716,37.435288994062375,8.074278018327163,9.54232856711394,8.808303292720552,10.586263057247391,8.808303292720552,70.46642634176442,41.10541536602926,31.107433417000284,{}
144,46,246,0,8.199999999999974,26.278544067895243,169.7170207920191,6.5189044777043375,23.36824951347937,49.646497400996935,52.55708813579038,47.211452664219486,102.87690502512515,79.57337006075417,65.59521097938654,52.4761687835092,67.05288233448408,13.119042195877228,42.27246929782689,14.576713550974889,8.746028130584818,7.288356775487387,7.288356775487409,5.830685420389955,68.51055368958151,39.35712658763191,35.04479619764753,{}
145,46,247,0,8.233333333333308,27.82960406363528,168.5208531015262,6.030831617557609,21.989075067952506,49.81747791525308,52.73809260594835,48.81972601512096,104.5082596360315,82.54817204940565,68.0151554871735,57.04496911827448,67.28380972924685,13.895569400605382,41.68670820181592,15.358260916458448,9.507494853045728,8.776149095119138,8.528883865938294,7.313457579266014,68.74650124509998,39.49267092803615,33.76885590011254,{}
146,46,248,0,8.26666666666664,35.33036345717763,174.00041666520156,4.639103997199502,25.111226110590263,50.22245222118039,54.59576995254556,44.399885001538536,109.35894372601511,84.24796786139892,66.01560720093812,51.3454722673963,68.94963418764644,16.13714842689592,48.41144528068799,17.604161920250135,10.269094453479283,6.048651587305674,8.298681513943176,5.868053973416693,67.48262069429228,36.675337333854486,32.04005832202715,{}
147,46,249,0,8.299999999999974,27.54250053253798,170.6076460480114,10.193936793034869,24.550250804712103,47.59597012374604,50.53972514395795,59.38788452818363,121.64574740315288,97.11564078259424,82.8943210834334,70.640377966752,83.61514126676764,18.02050458335509,43.97003118338637,16.57886421668661,9.370662383344666,10.091482566678849,10.395816525603257,7.929022016676186,61.99053576674152,31.71608806670497,28.724480811368988,{}
148,46,250,0,8.333333333333307,22.07264480814517,177.3565768783624,13.208197666828411,26.416395333656723,49.67817444200119,54.1453595927466,58.63505161001124,120.32356704811274,93.90720204314516,82.41098051510363,71.47146982725809,88.97468692781109,21.87902137569131,39.3822384762442,7.29300712523036,10.21020997532264,11.668811400368668,12.46229603851926,10.939510687845656,64.17846270202767,32.08923135101384,32.907548095042735,{}
149,46,251,0,8.36666666666664,25.3295351483752,184.2117065745206,10.772868143377444,26.67688336130246,51.87634273679729,54.83131708635654,49.18974242630883,111.77876143537588,85.17342811998253,71.76871131068106,59.19068974076788,75.46812941947906,18.497090543989884,43.65313368381646,11.098254326394112,9.618487082874708,7.545362050279746,9.926580442159198,8.138719839355588,66.58952595836388,35.51441384446076,32.31860443013236,{}
150,46,252,0,8.399999999999974,27.06756578178042,183.4612771347541,9.38117159328108,26.74045327324292,52.105631531253,53.58365574120328,46.196912518237006,109.10024270167509,82.43963082900729,68.23149951796938,54.88185830793191,74.16467338909717,18.54116834727438,43.757157299567325,12.607994476146471,9.64140754058269,7.41646733890974,8.649012856574776,7.416467338909683,66.74820605018755,35.599043226766696,32.39561833051361,{}
151,46,253,0,8.433333333333307,9.000133596724607,176.5494983035108,11.384368564581225,25.65432787398632,49.80661247004298,54.075750681761065,55.57172555745168,101.28649743531253,75.63593614213212,71.15230352863284,59.76793496405162,65.46011924634229,7.115230352863364,38.42224390546164,9.961322494008527,1.4230460705725818,7.256139682591487,5.130865574797243,4.269138211717973,68.30621138748754,44.11442818775237,36.280698412957626,{}
152,46,254,0,8.46666666666664,21.835130736672426,177.85243859846187,14.501026369794864,27.41521501490729,50.522320608179264,53.46546200909939,53.69859739689934,117.3110130383806,90.0285503764709,78.63837991118146,66.37367845714402,77.91692688447336,18.75777869441015,44.73008765590146,12.986154480745654,7.214530267080818,7.357406122650214,7.214530267080955,6.493077240372713,62.0449602968954,37.51555738882047,32.5534443708094,{}
153,46,255,0,8.499999999999973,20.36174011166228,178.91484805438662,17.46890882118373,32.04731786039794,55.14621382927423,58.19153307431385,53.75477464779338,123.617511096344,91.57900903818332,81.23997927227998,76.88783752555065,89.94426276573853,29.73963526931675,39.894632678351854,3.6267847889411087,13.781782197975986,11.605711324611375,11.0483080225495,10.15499740903499,63.83141228536283,36.26784788941069,34.48307611914285,{}
154,46,256,0,8.533333333333307,29.237058966139767,179.87415699810302,13.460802746634942,26.44225074327986,56.959848242999136,59.93236971136998,54.09993782007715,123.06754535610338,96.63804241587724,81.7616268681561,77.38153971450492,87.60174307302441,28.47056649873298,40.15079890846948,9.490188832910915,16.79033408899636,10.22020335851954,11.119249982039038,10.22020335851954,64.24127825355123,36.50072628042682,37.5372304904473,{}
155,46,257,0,8.56666666666664,17.128591266589392,172.7034916529962,14.506221835854994,28.59093298115445,51.28723914764689,54.22136569237876,55.54852952126007,115.64806608165276,87.0605750617491,78.23486445238757,69.70015196667259,83.92467277619755,21.33678121428761,38.40620618571745,5.689808323809984,8.53471248571509,8.534712485715033,10.257447829529356,8.534712485714977,65.43279572381508,34.13884994286002,36.92900388362117,{}
156,46,258,0,8.599999999999973,12.53416878164952,184.21974848184684,16.203693651181904,26.4469618604302,54.45762753355579,58.84534731650696,54.45762753355584,109.19153990509118,82.79208632557285,76.28470165441735,63.08158021422975,80.68574213447988,17.604161920250135,36.675337333854486,5.868053973416636,2.934026986708432,6.048651587305674,6.560683790098722,5.86805397341675,66.01560720093812,38.1423508272087,35.96427786567695,{}
157,46,259,0,8.633333333333306,12.064163922728088,190.86896085056816,14.702915460487183,27.83537384387205,58.59289482770366,60.05410871422219,49.93507838050052,104.37624394300414,76.58047479643285,70.22374890095108,55.5938012132529,71.6867436697209,13.898450303313211,40.23235614116993,6.5834764594642365,0.731497384384852,2.9259895375396354,3.271355753695899,1.4629947687698177,65.83476459464163,42.42684829432466,35.86575762147163,{}
158,46,260,0,8.66666666666664,7.317715294684445,184.55156107588857,16.165361450156748,27.807318119801263,57.09693958805119,60.023110848901695,52.870176492971126,102.9589799592949,75.34049015111552,71.71360988790826,64.39589459322377,71.71360988790838,15.367202118837554,34.393261885017296,3.658857647342302,2.195314588405381,4.390629176810705,3.2725817677809355,2.195314588405381,64.39589459322383,45.36983482704409,34.44771240722332,{}
159,46,261,0,8.699999999999973,18.21715415435765,196.6740326452004,14.801151530419814,28.021353130692937,58.984377437347966,62.013920154731096,53.34598462659774,114.17527175117664,86.22937227606056,76.58402039964636,60.38355454587503,78.05679002271648,16.200465853771334,44.18308869210364,11.78215698456097,2.9455392461402425,4.418308869210364,7.363848115350606,5.154693680745424,67.74740266122558,39.76477982289328,40.73479504573641,{}
160,46,262,0,8.733333333333306,29.73745979850323,195.8528102960604,10.461601850371308,26.79477454819383,56.29858329002641,62.20915692587779,46.24454036323668,113.22720772462144,86.43334676037229,71.01570826052438,54.74127511748742,69.53621433843006,16.27443314303673,50.30279335120474,19.23342098722537,7.397469610471262,2.958987844188528,7.397469610471319,4.438481766282735,68.05672041633579,41.425829818639215,47.01905239548102,"{'neutral': (['m1', 'm3', 'm12', 'e1', 'e2'], 4.777778380190465, 66)}"
161,46,263,0,8.766666666666639,29.73745979850323,195.8528102960604,10.461601850371308,26.79477454819383,56.29858329002641,62.20915692587779,46.24454036323668,113.22720772462144,86.43334676037229,71.01570826052438,54.74127511748742,69.53621433843006,16.27443314303673,50.30279335120474,19.23342098722537,7.397469610471262,2.958987844188528,7.397469610471319,4.438481766282735,68.05672041633579,41.425829818639215,47.01905239548102,"{'neutral': (['m1', 'm3', 'm12', 'e1', 'e2'], 4.777778380190465, 66)}"
162,46,264,0,8.799999999999972,19.38808876776633,180.2202104447594,11.884163721782608,28.04569670721214,51.61277180503054,54.61943665508176,50.65670025382838,109.88341453304082,81.92583982471234,71.49138101273127,61.91006190793223,73.70245465230028,17.688589116552066,41.27337460528816,8.844294558276033,7.3702454652300275,7.516205089435329,9.438519474848786,7.3702454652300275,66.33220918707025,41.27337460528816,35.037746955547945,"{'neutral': (['m1', 'm3', 'm12', 'e1', 'e2'], 4.777778380190465, 66)}"
163,46,265,0,8.833333333333306,23.059194041754782,177.20861710986657,10.170974474539458,27.32946708444388,50.36429943519185,54.73458670913444,48.00872338285386,108.34833153086072,81.17686601626298,69.04286421333205,61.85089919110993,71.91965022222081,19.41830555999968,40.994200626665815,9.349554528888689,10.78794753333318,7.334393997877463,9.210209109711862,7.191965022222064,66.16607820444312,40.275004124443626,32.80040710604084,"{'neutral': (['m1', 'm3', 'm12', 'e1', 'e2'], 4.777778380190465, 66)}"
164,46,266,0,8.866666666666639,26.26320830633472,171.01611221674904,11.76337525905153,27.76064538422513,46.71294046084444,51.25460052849539,47.256659337322255,112.81146224952286,85.07750235474425,71.49428927835584,62.73988650957756,72.95335640648557,21.156473357880827,44.50154740795608,12.40207058910255,10.943003460972818,10.317162605068978,11.1119241940603,9.483936332843086,68.57615502209637,43.77201384389133,32.91805483551298,"{'neutral': (['m1', 'm3', 'm12', 'e1', 'e2'], 4.777778380190465, 66)}"
165,46,267,0,8.899999999999972,30.20008933636927,175.62593023719234,5.922724801476541,23.16241118105809,48.92446526556826,53.3238750103379,47.75053392174495,106.6477500206757,83.51326117668513,68.23240867810534,56.02239870412859,67.51417279728321,14.364717616443158,44.53062461097409,15.801189378087544,10.055302331510234,10.05530233151029,10.358545184729367,9.337066450688098,64.64122927399461,38.78473756439678,34.5351234038174,"{'neutral': (['m1', 'm3', 'm12', 'e1', 'e2'], 4.777778380190465, 66)}"
166,46,268,0,8.933333333333305,30.389934535926383,178.47404914288765,5.966710002249003,23.199414876611417,49.28780350928577,53.62233708651616,49.54208449276507,108.88224009250874,85.68729353527016,70.18627738059183,56.4384498524347,69.46270751068892,13.747827528157131,45.58490180388958,16.642107007769255,7.959268568933112,10.23282323341374,10.43547306926438,8.682838438836086,65.12128829127084,39.07277297476253,34.39811893094,"{'neutral': (['m1', 'm3', 'm12', 'e1', 'e2'], 4.777778380190465, 66)}"
167,46,269,0,8.966666666666638,33.80412013620089,170.73401268413568,7.48718174965443,25.00522119338593,48.54469565166332,52.94236987156827,50.01044238677186,116.23231746428569,91.22741185801416,74.15203596487868,58.734285912775135,70.48114309533025,14.683571478193812,51.392500173678286,22.02535721729066,8.81014288691631,11.838273792276372,9.286706011395522,9.544321460825929,67.54442879969145,41.11400013894263,30.660197375568025,"{'neutral': (['m1', 'm3', 'm12', 'e1', 'e2'], 4.777778380190465, 66)}"
168,46,270,0,8.999999999999972,32.23119247562461,173.19967028404045,6.545163535561871,23.46238008681421,48.3855392230064,52.87017649297119,49.95379267330144,111.7000761514331,88.25055425082421,71.71360988790843,57.07817929853934,70.2500668289714,13.903659059900631,47.56514941544947,18.29428823671128,9.513029883089873,8.78125835362141,8.533849172695827,7.31771529468449,64.39589459322377,42.442748709170246,31.593552522292818,"{'neutral': (['m1', 'm3', 'm12', 'e1', 'e2'], 4.777778380190465, 66)}"
169,46,271,0,9.033333333333305,37.78222774655546,173.22527224733193,4.110164530449911,21.845824136505872,48.04235572236385,50.94366138490049,49.49293492780906,112.12917550235784,90.28339169252015,71.2049676762008,55.22017901419656,65.3923172536538,10.898719542275783,51.58727250010452,23.97718299300629,9.445556936639036,10.17213823945724,9.748111105693466,8.718975633820492,65.39231725365374,40.68855295782902,31.737550368086325,"{'neutral': (['m1', 'm3', 'm12', 'e1', 'e2'], 4.777778380190465, 66)}"
170,46,272,0,9.066666666666638,34.997128310278754,172.37171299942162,3.260664913294306,23.376943636561315,48.14314050350308,52.67765381679381,49.9211951243095,111.16906957737716,87.79608969465633,69.99425662055734,55.41211982460794,65.6196155817725,10.936602596962077,50.30837194602566,22.60231203372166,10.936602596962077,10.207495757164622,9.781994739883174,9.478388917367113,64.1614019021776,40.82998302865849,31.847867488509948,"{'neutral': (['m1', 'm3', 'm12', 'e1', 'e2'], 4.777778380190465, 66)}"
171,46,273,0,9.099999999999971,34.5002476345021,171.35943028402198,7.329893163004549,23.000165089668144,47.52488247980446,51.77033302296882,47.63346128817963,112.27314496086235,89.31093231275172,71.87551590521275,61.81294367848295,71.87551590521275,19.406389294407404,45.281575020284095,16.53136865819897,13.656348021990423,12.937592862938288,11.589578700395135,10.0625722267298,66.12547463279577,41.68779922502341,34.56009199454315,"{'neutral': (['m1', 'm3', 'm12', 'e1', 'e2'], 4.777778380190465, 66)}"
172,46,274,0,9.133333333333304,32.7911096654384,174.61824111621118,7.600114002565003,22.40720318983022,49.27691533459744,52.25277676651419,44.93816912948056,107.57481590216328,85.16772089907978,68.56322930046201,56.63918942212081,65.5822193308768,16.3955548327192,46.20565452857227,17.886059817511864,10.43353489354854,13.414544863133926,13.331481867194704,11.924039878341205,70.05373428525479,43.224644558987,35.8341701927341,"{'neutral': (['m1', 'm3', 'm12', 'e1', 'e2'], 4.777778380190465, 66)}"
173,46,275,0,9.166666666666638,27.947947169717303,176.56902704040192,8.93503978031565,25.01466132468896,47.096885212996256,51.43288236867815,47.096885212996256,108.94729475238196,83.93386483296884,69.77329584230677,57.287548165262365,67.5699286051813,15.42357065987835,46.27071197963494,16.892482151295326,8.079013202793476,13.220203422752888,12.550385284206648,11.751291931335912,66.10101711376433,41.12952175967558,36.72278728542462,"{'neutral': (['m1', 'm3', 'm12', 'e1', 'e2'], 4.777778380190465, 66)}"
174,46,276,0,9.19999999999997,26.689487951687763,173.44218570123562,7.548927166814066,25.211434674690107,47.39805209569009,50.42286934938009,47.46736441947778,106.8502985553614,81.64070969468634,68.10145533817968,48.85539187304198,57.7381903954132,5.921865681580812,53.29679113422765,22.20699630592821,1.480466420395146,10.363264942766476,9.93127066322844,9.623031732568847,74.02332101976054,51.81632471383239,37.74463583407027,"{'neutral': (['m1', 'm3', 'm12', 'e1', 'e2'], 4.777778380190465, 66)}"
175,46,277,0,9.233333333333304,19.39636987581332,182.24747353776127,10.550234361223042,25.539413230331903,49.25954021986771,53.7337428929945,50.92605885288854,106.3116078943942,80.79027527679055,70.87135146931769,53.71302427148282,62.665194983396646,7.460142259928148,47.74491046354035,17.904341423827645,0.0,7.460142259928205,8.699946129268719,7.460142259928148,70.12533724332485,50.72896736751159,35.11817893129136,"{'neutral': (['m1', 'm3', 'm12', 'e1', 'e2'], 4.777778380190465, 66)}"
176,46,278,0,9.266666666666636,24.121935511511992,181.07149208503705,10.660490109709324,31.69591577020936,51.281279065901685,55.80234540761085,45.3290257205699,111.7268189102879,80.03181456778415,67.84294362612775,54.27435490090215,61.812459748249694,12.814778240490796,53.52054441616747,17.337641148899365,3.76905242367377,4.522862908408513,7.538104847347552,4.522862908408513,69.35056459559723,46.73625005355467,35.19576591343586,"{'neutral': (['m1', 'm3', 'm12', 'e1', 'e2'], 4.777778380190465, 66)}"
177,46,279,0,9.29999999999997,20.972458961595063,181.36098318484449,10.592691392786024,25.51057905003841,50.95513975269292,53.94998218587586,49.63893871049186,106.62373957390936,81.1153974636505,70.40754079964063,61.41934410181421,67.41147523369852,14.980327829710744,41.94491792319013,13.48229504673975,5.992131131884321,8.988196697826424,9.592090021111083,7.490163914855373,67.41147523369847,47.93704905507445,33.49703135246508,"{'neutral': (['m1', 'm3', 'm12', 'e1', 'e2'], 4.777778380190465, 66)}"
178,46,280,0,9.333333333333304,17.90247338512586,180.7384018650905,13.426855038844453,28.50218948173317,50.74560915420064,55.27987588977211,49.59214917441437,109.2739529577588,80.78184607197551,71.6098935405036,64.15052963003444,73.10176632259748,19.394346167219737,40.28056511653335,7.459363910469165,8.95123669256293,7.459363910469108,9.552646770191368,6.7134275194222255,68.62614797631596,49.23180180909623,35.46141120772109,"{'neutral': (['m1', 'm3', 'm12', 'e1', 'e2'], 4.777778380190465, 66)}"
179,46,281,0,9.366666666666635,11.699030629235043,179.47771344913818,14.79823328178224,29.16647082792873,46.63836966847807,49.67718812523519,58.20646463185003,113.77848039041751,84.61213588685841,78.35865258860241,69.6521356343132,88.51625570193966,21.04074930619868,34.100524737632554,0.7255430795240727,6.529887715716768,11.699030629235088,12.398085577686238,11.608689272385504,65.29887715716862,40.63041245334938,39.8454625384102,"{'neutral': (['m1', 'm3', 'm12', 'e1', 'e2'], 4.777778380190465, 66)}"
180,46,282,0,9.39999999999997,13.237811979848315,177.59227628539256,11.576130762146985,26.00421016874689,47.729609868294304,49.15532268087607,63.32373873218448,114.01166577138405,88.00905202199682,81.12509032588792,73.22795763929702,91.8939076257845,19.38387113981389,30.87060959303699,2.153763459979359,7.897132686590908,11.48673845322304,12.267842045727596,10.768817299896623,60.30537687942109,35.896057666322065,38.01594183801795,"{'neutral': (['m1', 'm3', 'm12', 'e1', 'e2'], 4.777778380190465, 66)}"
181,46,283,0,9.433333333333303,31.904949768003856,178.96121612333903,11.90974904928949,26.15682796720168,49.44381354759348,52.49277873486741,59.373343553961455,129.1955121000073,103.04028360611862,86.65615289085906,72.21346074238261,93.87749896509727,23.830442044986285,45.49448026770108,12.276288326205076,12.276288326205076,14.44269214847651,13.701540820144938,12.998422933628888,64.9921146681443,38.99526880088655,37.9927912497884,"{'neutral': (['m1', 'm3', 'm12', 'e1', 'e2'], 4.777778380190465, 66)}"
182,46,284,0,9.466666666666637,30.374962237962173,178.09555058816835,11.60893606911208,26.077902848494244,47.864869613991935,52.155805696988594,60.63035470688637,128.66878542653035,102.59810110900077,87.11463390382215,71.9955652097704,90.71441216431066,20.878713910833422,46.79711738635069,15.119068694051748,9.359423477270184,12.95920173775869,12.302607575970598,10.799334781465518,63.356097384597945,38.87760521327601,33.242933874512325,"{'neutral': (['m1', 'm3', 'm12', 'e1', 'e2'], 4.777778380190465, 66)}"
183,46,285,0,9.49999999999997,33.93236660181318,179.0290859164589,13.550646279111191,26.61873837615845,53.2374767523168,56.02519193730937,57.62188742768034,131.63300752510764,105.01429451376455,87.45155005672103,73.48869752665638,94.06553283412023,26.45593110959635,47.03276641706009,13.227965554798176,13.227965554798176,14.697739505331242,14.47559463958484,13.22796555479806,64.67005382345764,35.274574812795095,34.936127978085246,"{'neutral': (['m1', 'm3', 'm12', 'e1', 'e2'], 4.777778380190465, 66)}"
184,46,286,0,9.533333333333305,23.255420916299315,175.67524944743425,14.708019608285188,27.742039935106728,50.66349083226689,53.53799950100434,60.848171439239856,126.47383872588362,98.7486875112206,86.53439883340548,73.55423900839469,93.74559873618932,23.075839688908104,41.82495943614606,7.2111999027838465,8.653439883340525,14.49433242040322,12.899786545571594,11.537919844454107,69.22751906672443,37.49823949447574,41.62555444126996,"{'neutral': (['m1', 'm3', 'm12', 'e1', 'e2'], 4.777778380190465, 66)}"
185,46,287,0,9.566666666666636,17.8475299612289,179.62063227843032,10.20275378879755,21.691352093269938,49.24876757425928,52.12399087975624,62.19496949069497,111.7003523678258,90.02737891527123,80.801687577358,73.58725118652256,89.45901124636072,19.478978255255925,29.57918920242571,2.164330917250595,9.378767308086251,13.06590001472198,12.905576151405164,11.543098225336848,69.25858935202123,37.51506923234484,36.07218195417777,"{'neutral': (['m1', 'm3', 'm12', 'e1', 'e2'], 4.777778380190465, 66)}"
186,46,288,0,9.59999999999997,16.01148114600395,182.68812311913263,11.809484980215318,23.092086507216973,51.87324531026451,56.1453037243436,56.01730579654306,106.75708335515702,83.66516000020155,75.18579655213455,68.74129970480863,85.92662463101078,21.48165615775269,28.642208210337003,0.0,10.024772873617849,12.968311327566129,12.235956711164128,10.740828078876348,67.30918929429183,35.8027602629212,35.428454940645764,"{'neutral': (['m1', 'm3', 'm12', 'e1', 'e2'], 4.777778380190465, 66)}"
187,46,289,0,9.633333333333304,15.880179209484451,181.614745457838,8.745332897635882,20.33248598757625,51.837871405251576,54.80349944529236,54.93535201466712,99.86749182163344,79.54394912491743,71.16733166496846,66.13529811289987,79.07481296107602,17.9715484002445,26.597891632362007,2.1565858080293765,10.782929040146657,12.939514848176032,10.94937879818509,10.782929040146712,63.25985036886078,34.50537292846951,31.03619287853331,"{'neutral': (['m1', 'm3', 'm12', 'e1', 'e2'], 4.777778380190465, 66)}"
188,46,290,0,9.666666666666636,16.022164370642752,178.5303411161429,10.133306491365929,23.10749407290604,51.66992753669121,53.197446332937325,50.341222303949046,99.54394202174235,76.43764737018553,68.07063249092175,60.18876978144658,77.38556114757421,18.62985731330491,30.09438489072329,1.4330659471772833,10.031461630241097,11.55374703645302,10.913905099442248,10.031461630241097,63.054901675801176,34.3935827322552,34.06358869910698,"{'neutral': (['m1', 'm3', 'm12', 'e1', 'e2'], 4.777778380190465, 66)}"
189,46,291,0,9.699999999999967,16.022164370642752,178.5303411161429,10.133306491365929,23.10749407290604,51.66992753669121,53.197446332937325,50.341222303949046,99.54394202174235,76.43764737018553,68.07063249092175,60.18876978144658,77.38556114757421,18.62985731330491,30.09438489072329,1.4330659471772833,10.031461630241097,11.55374703645302,10.913905099442248,10.031461630241097,63.054901675801176,34.3935827322552,34.06358869910698,"{'neutral': (['m1', 'm3', 'm12', 'e1', 'e2'], 4.777778380190465, 66)}"
190,46,292,0,9.733333333333302,6.452788075702556,178.31775186969986,16.131970189256588,27.56632274327174,49.39650365629018,52.26360005888802,53.40632420949961,102.9416903895459,75.37618835194515,72.1443639083555,63.48704023935278,80.80168757735811,18.757534616172507,30.30063284150924,1.442887278167177,2.8857745563342405,10.202753788797606,10.988702127858204,10.100210947169728,64.92992751751987,34.6292946760106,37.87407328998391,{}
191,46,293,0,9.766666666666636,11.632929138324164,178.0607087180493,14.5008376808771,26.13180002944394,49.07938180135758,52.12399087975636,58.00335072350842,110.26529097308672,84.1340630867668,77.91591302102381,69.2585893520212,83.68746213369229,18.7575346161724,33.18640739784348,2.8857745563342405,5.771549112668481,8.776740671078898,8.41340630867667,7.214436390835544,62.04415296118569,34.6292946760106,31.51313382870431,{}
192,46,294,0,9.799999999999969,28.93203161760157,169.54059963671943,14.734093258674095,27.60280243170113,50.65037745767072,53.53551851208704,57.8640632352032,128.98401913973774,101.39344103184226,86.68780273970202,78.01902246573178,91.02219287668714,26.72873917807476,44.066299726015245,12.2807720547911,13.725568767119512,11.558373698626951,11.648323488685598,10.11357698629854,63.57105534244815,33.23032438355244,34.735268792596216,{}
193,46,295,0,9.833333333333302,31.70204963543608,172.59238778336083,12.99524156206932,25.990483124138617,50.30989049615501,53.1756367708979,57.56459488810136,128.23745512284262,102.2541663313276,86.10506144463483,77.49455530017138,88.97523015945609,25.831518433390443,44.48761507972813,14.350843574105852,14.350843574105738,11.480674859284647,11.57001997999555,10.045590501874017,64.57879608347616,35.87710893526452,39.03851512973519,{}
194,46,296,0,9.866666666666635,31.70204963543608,172.59238778336083,12.99524156206932,25.990483124138617,50.30989049615501,53.1756367708979,57.56459488810136,128.23745512284262,102.2541663313276,86.10506144463483,77.49455530017138,88.97523015945609,25.831518433390443,44.48761507972813,14.350843574105852,14.350843574105738,11.480674859284647,11.57001997999555,10.045590501874017,64.57879608347616,35.87710893526452,39.03851512973519,{}
195,46,297,0,9.899999999999968,25.070425455775887,172.1133048834442,13.389459162425895,24.859213390149947,51.01655774599013,52.60420840477459,59.61472223180819,122.69063678348456,97.83310064254344,84.959009051941,76.97140991030557,92.94660819357654,25.415088177931125,37.03341420212803,7.987599141635428,12.344471400709494,14.595341433601584,12.989683387429674,11.618326024197074,68.25766539215775,39.21185033166512,35.365590900948725,{}
196,46,298,0,9.933333333333302,24.668291188567032,174.55742631571766,8.811319098880512,26.234753573875395,48.00000000000009,53.67540573044486,54.08433002356924,113.73826727457627,87.50381724694576,74.60145473903526,69.53145296065418,85.46574426413747,23.90143695522488,35.49001244866736,5.070001778381084,15.210005335143023,14.557967791883204,12.956421282862673,10.864289525102208,68.08288102397395,37.66287035368771,33.442880101872206,{}
197,46,299,0,9.966666666666637,21.664127639891227,173.9386380091801,10.122982050214922,25.927484688331564,48.75873831083193,51.71645175253436,49.01028979107907,106.71947079871856,80.7938275366233,69.43288375930581,65.85386913253751,81.60153349031816,25.05310238737837,32.21113164091503,2.1474087760609564,16.463467283134378,11.45284680565868,9.603503997503996,9.305438029597669,64.42226328183011,35.79014626768338,28.12659222776334,{}
198,46,300,0,9.999999999999968,21.679128384024583,172.6324121299474,10.129991437628355,24.52211282587304,47.47065740560436,50.46728794363574,49.04422565174591,105.37138990332748,80.84977105553973,69.4809606974141,65.89946787795981,81.65803628355883,25.070449736180308,30.80083824730741,0.7162985638909731,15.042269841708162,14.397422949381475,12.24011522529825,11.460777022253865,68.76466213352325,37.24752532232509,30.92552168074566,{}
199,46,301,0,10.0333333333333,20.49248631845021,177.4997132766079,10.246243159225202,24.803528447075607,49.60705689415123,52.3461700673024,56.808927427902674,112.33546619448236,87.5319467858111,76.79899300748815,71.0028425918286,86.94225623489223,22.46008286068048,32.60334608808466,2.1735564058723185,12.316819633276282,7.245188019574357,9.27836780257894,5.071631613702095,68.10476738399893,37.674977701786645,34.83722674136532,{}
200,46,302,0,10.066666666666634,20.5667080043631,174.08962090973944,11.992348500877036,24.7655959608942,48.18933735766291,52.53576253222338,54.12210395112947,111.298009268963,86.58803901217281,75.62286522215754,68.35143587387313,87.25715217941251,23.995716849338464,32.72143206727969,2.181428804485336,13.815715761740307,10.1800010875981,11.724827520882256,9.452858152769693,71.26000761318693,39.26571848073564,37.75545710650025,{}
201,46,303,0,10.099999999999968,20.17941616198199,177.9818535991259,10.466787778744289,27.655170852929533,49.21973710320905,52.07657353372531,54.93535201466712,113.06032363552536,85.4206430587916,74.76164134501727,67.57302198491942,87.7011561931933,23.00358195231297,34.50537292846957,1.4377238720195464,11.501790976156483,10.166242993788126,9.644544932129792,9.345205168127109,70.4484697289586,40.25626841654776,31.400363336233003,{}
202,46,304,0,10.1333333333333,29.201270535889886,172.4696933732047,13.394315614676524,23.4259784413016,50.931563306929874,53.83272123779099,59.84832311406887,125.78413114766104,102.35921620390212,87.16905055378078,75.54651047994338,94.43313809992918,25.42430641151941,39.952481503816216,10.896131319222604,13.801766337681896,8.716905055378106,8.471309008307212,7.264087546148403,69.73524044302465,37.77325523997166,33.54089675547261,{}
203,46,305,0,10.166666666666634,35.43825784960371,178.8314259889457,13.508399422497636,25.29312921756677,52.9297309669477,57.4422396407176,57.161255208470685,131.06710420381637,105.85946193389536,87.91149813359067,73.2595817779922,96.70264794694975,27.83864107563704,45.4209407023551,14.651916355598471,14.651916355598471,7.325958177799237,7.325958177799237,4.395574906679542,73.25958177799222,39.56017416011582,41.7000849929682,{}
204,46,306,0,10.199999999999967,29.7897688893521,188.20539776642107,13.580474449951394,28.33389903314525,54.68019928766674,57.6170734517479,54.58090703343732,126.06928636752129,97.7638815832417,82.48851911503084,67.75842641591817,88.38055619467593,23.568148318580256,47.1362966371604,14.73009269911256,10.31106488937894,6.073372807358071,7.3650463495563825,5.155532444689413,73.65046349556326,41.24425955751542,46.13600480502043,{}
205,46,307,0,10.2333333333333,22.21639034586852,177.15981485652998,14.382211234716266,26.114823376772065,53.25861432669838,56.105044336494416,54.55038038364166,116.9817763585422,90.88225349318746,79.4251345607924,70.12309177439334,90.15826085279144,25.75950310079748,35.777087639996694,5.724334022399603,11.448668044798865,10.01758453919905,8.34457907865943,7.1554175279993615,71.55417527999325,41.50142166239607,47.20406762133958,{}
206,46,308,0,10.266666666666634,28.962640646451646,180.1330767676378,11.54604325360843,26.133562633025623,53.29683119713933,56.01730579654318,56.145303724343655,122.74447814151252,96.63296982747435,81.6302933994603,70.17341011532557,90.22295586256138,24.345876978786464,41.53120190498851,11.456883284134731,12.888993694651733,7.302358928844799,9.169980880260365,7.160552052584308,68.74129970480868,37.23487067343802,43.08248955502929,{}
207,46,309,0,10.299999999999969,28.962640646451646,180.1330767676378,11.54604325360843,26.133562633025623,53.29683119713933,56.01730579654318,56.145303724343655,122.74447814151252,96.63296982747435,81.6302933994603,70.17341011532557,90.22295586256138,24.345876978786464,41.53120190498851,11.456883284134731,12.888993694651733,7.302358928844799,9.169980880260365,7.160552052584308,68.74129970480868,37.23487067343802,43.08248955502929,{}
208,46,310,0,10.3333333333333,34.20402066831053,182.46136845796067,14.48371041641057,27.318951393989064,56.96933965276851,59.802250966372256,51.44344935343756,127.36356236273078,100.0642742433795,82.37418997048576,71.01223273317726,86.63492393447632,27.69477076593916,47.57819593122872,16.33281352863071,13.492324219303669,5.680978618654194,6.025587757539249,4.970856291322377,71.01223273317734,41.18709498524288,45.84553265065845,{}
209,46,311,0,10.366666666666632,30.15017206978859,182.61497346863567,13.177082117736362,25.88491310513248,58.877682964166056,60.30034413957696,48.78347713353804,117.90272814291842,92.01784475627984,76.46515471176502,71.4627614128645,91.4723346084666,32.872870249917696,35.73138070643222,4.287765684771898,20.009573195602115,7.146276141286421,8.333918481424437,7.860903755415109,68.60425095634992,40.01914639120412,45.42244172846499,{}
210,46,312,0,10.399999999999968,29.04772968526381,179.47520249023054,17.149423696647233,27.20896120023446,55.834478336844015,60.08630947207811,47.34200730746213,120.6526880862461,93.45500000813196,78.33001660567396,71.20910600515816,93.99601992680874,35.60455300257905,37.02873512268229,5.69672848041273,18.514367561341032,7.120910600515799,8.304337431820294,7.120910600515799,65.51237752474549,37.02873512268224,45.26121582915939,{}
211,46,313,0,10.4333333333333,13.180700681024422,182.24504010663364,15.790975156721483,27.31338127378476,61.62428448768678,64.47695351880033,48.79687358184448,104.98910779906956,77.67606411145796,70.76756196935634,70.05273811108003,85.77886299315918,29.307778189329383,26.448482756224053,5.003767007934243,15.011301023802844,2.859295433105274,5.154668147880564,2.859295433105274,64.3341472448694,40.03013606347429,39.25678305028242,{}
212,46,314,0,10.466666666666631,13.180700681024422,182.24504010663364,15.790975156721483,27.31338127378476,61.62428448768678,64.47695351880033,48.79687358184448,104.98910779906956,77.67606411145796,70.76756196935634,70.05273811108003,85.77886299315918,29.307778189329383,26.448482756224053,5.003767007934243,15.011301023802844,2.859295433105274,5.154668147880564,2.859295433105274,64.3341472448694,40.03013606347429,39.25678305028242,{}
213,46,315,0,10.499999999999966,14.925960360573804,191.1936689164936,14.57960320853068,27.49982290078168,57.47112693349455,60.31690323889904,50.221145549560696,106.9563782366777,79.45806580297045,71.48238582763264,65.76379496142204,85.77886299315918,25.73365889794775,30.022602047605687,1.429647716552665,11.437181732421209,5.718590866210604,6.065481570493437,5.0037670079343,64.3341472448694,35.74119291381635,47.15670834215754,{}
214,46,316,0,10.5333333333333,15.742622109673183,188.3735049845322,16.1446260965055,27.92508529207924,58.63083753590403,63.122980091005694,46.97840166495373,106.25013254726127,78.3458305726172,70.15995687478289,67.23662533833351,89.16161186170314,31.425814016829747,27.0408167121559,3.654164420561529,15.347490566358715,7.453062274527999,8.522902780859992,6.57749595701091,64.31329380188424,36.54164420561602,44.71837364716822,{}
215,46,317,0,10.566666666666633,16.264463378690323,187.1643326107484,16.264463378690323,26.346422638519645,62.705781857559465,65.52782543588182,46.9138853438195,105.74653285583896,79.41323071681911,70.5547847206766,71.28215363532274,90.19374541612262,34.186338988369016,24.00317418332304,3.6368445732307455,18.18422286615373,7.273689146461493,9.31486705385208,7.273689146461493,64.00846448886122,36.36844573230752,47.65237967896447,{}
216,46,318,0,10.599999999999966,25.43768609884028,191.19747438040045,13.701031237858455,25.437686098840395,62.57461142996184,65.53957132707318,50.87537219768066,115.38953828290552,89.95421669333999,76.53340270967072,72.81818898590035,92.13730034950656,31.95083802442565,31.950838024425707,0.7430427447541206,18.576068618852105,5.94434195803268,6.304926762324921,4.458256468524496,60.92950506983499,29.7217097901634,39.6537067431814,"{'neutral': (['m1', 'm3', 'm12', 'e1', 'e2'], 4.2580415269136695, 60)}"
217,46,319,0,10.6333333333333,25.757838057323927,188.8567589242144,12.029787468788264,25.40974316396776,62.7396955204808,65.80533118787653,52.56384997920596,115.67473476757893,90.31897678595344,76.84374203657052,74.60557479278685,92.51091274305573,31.334341412970502,31.334341412970502,1.4921114958557382,19.3974494461246,4.476334487567215,6.672925469484652,3.7302787396393455,61.17657133008518,31.33434141297045,37.7477667986002,"{'neutral': (['m1', 'm3', 'm12', 'e1', 'e2'], 4.2580415269136695, 60)}"
218,46,320,0,10.666666666666632,22.573305919324,185.17073999588416,14.83023133120438,28.07640664224435,62.04808308316894,65.07992464719435,52.401628257333904,117.70206192942334,89.7610864631211,77.47231649832008,75.25882174122523,91.49111662658754,31.72675818502637,33.20242135642286,0.7378315856982454,18.44578964245721,7.3783158569828515,5.320579229784105,5.902652685586247,64.92917954144923,41.31856879910407,37.62217653220669,"{'neutral': (['m1', 'm3', 'm12', 'e1', 'e2'], 4.2580415269136695, 60)}"
219,46,321,0,10.699999999999966,15.5040640153599,189.4375708487445,13.447428075564355,23.80668171087573,57.99188503127406,62.52974703170076,52.503385757183686,105.00677151436732,81.29721634277529,72.76598020414923,69.79594019581663,87.61618024581236,26.73036007499365,25.245340070827183,1.4850200041663584,14.850200041663127,7.572145979319599,7.425100020831588,6.6825900187483285,65.3408801833177,32.67044009165886,38.17974589810271,"{'neutral': (['m1', 'm3', 'm12', 'e1', 'e2'], 4.2580415269136695, 60)}"
220,46,322,0,10.7333333333333,7.563558673160901,198.63235710549185,16.708447223948163,26.11345331517829,60.6784108104286,62.18698882112512,50.28486805455292,99.72430926529525,73.61173006850493,69.58473979308087,62.02118111991979,75.63558673160958,18.90889668290237,29.497878825327803,0.7563558673160742,2.2690676019482225,4.538135203896559,5.454159724212444,3.0254234692643536,69.58473979308084,40.8432168350692,39.70688214595455,"{'neutral': (['m1', 'm3', 'm12', 'e1', 'e2'], 4.2580415269136695, 60)}"
221,46,323,0,10.766666666666632,7.563558673160901,198.63235710549185,16.708447223948163,26.11345331517829,60.6784108104286,62.18698882112512,50.28486805455292,99.72430926529525,73.61173006850493,69.58473979308087,62.02118111991979,75.63558673160958,18.90889668290237,29.497878825327803,0.7563558673160742,2.2690676019482225,4.538135203896559,5.454159724212444,3.0254234692643536,69.58473979308084,40.8432168350692,39.70688214595455,"{'neutral': (['m1', 'm3', 'm12', 'e1', 'e2'], 4.2580415269136695, 60)}"
222,46,324,0,10.799999999999963,7.826294847631018,189.09745574812675,17.68023626209794,26.52035439314699,58.42219698732971,61.46988162822169,50.4487871785044,102.32144530258344,75.82305295349786,70.48536371760252,63.94548460978376,88.65169457265478,26.88616966547727,23.979556728668967,7.993185576222913,7.993185576222913,7.266532342020866,8.47416010573229,5.086572639414612,69.75871048340048,34.87935524170024,45.88859762546801,"{'neutral': (['m1', 'm3', 'm12', 'e1', 'e2'], 4.2580415269136695, 60)}"
223,46,325,0,10.833333333333298,11.956996972891032,186.5546250321701,14.78714503696652,26.260596384515512,58.16285080867213,62.61913743571657,49.8301978747479,102.745491410846,76.52093406940446,69.5999456250637,65.24994902349721,84.09993429695203,25.374980175804467,26.82497904299328,3.624997167972083,10.874991503916192,5.799995468755299,8.20243225361632,5.07499603516095,66.69994789068608,34.79997281253185,39.815606525532885,"{'neutral': (['m1', 'm3', 'm12', 'e1', 'e2'], 4.2580415269136695, 60)}"
224,46,326,0,10.866666666666632,11.78721978838447,181.0617801697496,15.981293656896188,23.04854949127468,55.91169271845465,58.88407353916124,48.78877208492632,99.46477803612576,76.41665749179235,70.04110761100378,67.18228689218728,85.7646215644944,27.87350200846072,22.15586057082772,5.002936257928866,12.149988054970038,8.576462156449452,10.307624689051671,7.147051797041172,65.752876532779,32.87643826638947,35.04242570550354,"{'neutral': (['m1', 'm3', 'm12', 'e1', 'e2'], 4.2580415269136695, 60)}"
225,46,327,0,10.899999999999965,11.890001739787106,185.6605894363541,14.70429244187616,26.31174057921092,57.83696348456015,59.27489783638192,53.83427252344825,106.6694819448298,80.35782760491007,73.53559959288026,69.20997608741663,89.39621911291323,25.95374103278124,25.95374103278129,4.325623505463568,11.5349960145694,10.195592378577324,11.624763874381896,8.651247010927023,69.20997608741669,37.488737047350696,46.699819923348464,"{'neutral': (['m1', 'm3', 'm12', 'e1', 'e2'], 4.2580415269136695, 60)}"
226,46,328,0,10.933333333333298,11.890001739787106,185.6605894363541,14.70429244187616,26.31174057921092,57.83696348456015,59.27489783638192,53.83427252344825,106.6694819448298,80.35782760491007,73.53559959288026,69.20997608741663,89.39621911291323,25.95374103278124,25.95374103278129,4.325623505463568,11.5349960145694,10.195592378577324,11.624763874381896,8.651247010927023,69.20997608741669,37.488737047350696,46.699819923348464,"{'neutral': (['m1', 'm3', 'm12', 'e1', 'e2'], 4.2580415269136695, 60)}"
227,46,329,0,10.966666666666631,18.97821908575438,182.62644286601463,14.714620774577742,26.3302220132366,57.87758831596086,60.875480955338254,52.26360005888795,112.23029167677387,85.9093679852497,75.75158210377327,72.1443639083555,89.45901124636072,28.857745563342178,30.30063284150924,0.0,14.428872781671089,11.543098225336848,9.67918211355391,8.657323669002665,69.2585893520212,38.95795651051191,38.50103469541431,"{'neutral': (['m1', 'm3', 'm12', 'e1', 'e2'], 4.2580415269136695, 60)}"
228,46,330,0,10.999999999999964,16.412942731477354,186.49854622359567,13.27162924728891,26.07064043163321,55.0036114965236,59.30013733374723,50.46505134265653,105.87987271749758,79.81172722361478,71.25576006319284,64.77796369381173,82.0520873454949,23.03216486891085,31.669226694752297,1.4395103043068502,8.637061825841613,8.756199341016345,8.393715336547821,7.197551521534592,66.2174739981186,37.427267911980096,36.24594331610769,"{'neutral': (['m1', 'm3', 'm12', 'e1', 'e2'], 4.2580415269136695, 60)}"
229,46,331,0,11.033333333333298,8.523244218232476,188.3810514456652,12.053687568842324,25.02069011900556,54.39893041363924,57.306305117013046,55.718354374077,100.46630237300803,75.459527365898,70.89362972617005,62.8541459427899,84.78001080655383,18.271554053136583,25.580175674391285,3.654310810627294,6.577759459129197,11.78479825906852,10.540644003359308,8.770345945505596,68.70104323979362,33.61965945777132,36.5431081062732,"{'neutral': (['m1', 'm3', 'm12', 'e1', 'e2'], 4.2580415269136695, 60)}"
230,46,332,0,11.066666666666633,8.526603872883868,187.0030221789016,14.912597571228703,26.48338843527575,54.420373143064815,57.49649533908988,55.74031718819474,104.84806757226607,78.37985244709974,73.84617526364627,67.26582301243025,89.20033051648363,22.66565775418843,25.590258754728893,5.11805175094571,8.04265275148623,11.698404002161794,13.079213288544697,10.967253752026693,70.19042401297068,33.63291150621512,39.37364595755185,{}
231,46,333,0,11.099999999999964,12.2708465637041,183.6644456434844,13.24105405322315,26.0105788615152,53.448802851274095,56.470006847239816,50.45110415062051,101.554248742577,75.56072886290644,68.93731002641437,61.756340231996205,83.29924961525069,22.26100636269632,28.005782198230804,3.5904848972090804,9.33526073274362,11.57896587306916,10.356541920533076,8.617163753301782,70.37350398529799,35.904848972090804,37.698381627210686,{}
232,46,334,0,11.133333333333296,11.690264602017349,183.9899443061546,14.787145036966466,27.891285099365376,52.52119276903114,57.01280488764235,53.826020408922666,108.09058351408429,80.22307924875756,73.94994222663018,63.7999501563084,85.54993316414078,21.02498357423804,32.62497451174852,0.7249994335944621,6.5249949023498175,11.690264602017232,10.456090530027955,8.699993203132976,71.04994449225256,36.24997167972072,45.02007144723704,{}
233,46,335,0,11.16666666666663,11.690264602017349,183.9899443061546,14.787145036966466,27.891285099365376,52.52119276903114,57.01280488764235,53.826020408922666,108.09058351408429,80.22307924875756,73.94994222663018,63.7999501563084,85.54993316414078,21.02498357423804,32.62497451174852,0.7249994335944621,6.5249949023498175,11.690264602017232,10.456090530027955,8.699993203132976,71.04994449225256,36.24997167972072,45.02007144723704,{}
234,46,336,0,11.199999999999964,11.690264602017349,183.9899443061546,14.787145036966466,27.891285099365376,52.52119276903114,57.01280488764235,53.826020408922666,108.09058351408429,80.22307924875756,73.94994222663018,63.7999501563084,85.54993316414078,21.02498357423804,32.62497451174852,0.7249994335944621,6.5249949023498175,11.690264602017232,10.456090530027955,8.699993203132976,71.04994449225256,36.24997167972072,45.02007144723704,{}
235,46,337,0,11.233333333333295,27.531714474382568,179.7741248750596,13.121593583092997,30.56748174145046,53.63396935950489,57.9796142973763,43.49527203939493,114.62061476710392,84.09413299642188,70.2783237898712,68.10476738399888,73.90091779965843,27.531714474382625,43.47112811744603,10.143263227404075,15.93941364306363,5.974535096432964,7.2451880195742655,5.071631613702039,75.34995540357326,57.96150415659483,43.85583586530254,{}
236,46,338,0,11.26666666666663,16.106414271519043,168.48706806840022,11.804914841623736,24.93475923630619,45.48517153354797,48.34142286751068,54.255210000925935,107.04836412820744,82.11386703320737,73.94308370106478,73.21097396145024,79.06785187836624,21.96329218843499,30.74860906380912,2.9284389584580595,11.71375583383201,10.249536354603038,9.260537097498515,8.053207135759465,65.8898765653052,57.10455968993119,54.49178907362844,{}
237,46,339,0,11.299999999999963,21.970800679329272,174.3078395666054,13.182480407597607,27.82968086048368,48.33576149452426,52.72992163039021,55.65936172096741,118.64232366837795,90.81264280789428,79.82724246822971,76.16544235500811,77.63016240029668,21.23844065668493,41.74452129072563,9.520680294376008,10.98540033966458,8.78832027173172,8.909544208858321,8.78832027173172,52.72992163039021,62.98296194741056,52.75026104161157,{}
238,46,340,0,11.333333333333297,26.141836622486966,166.15258920879103,14.434414563102678,28.868829126205355,46.28025376392582,47.720969174044,58.02562840915123,127.31775520345138,98.53536567205316,85.16304592230591,88.04992883492645,80.83272155337505,26.703666941739925,42.58152296115304,12.26925237863736,15.156135291257783,8.780111605123201,7.773170131681031,7.217207281551339,63.51142407765184,63.51142407765184,60.89886175681204,{}
239,46,341,0,11.36666666666663,23.476979860934943,172.02765234039936,18.983662933450823,30.61023671526032,49.5889083726339,52.49612287544419,55.8041440769206,128.7946213197375,98.24362496792716,85.90284849721422,90.27078994622514,81.53490704820331,30.575590143076283,42.22343400710531,10.191863381025428,16.01578531303994,9.208429110087064,5.823921932014514,6.551912173516371,62.60716076915614,68.43108270117065,65.53529729934888,{}
240,46,342,0,11.399999999999965,13.01468850030797,165.7870528650339,20.17251118076705,28.78054661864593,47.51567823652795,48.95035507004668,57.776007836429365,119.7137401736178,90.95532122327587,84.07806687994986,94.85730622353304,81.92221901123315,30.900486118272056,30.90048611827217,0.7186159562389776,15.090935081016596,11.587334122475898,11.587334122475855,10.7792393435833,57.48927649911096,70.42436371141093,66.12828821470924,{}
241,46,343,0,11.433333333333296,5.22115459472591,170.31506509835646,15.99465186301431,30.44430127739729,45.26287732626344,46.69942637937,59.653481842761465,110.66270964019824,80.28729164618414,77.47269404229729,86.88526434650163,69.50821147720131,18.82514060840868,31.85793026038391,1.4480877391083595,7.240438695541798,10.542237870028636,8.808373840032592,8.688526434650157,50.68307086879258,68.06012373809293,56.6422624304381,{}
242,46,344,0,11.46666666666663,5.22115459472591,170.31506509835646,15.99465186301431,30.44430127739729,45.26287732626344,46.69942637937,59.653481842761465,110.66270964019824,80.28729164618414,77.47269404229729,86.88526434650163,69.50821147720131,18.82514060840868,31.85793026038391,1.4480877391083595,7.240438695541798,10.542237870028636,8.808373840032592,8.688526434650157,50.68307086879258,68.06012373809293,56.6422624304381,{}
243,46,345,0,11.499999999999964,7.897082685936842,170.07043734041417,16.197485568721998,31.10813272465913,47.29163793783825,50.203210612974246,62.21626544931835,117.17855472655434,86.07208025788249,81.38805491873325,90.91998927858492,68.92321767892724,18.33064299971465,35.92806027944084,3.666128599943022,8.065482919874398,12.529366595491275,10.2651600798402,10.998385799828782,46.92644607926962,68.92321767892724,64.7899422748881,{}
244,46,346,0,11.533333333333296,16.318220175899608,168.23176109282488,11.801998872492591,29.19091966809605,46.354175057575226,49.18425090072331,62.35183174336888,119.57181561947068,90.38132155229157,80.86294614341125,93.02816812958817,65.83531898401623,17.890032332613146,37.92686854513977,9.30281681295878,12.165221986176904,10.899714168140042,10.018418106263312,10.018418106263312,42.936077598271424,70.12892674384332,58.95790372906906,{}
245,46,347,0,11.56666666666663,17.497558785523697,164.88363413141514,12.809691542192011,27.21025475635234,47.214385456440034,48.4278904925709,63.26255730087493,120.70555614517218,93.50240211256848,83.4610333475868,97.60697120311004,70.72968927761593,21.926203676060936,34.65754774603181,7.780265820537807,14.853234748299316,11.665039190349102,10.002688583883955,10.609453391642376,39.60862599546493,66.485907920959,61.09014612193889,{}
246,46,348,0,11.599999999999962,16.249198667676236,164.9482991855841,12.905273073143428,27.413288357795697,47.566683029725816,50.20490656077793,59.5330301378415,115.99872445877504,88.60026513353814,79.09576949333177,94.05983399207014,65.55685399447316,21.377234998197764,34.203575997116445,8.550893999279197,14.251489998798434,11.489918566761224,9.976042999158947,9.976042999158947,38.47902299675593,66.98200299435297,56.03572782335651,{}
247,46,349,0,11.633333333333296,14.348457449490915,177.0896899431986,14.559994030403583,26.05353418242816,53.30597780688048,53.13362104158737,59.38374447883976,114.30718825065506,88.25372520890878,79.95259319257832,85.66349270633395,62.81989465131153,15.70497366282791,38.54857171785022,11.421799027511156,8.566349270633395,12.769959525427993,10.393994006694829,10.707936588291716,34.26539708253358,65.6753444081894,57.747897498072405,{}
248,46,350,0,11.666666666666629,7.706620530427001,172.45595379690434,14.594245441269036,24.70433160399205,47.76475688203595,49.1801586008016,56.97438020724746,103.84973760197944,79.163628011859,73.70080053839297,84.43392683039201,57.24334022399455,15.026376808798544,30.76829537039714,7.870959280799298,7.870959280799184,12.79999999999996,10.119288512538809,10.733126291998984,31.48383712319702,67.26092476319366,56.70414446934196,{}
249,46,351,0,11.699999999999962,19.026059766179767,177.70948180022418,12.913553962675088,26.295311142342484,50.64031503594585,53.45360715946906,48.77887573303885,106.88818999023172,80.59466814768189,69.16407835068242,86.98987174003366,58.46860231707183,25.669142480665755,31.37339636525792,5.704253884592276,19.964888596073365,11.497291269829274,10.083791508512457,10.69547603361076,35.651586778702324,71.30317355740465,57.68069773194025,{}
250,46,352,0,11.733333333333295,4.768928569392832,161.3648624068061,14.787819734488526,26.97713384329568,45.66540030260752,45.66540030260762,50.883854138584695,97.01531076066412,70.03871120740207,66.79447173396483,82.0050940100162,52.90651226452661,17.194616485971153,27.77591893887643,2.645325613226305,9.258639646292124,10.073099830731026,9.629130578608049,9.25863964629218,34.389232971942306,70.10112875049774,57.62318314876265,{}
251,46,353,0,11.766666666666628,4.768928569392832,161.3648624068061,14.787819734488526,26.97713384329568,45.66540030260752,45.66540030260762,50.883854138584695,97.01531076066412,70.03871120740207,66.79447173396483,82.0050940100162,52.90651226452661,17.194616485971153,27.77591893887643,2.645325613226305,9.258639646292124,10.073099830731026,9.629130578608049,9.25863964629218,34.389232971942306,70.10112875049774,57.62318314876265,{}
252,46,354,0,11.799999999999962,17.06729653346251,167.0864615025027,8.964183305472282,23.375730146284823,46.14595791457646,48.93491752886079,50.59008941819857,99.79072835566582,76.44561760001672,66.61600603009083,76.5375388430831,46.77294040410629,12.047575558633412,36.14272667590035,14.88229921948846,10.630213728205945,12.67726960619728,10.318549878383738,9.921532812992268,34.01668393025909,72.28545335180064,58.95271143849232,{}
253,46,355,0,11.833333333333297,17.44845105819318,172.6176785464714,10.441525578933916,25.04816650795277,53.549745210755226,55.1768469858656,50.444157353025794,103.3160651027006,78.26874472037262,67.40993057433008,77.44970746837924,51.63313831225281,15.776792262077263,35.85634605017549,10.039776894049169,12.908284578063215,14.125762141606916,11.563324150748036,12.90828457806316,35.8563460501756,73.14694594235817,58.24200935219634,{}
254,46,356,0,11.866666666666628,14.940950438308874,171.27624470427884,11.801016905334842,24.70433160399205,49.40866320798408,52.22964675354413,48.59366213818422,99.9711958516052,75.31905469401485,65.82984125759378,78.70959280799264,50.0879226959953,17.173002067198354,32.91492062879695,10.017584539199106,12.879751550398735,13.576450198781725,11.537764081484768,12.879751550398794,38.63925465119638,72.98525878559315,55.05488170907284,"{'neutral': (['m1', 'm3', 'm12', 'e1', 'e2'], 5.469529143955719, 23)}"
255,46,357,0,11.89999999999996,14.322570190357371,174.13664634662044,10.375241327723543,23.199744891755017,48.789242824809385,51.79784374397381,50.86803792115217,98.66519688936914,75.46564304298576,66.98200299435291,78.38319499339173,54.15566199543434,16.389213498618346,30.64070349741678,6.413170499459284,12.113766498978748,12.176478392608963,11.489918566761252,12.113766498978748,39.9041719966358,71.25744999399251,50.20490656077805,"{'neutral': (['m1', 'm3', 'm12', 'e1', 'e2'], 5.469529143955719, 23)}"
256,46,358,0,11.933333333333294,18.54990172029422,171.1320945333428,8.91966527577174,24.63023078084217,48.466706669157645,49.86244473292541,47.57619356963076,99.58517675314438,74.9596909820306,64.16969249088754,76.15743724193248,50.77162482795495,16.923874942651537,33.847749885303415,9.87226038321353,14.103229118876357,12.614311604824849,11.3703868239691,11.28258329510112,36.6683957090786,70.51614559438195,51.722523263512365,"{'neutral': (['m1', 'm3', 'm12', 'e1', 'e2'], 5.469529143955719, 23)}"
257,46,359,0,11.966666666666628,2.8456779794505564,170.84143346760993,11.47129466949368,24.562009193536007,53.12355675414839,54.366601460789006,48.66858149872848,87.35119008967119,62.81475599761532,59.75923756846055,69.71911049653727,46.95368666093327,11.382711917801998,27.03394080477983,4.268516969175835,7.114194948626164,11.4712946694937,10.060990981713422,11.382711917802055,36.99381373285655,73.98762746571305,52.18154092653634,"{'neutral': (['m1', 'm3', 'm12', 'e1', 'e2'], 5.469529143955719, 23)}"
258,46,360,0,11.99999999999996,18.158660132582604,164.46314798672225,10.139050223521062,24.041827211998605,46.29568117836898,48.92343245006506,51.6804527482705,103.79161681551322,79.76204154044385,68.93893000204343,73.81339980016776,51.53010929445668,12.534350909462432,38.99575838499425,15.319762222676331,9.748939596248649,13.212365955234818,11.228351971078542,12.53435090946249,34.817641415173455,69.63528283034697,56.55482558335092,"{'neutral': (['m1', 'm3', 'm12', 'e1', 'e2'], 5.469529143955719, 23)}"
259,46,361,0,12.033333333333294,7.748388442260635,170.11198165896474,14.46015914047493,29.09873032656855,48.0236296455673,49.446702479572735,55.14717673431879,106.1235661662999,77.1223400878266,71.22256079958072,73.38082021774983,48.92054681183322,7.913617866620029,42.445768557326005,13.668976315071175,0.7194198060564077,14.170926739289866,11.8649753981271,12.230136702958305,38.84866952704402,74.81965982986259,59.620763499418565,"{'neutral': (['m1', 'm3', 'm12', 'e1', 'e2'], 5.469529143955719, 23)}"
260,46,362,0,12.066666666666627,11.614814065048693,169.31355520217954,12.985756897734838,27.09309797425414,46.82081234549306,49.79810447122925,53.63419993209424,105.2614611407609,78.23217230547147,70.42515472368473,74.65066400710577,50.70611140105302,10.563773208552677,40.14233819250035,13.380779397500078,3.521257736184225,12.598034663047969,11.61481406504872,11.268024755789554,36.62108045631601,73.24216091263207,57.455878109417455,"{'neutral': (['m1', 'm3', 'm12', 'e1', 'e2'], 5.469529143955719, 23)}"
261,46,363,0,12.09999999999996,14.058004543502674,175.27211151022925,12.896517604383208,31.05892729404796,50.84103711962704,53.61346673719479,48.85881254854796,106.72392576724673,75.71759351992173,67.14353923644506,71.34001043872291,46.161183225055936,11.19058987274093,46.16118322505588,13.988237340926048,4.1964712022778485,13.270407134503072,12.66688765257605,12.589413606833432,36.369417086407736,71.34001043872291,56.80326774588962,"{'neutral': (['m1', 'm3', 'm12', 'e1', 'e2'], 5.469529143955719, 23)}"
