,video_id,frame_seq,gap,time_seconds,m1,m3,m4,m5,m6,m7,m8,m9,m10,m11,m12,m13,m14,m15,m16,m17,e1,e2,e3,b1,b2,b3,m_0_16,m_1_15,m_2_14,m_3_13
0,46,249,1,10.38537500000003,2.0,34.0147027033899,4.0,7.0710678118654755,10.0,11.0,8.0,21.02379604162864,14.0,13.0,16.0,15.0,7.5,5.5,1.5,3.5,5.0,4.0,4.5,17.0,16.0,16.0,94.0,94.08506789071261,92.19544457292888,86.28441342444185
1,46,250,0,10.427083333333364,3.1622776601683795,35.0,4.0,9.055385138137417,10.0,11.0,8.06225774829855,24.020824298928627,15.0,13.5,15.0,15.0,7.0,9.0,0.0,3.0,5.0,5.0990195135927845,4.0,18.0,15.0,17.029386365926403,93.0,93.00537618869137,90.08884503644167,86.28441342444185
2,46,251,0,10.468791666666698,4.0,35.0,4.0,7.0,10.0,11.0,9.0,24.0,17.0,15.0,16.0,16.0,7.0,8.0,0.0,3.0,5.0,5.0990195135927845,4.0,18.0,15.0,17.029386365926403,92.00543462209176,93.0,91.08786966440702,86.14522621712709
3,46,252,0,10.510500000000032,3.0,35.0,4.0,8.0,10.0,10.0,7.0710678118654755,22.02271554554524,14.035668847618199,12.5,14.0,14.0,7.0,8.0,0.0,3.0,4.0,5.0,5.0,16.0,16.0,14.035668847618199,93.0,94.02127418834527,91.08786966440702,86.28441342444185
4,46,253,0,10.552208333333366,3.0,34.0,3.0,7.0710678118654755,10.0,11.0,8.0,21.02379604162864,14.0,12.5,14.0,14.0,6.0,7.0,0.0,3.0,4.0,4.0,4.0,17.0,16.0,14.0,93.00537618869137,94.02127418834527,91.13725912051558,87.20665112249179
5,46,254,0,10.5939166666667,3.0,35.014282800023196,4.0,7.0,10.0,11.0,7.0710678118654755,21.02379604162864,14.035668847618199,12.5,14.0,13.0,6.5,7.5,0.5,2.5,4.0,4.0,4.0,16.0,15.0,14.035668847618199,93.0,93.04837451562494,91.19758768739445,86.37129152675674
6,46,255,0,10.635625000000037,3.0,35.014282800023196,4.0,7.0,10.0,11.045361017187261,7.0710678118654755,21.02379604162864,14.035668847618199,12.5,14.0,13.0,6.5,7.5,0.5,2.5,4.0,4.0,4.0,16.0,15.0,15.033296378372908,92.00543462209176,93.04837451562494,91.19758768739445,85.37564055396598
7,46,256,0,10.677333333333369,4.0,35.05709628591621,4.0,8.06225774829855,10.04987562112089,11.0,8.0,24.020824298928627,16.0,14.0,15.0,13.0,6.0,10.0,2.0,3.0,5.0,4.0,4.0,15.0,15.0,15.033296378372908,94.0,94.02127418834527,91.13725912051558,85.28774824088158
8,46,257,0,10.719041666666705,6.0,35.014282800023196,4.0,7.0710678118654755,10.0,11.0,7.0,24.020824298928627,17.0,14.0,14.0,13.0,6.5,10.5,2.5,2.5,4.0,5.0,4.5,16.0,16.0,15.0,92.04890004774636,92.0,90.0499861188218,85.09406559801923
9,46,258,0,10.760750000000035,4.0,36.013886210738214,3.0,8.0,10.0,11.0,8.0,23.0,15.0,13.0,15.0,14.0,6.5,8.5,0.5,3.5,4.123105625617661,5.0,5.0,16.0,16.0,16.0,94.00531899844816,94.02127418834527,91.08786966440702,86.20904824900923
10,46,259,0,10.802458333333371,3.1622776601683795,36.013886210738214,4.0,8.0,10.0,10.0,7.0710678118654755,22.0,14.0,12.5,14.0,13.0,6.5,8.5,0.5,2.5,4.0,5.0,4.5,17.0,16.0,15.0,93.02150289046077,93.0,91.0494371207203,86.14522621712709
11,46,260,0,10.844166666666704,4.0,34.0,4.0,8.0,10.04987562112089,11.0,8.06225774829855,24.020824298928627,16.0312195418814,14.0,14.0,14.0,6.0,10.0,1.0,2.0,5.0990195135927845,4.123105625617661,4.0,19.0,16.0,14.035668847618199,94.13288479590966,94.00531899844816,92.00543462209176,86.09297300012354
12,46,261,0,10.88587500000004,3.0,34.0,4.0,9.0,10.0,10.0,8.0,24.0,15.0,13.5,14.0,14.0,6.0,10.0,1.0,2.0,5.0,6.082762530298219,6.0,21.0,17.0,16.0312195418814,94.33981132056604,94.04786015641186,93.0,86.09297300012354
13,46,262,0,10.927583333333374,2.0,33.0,4.0,8.0,9.0,10.0,8.0,22.0,14.0,13.0,14.0,14.0,6.0,8.0,0.0,2.0,5.0990195135927845,5.0,5.0,19.0,16.0,15.033296378372908,94.26027795418386,94.04786015641186,92.0,86.02325267042627
14,46,263,0,10.969291666666708,2.0,33.0,4.0,8.0,9.0,10.0,8.0,22.0,14.0,13.0,14.0,14.0,6.0,8.0,0.0,2.0,5.0990195135927845,5.0,5.0,19.0,16.0,15.033296378372908,94.26027795418386,94.04786015641186,92.0,86.02325267042627
15,46,264,0,11.011000000000042,4.0,33.015148038438355,3.0,8.0,10.0,10.0,8.06225774829855,23.021728866442675,15.033296378372908,13.0,13.0,14.0,5.5,9.5,0.5,2.5,5.0,4.0,3.5,20.0,16.0,15.033296378372908,94.19129471453293,95.02105029939419,93.02150289046077,88.14193099768123
16,46,265,0,11.052708333333376,2.0,33.015148038438355,4.0,8.0,9.0,9.055385138137417,8.0,22.0,14.0,13.0,15.0,14.0,6.5,7.5,0.5,2.5,4.0,3.0,3.5,18.0,15.0,17.0,94.19129471453293,94.04786015641186,92.02173656261873,86.14522621712709
17,46,266,0,11.09441666666671,1.0,33.0,3.0,8.0,10.0,10.0,9.0,21.0,13.0,12.5,14.0,14.0,5.0,7.0,1.0,2.0,4.0,3.0,3.5,18.0,15.0,16.0,94.26027795418386,94.08506789071261,91.0,86.09297300012354
18,46,267,0,11.136125000000044,2.23606797749979,33.015148038438355,4.0,7.0,9.0,10.0,8.0,21.02379604162864,14.035668847618199,13.0,13.0,14.0,5.5,7.5,0.5,2.5,5.0,4.0,4.0,16.0,14.0,15.033296378372908,92.04890004774636,92.0,90.0222194794152,84.1486779456457
19,46,268,0,11.177833333333378,0.0,33.0,5.0,8.0,9.0,10.0,11.0,24.0,16.0,16.0,15.0,15.0,4.0,9.0,0.0,0.0,4.123105625617661,4.0,4.0,18.0,15.0,16.0,93.1933474020544,93.04837451562494,92.0,86.02325267042627
20,46,269,0,11.219541666666712,1.0,33.015148038438355,4.0,8.0,8.0,9.0,11.0,24.0,16.0,15.5,15.0,14.0,3.5,9.5,0.5,0.5,5.0,5.0,5.0,18.0,15.0,14.0,93.34345183246653,94.08506789071261,92.00543462209176,86.05230967266364
21,46,270,0,11.261250000000048,1.0,35.014282800023196,4.0,9.0,9.0,11.0,10.0,24.0,15.0,14.5,15.0,14.0,4.5,9.5,0.5,0.5,4.123105625617661,4.0,4.0,18.0,15.0,16.0,94.33981132056604,95.13148795220224,93.02150289046077,87.02298546935747
22,46,271,0,11.30295833333338,1.0,35.014282800023196,4.0,9.0,9.0,11.0,10.0,24.0,15.0,14.5,15.0,14.0,4.5,9.5,0.5,0.5,4.123105625617661,4.0,4.0,18.0,15.0,16.0,94.33981132056604,95.13148795220224,93.02150289046077,87.02298546935747
23,46,272,0,11.344666666666717,3.0,35.0,4.0,8.0,10.0,10.0,8.06225774829855,23.021728866442675,15.033296378372908,13.5,14.0,14.0,6.0,9.0,1.0,2.0,4.0,4.0,4.0,17.0,15.0,14.0,93.08598175880189,93.00537618869137,92.02173656261873,87.14355971613737
24,46,273,0,11.386375000000047,4.0,35.0,4.0,7.0,10.0,11.0,8.0,23.0,16.0,14.0,14.0,14.0,6.0,9.0,1.0,2.0,4.0,4.123105625617661,4.0,16.0,14.0,16.0312195418814,95.08417323613851,95.0,93.04837451562494,87.20665112249179
25,46,274,0,11.428083333333385,4.0,34.0,4.0,8.0,9.055385138137417,10.0,8.0,24.0,16.0,14.0,13.0,13.0,5.0,11.0,3.0,1.0,5.0,5.0,5.0,16.0,15.0,15.0,95.04735661763561,96.0,93.08598175880189,87.20665112249179
26,46,275,0,11.469791666666715,4.0,34.0,4.0,8.0,9.0,11.0,8.0,24.0,16.0,14.0,13.0,13.0,5.0,11.0,3.0,2.0,4.0,5.0,4.5,17.0,15.0,15.0,95.08417323613851,96.00520819205592,93.02150289046077,88.14193099768123
27,46,276,0,11.511500000000051,4.0,33.015148038438355,5.0,8.0,9.0,10.04987562112089,8.0,25.0,17.0,15.0,14.0,13.0,5.5,11.5,3.5,1.5,5.0,5.0,5.0,17.0,15.0,16.0,93.13431161500041,95.02105029939419,92.0,87.05170877128145
28,46,277,0,11.553208333333384,5.0,33.015148038438355,4.0,8.06225774829855,9.0,11.0,8.0,25.019992006393608,17.0,14.5,14.0,13.0,5.5,11.5,3.5,2.5,5.0990195135927845,4.123105625617661,4.0,17.0,15.0,16.0,96.33275663033837,96.13012014972206,93.0,89.05054744357274
29,46,278,0,11.59491666666672,5.0,32.0,5.0,8.0,10.0,10.04987562112089,8.0,26.0,18.0,15.5,14.0,14.0,6.0,12.0,4.0,2.0,5.0,5.0990195135927845,5.0,18.0,15.0,15.033296378372908,96.25487000666512,97.04638066409278,95.00526301210897,89.05054744357274
30,46,279,0,11.636625000000054,6.0,32.0,4.123105625617661,7.0,9.0,10.0,8.0,25.019992006393608,18.027756377319946,15.0,14.0,14.0,6.0,11.0,4.0,2.0,4.123105625617661,4.0,4.0,18.0,16.0,15.0,95.33624704172071,96.08329719571451,95.0,90.08884503644167
31,46,280,0,11.678333333333388,6.082762530298219,32.01562118716424,5.0,7.0,9.0,10.0,8.0,26.019223662515376,19.026297590440446,16.0,14.0,15.0,6.5,11.5,3.5,2.5,4.0,4.0,4.0,17.0,15.0,14.0,94.26027795418386,95.08417323613851,92.00543462209176,86.02325267042627
32,46,281,0,11.720041666666722,2.0,32.0,5.0990195135927845,9.0,9.0,10.0,8.0,24.020824298928627,15.033296378372908,14.0,14.0,14.0,6.0,10.0,1.0,1.0,4.123105625617661,5.0,5.0,16.0,14.0,14.0,94.13288479590966,94.04786015641186,92.0,87.05170877128145
33,46,282,0,11.761750000000056,0.0,32.0,5.0,9.0,9.0,9.0,9.0,23.0,14.0,14.0,14.0,14.0,5.0,9.0,0.0,0.0,4.123105625617661,4.0,4.5,16.0,14.0,14.035668847618199,94.19129471453293,96.02083107326243,94.00531899844816,88.09086218218096
34,46,283,0,11.80345833333339,0.0,31.016124838541646,4.0,8.06225774829855,9.0,10.0,10.0,22.02271554554524,14.0,14.0,14.0,13.0,3.5,8.5,0.5,0.5,4.0,5.0,5.0,16.0,14.0,15.033296378372908,94.13288479590966,95.02105029939419,93.00537618869137,86.09297300012354
35,46,284,0,11.845166666666724,1.4142135623730951,32.01562118716424,5.0,9.0,9.055385138137417,9.0,9.0,24.020824298928627,15.033296378372908,14.5,14.0,13.0,4.5,10.5,1.5,0.5,5.0990195135927845,5.0,5.0,17.0,14.0,14.035668847618199,96.13012014972206,96.02083107326243,94.02127418834527,87.20665112249179
36,46,285,0,11.886875000000058,2.0,32.0,5.0990195135927845,8.06225774829855,9.0,10.0,9.0,24.08318915758459,16.0312195418814,15.0,14.0,14.0,5.0,10.0,2.0,0.0,5.0,4.0,4.0,18.0,15.0,14.035668847618199,93.34345183246653,94.08506789071261,92.00543462209176,86.09297300012354
37,46,286,0,11.928583333333393,4.0,32.01562118716424,5.0990195135927845,8.06225774829855,8.0,10.0,8.0,25.079872407968907,17.029386365926403,15.0,14.0,13.0,5.5,11.5,2.5,0.5,5.0990195135927845,4.0,4.5,20.0,16.0,16.0,97.41663102366043,98.08159868191383,96.00520819205592,89.08984229416954
38,46,287,0,11.970291666666729,4.0,32.01562118716424,5.0990195135927845,8.06225774829855,8.0,10.0,8.0,25.079872407968907,17.029386365926403,15.0,14.0,13.0,5.5,11.5,2.5,0.5,5.0990195135927845,4.0,4.5,20.0,16.0,16.0,97.41663102366043,98.08159868191383,96.00520819205592,89.08984229416954
39,46,288,0,12.01200000000006,6.082762530298219,31.0,4.123105625617661,8.0,9.0,10.0,9.0,27.073972741361768,19.1049731745428,16.0,14.0,14.0,5.0,13.0,5.0,1.0,5.0990195135927845,5.0990195135927845,5.0,18.0,15.0,13.038404810405298,93.43446901438462,94.13288479590966,91.00549433962765,84.02380615040002
40,46,289,0,12.053708333333397,6.082762530298219,31.0,4.123105625617661,8.0,9.0,11.0,8.0,26.076809620810597,18.110770276274835,15.0,14.0,14.0,6.0,12.0,3.0,2.0,5.0990195135927845,4.0,4.0,19.0,16.0,14.035668847618199,97.62171889492625,98.18350166906862,96.02083107326243,89.05054744357274
41,46,290,0,12.095416666666727,4.123105625617661,32.0,5.0990195135927845,9.0,10.0,11.0,7.0,25.079872407968907,16.1245154965971,14.0,14.0,14.0,7.0,11.0,2.0,2.0,4.123105625617661,4.0,4.0,19.0,15.0,14.0,99.50376877284599,98.08159868191383,96.00520819205592,90.13878188659973
42,46,291,0,12.137125000000063,3.1622776601683795,31.0,5.0990195135927845,9.0,9.0,11.0,8.0,25.079872407968907,16.1245154965971,14.5,14.0,14.0,6.0,11.0,2.0,2.0,4.0,4.0,4.5,19.0,15.0,14.0,98.50888284819801,98.04590761474952,96.00520819205592,90.13878188659973
43,46,292,0,12.178833333333396,5.0990195135927845,30.0,4.0,8.06225774829855,9.0,10.0,8.0,25.079872407968907,17.029386365926403,14.5,14.0,14.0,6.0,11.0,2.0,2.0,5.0990195135927845,4.0,4.0,19.0,15.0,13.038404810405298,90.44888059008801,91.13725912051558,89.00561780022652,82.02438661763951
44,46,293,0,12.220541666666731,2.23606797749979,31.0,5.0,9.0,9.0,11.0,8.0,24.020824298928627,15.033296378372908,14.0,15.0,15.0,7.0,9.0,0.0,2.0,5.0,4.0,4.5,18.0,15.0,14.035668847618199,93.34345183246653,93.08598175880189,91.00549433962765,84.0535543567314
45,46,294,0,12.262250000000066,1.0,31.0,5.0990195135927845,9.055385138137417,9.0,10.0,8.06225774829855,23.021728866442675,14.0,13.5,14.0,14.0,6.0,9.0,1.0,2.0,5.0990195135927845,5.0,5.0,19.0,15.0,14.035668847618199,94.42986815621421,94.13288479590966,92.00543462209176,86.05230967266364
46,46,295,0,12.3039583333334,1.0,31.0,5.0990195135927845,9.055385138137417,9.0,10.0,8.06225774829855,23.021728866442675,14.0,13.5,14.0,14.0,6.0,9.0,1.0,2.0,5.0990195135927845,5.0,5.0,19.0,15.0,14.035668847618199,94.42986815621421,94.13288479590966,92.00543462209176,86.05230967266364
47,46,296,0,12.345666666666734,3.1622776601683795,32.01562118716424,5.0,9.055385138137417,10.0,11.0,7.0,24.08318915758459,15.033296378372908,13.5,14.0,15.0,7.5,9.5,0.5,2.5,5.0990195135927845,5.0,5.0,20.0,16.0,15.033296378372908,96.62815324738438,96.25487000666512,93.02150289046077,88.02272433866155
48,46,297,0,12.387375000000068,2.0,33.015148038438355,4.0,8.0,10.0,11.0,8.0,22.0,14.0,13.0,13.0,14.0,5.5,8.5,0.5,2.5,5.0990195135927845,5.0,4.5,19.0,15.0,15.033296378372908,95.42536350467836,96.13012014972206,92.02173656261873,87.00574693662483
49,46,298,0,12.429083333333402,4.0,32.01562118716424,4.0,8.0,9.055385138137417,10.0,7.0,23.0,15.0,13.0,13.0,14.0,6.5,9.5,0.5,2.5,6.082762530298219,5.0,5.0,21.0,16.0,16.0312195418814,95.42536350467836,95.1892851112981,92.04890004774636,87.00574693662483
50,46,299,0,12.470791666666736,4.0,32.01562118716424,4.0,8.0,9.055385138137417,10.0,7.0,23.0,15.0,13.0,13.0,14.0,6.5,9.5,0.5,2.5,6.082762530298219,5.0,5.0,21.0,16.0,16.0312195418814,95.42536350467836,95.1892851112981,92.04890004774636,87.00574693662483
51,46,300,0,12.51250000000007,1.0,34.0,4.0,9.0,9.0,10.0,10.0,23.021728866442675,14.035668847618199,14.0,14.0,14.0,4.0,9.0,0.0,1.0,5.0,4.0,4.0,19.0,14.0,16.0312195418814,93.64827814754524,94.33981132056604,91.0494371207203,87.0
52,46,301,0,12.554208333333404,1.4142135623730951,34.0,4.0,9.0,9.0,10.0,9.0,23.021728866442675,14.035668847618199,13.5,14.0,14.0,5.0,9.0,0.0,1.0,4.123105625617661,4.0,4.0,20.0,16.0,16.1245154965971,94.42986815621421,95.1892851112981,92.02173656261873,86.00581375697809
53,46,302,0,12.59591666666674,1.4142135623730951,35.014282800023196,5.0,8.0,9.0,10.04987562112089,8.06225774829855,22.0,14.0,13.5,14.0,13.0,5.5,8.5,0.5,1.5,5.0,4.123105625617661,4.0,20.0,15.0,16.0,95.42536350467836,95.1892851112981,92.02173656261873,87.02298546935747
54,46,303,0,12.637625000000073,1.4142135623730951,35.014282800023196,5.0,8.0,9.0,10.04987562112089,8.06225774829855,22.0,14.0,13.5,14.0,13.0,5.5,8.5,0.5,1.5,5.0,4.123105625617661,4.0,20.0,15.0,16.0,95.42536350467836,95.1892851112981,92.02173656261873,87.02298546935747
55,46,304,0,12.679333333333409,2.23606797749979,36.0,5.0,8.0,10.0,11.0,7.0,22.02271554554524,14.035668847618199,13.0,13.0,13.0,6.0,9.0,1.0,1.0,6.0,4.123105625617661,4.5,20.0,17.0,16.0312195418814,94.33981132056604,95.13148795220224,92.00543462209176,87.05170877128145
56,46,305,0,12.72104166666674,1.0,35.014282800023196,5.0,9.055385138137417,11.045361017187261,11.0,8.06225774829855,23.0,14.035668847618199,13.5,15.0,14.0,6.5,8.5,0.5,2.5,5.0990195135927845,5.0,5.0,19.0,17.0,19.026297590440446,95.25754563287887,94.08506789071261,92.0,87.05170877128145
57,46,306,0,12.762750000000077,2.0,34.0147027033899,6.0,9.0,10.04987562112089,11.045361017187261,7.0,24.0,15.0,14.0,15.0,14.0,7.5,9.5,0.5,2.5,5.0,5.0,5.0,19.0,18.0,18.0,94.13288479590966,95.00526301210897,93.02150289046077,88.20430828479978
58,46,307,0,12.80445833333341,2.23606797749979,35.014282800023196,6.0,9.0,10.0,11.045361017187261,7.0,24.020824298928627,15.033296378372908,14.0,15.0,14.0,7.5,9.5,0.5,2.5,5.0,5.0990195135927845,5.0,20.0,18.0,17.029386365926403,94.19129471453293,95.04735661763561,91.00549433962765,86.14522621712709
59,46,308,0,12.846166666666743,1.0,32.0624390837628,6.0,10.0,9.055385138137417,11.045361017187261,8.246211251235321,25.079872407968907,15.132745950421556,14.5,18.0,16.0,9.0,8.0,2.0,4.0,6.0,5.0,5.0,19.0,19.0,19.026297590440446,95.02105029939419,95.0,91.08786966440702,86.20904824900923
60,46,309,0,12.887875000000076,2.0,31.064449134018133,5.0,9.0,10.04987562112089,10.04987562112089,8.06225774829855,24.020824298928627,15.033296378372908,14.0,17.0,15.0,8.0,8.0,2.0,4.0,6.0,5.0990195135927845,5.5,18.0,19.0,17.029386365926403,94.00531899844816,94.02127418834527,91.13725912051558,84.38009243891595
61,46,310,0,12.929583333333412,2.0,29.274562336608895,5.0,9.055385138137417,8.06225774829855,9.219544457292887,8.06225774829855,24.08318915758459,15.033296378372908,14.0,18.0,14.0,8.0,8.0,1.0,4.0,6.0,6.0,5.5,18.0,19.0,16.0312195418814,94.0,93.04837451562494,90.35485598461214,84.5931439302264
62,46,311,0,12.971291666666746,2.0,30.14962686336267,5.0,9.0,8.06225774829855,9.219544457292887,9.055385138137417,25.019992006393608,16.0312195418814,15.0,18.0,15.0,7.5,8.5,0.5,3.5,6.0,6.0,5.5,18.0,19.0,16.0312195418814,94.0,94.04786015641186,91.35097153287424,83.60023923410746
63,46,312,0,13.01300000000008,1.0,30.14962686336267,5.0,9.0,8.06225774829855,9.055385138137417,8.06225774829855,23.021728866442675,14.035668847618199,13.5,17.0,14.0,7.5,7.5,1.5,3.5,5.0,6.082762530298219,5.5,16.0,18.0,17.0,94.04786015641186,94.26027795418386,90.55385138137417,84.01190391843289
64,46,313,0,13.054708333333414,2.0,30.265491900843113,5.0,8.0,9.055385138137417,10.198039027185569,9.055385138137417,24.020824298928627,16.0312195418814,15.0,18.0,14.0,7.0,8.0,0.0,3.0,6.0,5.0990195135927845,5.5,16.0,17.0,16.0,95.02105029939419,94.13288479590966,91.44397191723465,83.72574275573791
65,46,314,0,13.096416666666748,2.0,30.14962686336267,5.0,9.0,8.06225774829855,9.055385138137417,9.055385138137417,25.019992006393608,16.0312195418814,15.0,17.0,14.0,6.5,9.5,0.5,2.5,6.0,6.0,5.5,16.0,19.0,15.033296378372908,95.00526301210897,94.08506789071261,89.27485648266257,82.49242389456137
66,46,315,0,13.138125000000082,2.0,30.14962686336267,5.0,9.0,8.06225774829855,9.055385138137417,9.055385138137417,25.019992006393608,16.0312195418814,15.0,17.0,14.0,6.5,9.5,0.5,2.5,5.0,5.0,5.0,16.0,18.0,15.0,95.0,93.04837451562494,90.27181176868004,82.49242389456137
67,46,316,0,13.179833333333416,3.1622776601683795,33.24154027718932,4.0,8.0,9.055385138137417,10.04987562112089,9.0,24.020824298928627,16.0312195418814,14.5,15.0,11.0,4.0,11.0,3.0,1.0,6.0,5.0990195135927845,5.0,16.0,19.0,16.0312195418814,96.02083107326243,94.08506789071261,90.35485598461214,84.5931439302264
68,46,317,0,13.22154166666675,3.0,34.23448553724738,5.0,8.06225774829855,10.198039027185569,11.180339887498949,8.0,24.020824298928627,16.0,14.5,14.0,10.0,4.0,12.0,4.0,1.0,5.0,4.123105625617661,4.5,17.0,18.0,16.0312195418814,95.00526301210897,95.04735661763561,91.26883367283708,87.46427842267951
69,46,318,0,13.263250000000085,6.082762530298219,36.124783736376884,4.123105625617661,8.06225774829855,9.219544457292887,11.180339887498949,8.0,26.019223662515376,18.0,15.0,14.0,11.0,4.5,13.5,5.5,1.5,5.0,5.0990195135927845,4.5,18.0,18.0,19.026297590440446,95.04735661763561,95.00526301210897,91.08786966440702,86.28441342444185
70,46,319,0,13.30495833333342,6.082762530298219,36.124783736376884,4.123105625617661,8.06225774829855,9.219544457292887,11.180339887498949,8.0,26.019223662515376,18.0,15.0,14.0,11.0,4.5,13.5,5.5,1.5,5.0,5.0990195135927845,4.5,18.0,18.0,19.026297590440446,95.04735661763561,95.00526301210897,91.08786966440702,86.28441342444185
71,46,320,0,13.346666666666753,4.0,35.12833614050059,3.0,7.0,9.055385138137417,11.180339887498949,8.06225774829855,22.02271554554524,15.033296378372908,13.0,13.0,10.0,3.5,10.5,3.5,1.5,5.0990195135927845,5.0990195135927845,5.0,17.0,18.0,16.0,95.0,95.08417323613851,92.26592003551474,86.46964785403026
72,46,321,0,13.388375000000089,4.123105625617661,34.132096331752024,4.0,7.0,10.04987562112089,10.04987562112089,8.0,23.021728866442675,16.0312195418814,14.0,14.0,11.0,4.5,10.5,3.5,1.5,5.0,4.123105625617661,4.5,18.0,19.0,16.0,96.00520819205592,96.02083107326243,92.13576938409967,87.36704184073076
73,46,322,0,13.43008333333342,1.0,33.13608305156178,5.0990195135927845,8.0,9.055385138137417,10.04987562112089,8.06225774829855,22.090722034374522,14.142135623730951,13.5,15.0,12.0,5.5,8.5,0.5,1.5,5.0,6.082762530298219,5.5,19.0,18.0,17.0,95.04735661763561,94.0,91.0494371207203,85.14693182963201
74,46,323,0,13.471791666666755,1.0,33.13608305156178,5.0990195135927845,8.0,9.055385138137417,10.04987562112089,8.06225774829855,22.090722034374522,14.142135623730951,13.5,15.0,12.0,5.5,8.5,0.5,1.5,5.0,6.082762530298219,5.5,19.0,18.0,17.0,95.04735661763561,94.0,91.0494371207203,85.14693182963201
75,46,324,0,13.51350000000009,0.0,33.13608305156178,4.123105625617661,9.055385138137417,9.055385138137417,10.04987562112089,9.219544457292887,22.090722034374522,13.038404810405298,13.0,15.0,12.0,4.5,8.5,0.5,1.5,6.0,4.123105625617661,4.5,20.0,18.0,16.0312195418814,96.08329719571451,95.00526301210897,93.04837451562494,86.14522621712709
76,46,325,0,13.555208333333423,1.0,33.24154027718932,5.0,8.0,9.055385138137417,10.04987562112089,8.06225774829855,22.02271554554524,14.035668847618199,13.5,16.0,12.0,6.0,8.0,0.0,2.0,5.0,5.0,5.0,18.0,19.0,16.0312195418814,96.0,95.08417323613851,91.35097153287424,85.58621384311844
77,46,326,0,13.596916666666758,1.0,33.13608305156178,4.0,8.0,9.055385138137417,10.04987562112089,9.055385138137417,22.02271554554524,14.035668847618199,13.5,15.0,12.0,4.5,8.5,0.5,1.5,6.0,5.0,5.0,16.0,17.0,15.0,95.0,95.04735661763561,91.19758768739445,85.47514258543241
78,46,327,0,13.638625000000092,1.0,33.13608305156178,4.0,8.0,9.055385138137417,10.04987562112089,9.055385138137417,22.02271554554524,14.035668847618199,13.5,15.0,12.0,4.5,8.5,0.5,1.5,6.0,5.0,5.0,16.0,17.0,15.0,95.0,95.04735661763561,91.19758768739445,85.47514258543241
79,46,328,0,13.680333333333426,0.0,34.132096331752024,5.0,8.0,10.04987562112089,11.045361017187261,9.055385138137417,22.02271554554524,14.035668847618199,14.0,15.0,12.0,4.5,8.5,0.5,1.5,5.0,5.0,5.0,17.0,18.0,16.0312195418814,96.0,95.04735661763561,92.19544457292888,86.57944328765345
80,46,329,0,13.72204166666676,3.0,33.13608305156178,4.0,8.06225774829855,9.055385138137417,10.198039027185569,8.0,23.021728866442675,15.0,13.5,14.0,11.0,4.5,10.5,1.5,1.5,5.0,5.0,5.0,17.0,17.0,16.0312195418814,95.02105029939419,95.00526301210897,91.08786966440702,85.21150157109074
81,46,330,0,13.763750000000094,4.0,35.12833614050059,4.0,7.0,10.04987562112089,11.045361017187261,8.06225774829855,23.021728866442675,16.0312195418814,14.0,14.0,11.0,4.5,10.5,3.5,1.5,5.0,5.0,5.0,18.0,18.0,16.0312195418814,96.0,95.04735661763561,91.19758768739445,86.37129152675674
82,46,331,0,13.805458333333428,4.0,35.12833614050059,4.0,7.0,10.04987562112089,11.045361017187261,8.06225774829855,23.021728866442675,16.0312195418814,14.0,14.0,11.0,4.5,10.5,3.5,1.5,5.0,5.0,5.0,18.0,18.0,16.0312195418814,96.0,95.04735661763561,91.19758768739445,86.37129152675674
83,46,332,0,13.847166666666762,3.0,35.12833614050059,4.0,8.0,10.04987562112089,11.180339887498949,8.0,23.0,15.0,13.5,14.0,11.0,4.5,10.5,2.5,1.5,5.0,5.0,5.0,17.0,17.0,15.033296378372908,95.00526301210897,95.02105029939419,92.19544457292888,85.37564055396598
84,46,333,0,13.888875000000096,2.23606797749979,35.05709628591621,5.0,9.055385138137417,9.0,11.045361017187261,7.0710678118654755,23.021728866442675,14.0,13.0,14.0,12.0,6.0,10.0,1.0,1.0,5.0,5.0,5.0,16.0,17.0,17.029386365926403,96.00520819205592,95.02105029939419,91.13725912051558,86.37129152675674
85,46,334,0,13.93058333333343,2.23606797749979,34.132096331752024,5.0,8.06225774829855,10.198039027185569,11.045361017187261,8.06225774829855,23.021728866442675,15.0,14.0,15.0,12.0,5.5,9.5,1.5,2.5,6.0,5.0990195135927845,5.0,17.0,18.0,17.029386365926403,94.00531899844816,94.02127418834527,91.19758768739445,85.47514258543241
86,46,335,0,13.972291666666765,2.23606797749979,34.132096331752024,5.0,8.06225774829855,10.198039027185569,11.045361017187261,8.06225774829855,23.021728866442675,15.0,14.0,15.0,12.0,5.5,9.5,1.5,2.5,6.0,5.0990195135927845,5.0,17.0,18.0,17.029386365926403,94.00531899844816,94.02127418834527,91.19758768739445,85.47514258543241
87,46,336,0,14.0140000000001,2.0,33.13608305156178,5.0,9.0,9.055385138137417,10.04987562112089,8.06225774829855,24.020824298928627,15.033296378372908,14.0,16.0,13.0,6.5,9.5,0.5,2.5,5.0,5.0,5.0,16.0,18.0,16.0,95.00526301210897,94.08506789071261,91.26883367283708,84.38009243891595
88,46,337,0,14.055708333333431,2.0,32.2490309931942,5.0,8.06225774829855,9.0,11.045361017187261,8.06225774829855,23.08679276123039,15.033296378372908,14.0,16.0,12.0,6.0,9.0,0.0,2.0,5.0,5.0990195135927845,5.0,16.0,18.0,15.033296378372908,95.00526301210897,94.08506789071261,91.26883367283708,85.47514258543241
89,46,338,0,14.097416666666769,2.0,34.23448553724738,4.0,9.0,9.055385138137417,10.198039027185569,9.055385138137417,24.020824298928627,15.033296378372908,14.0,16.0,12.0,5.0,10.0,1.0,2.0,5.0,5.0990195135927845,5.5,17.0,18.0,16.0312195418814,94.0,95.04735661763561,90.19977827023745,85.37564055396598
90,46,339,0,14.1391250000001,2.0,34.23448553724738,4.0,9.0,9.055385138137417,10.198039027185569,9.055385138137417,24.020824298928627,15.033296378372908,14.0,16.0,12.0,5.0,10.0,1.0,2.0,5.0,5.0990195135927845,5.5,17.0,18.0,16.0312195418814,94.0,95.04735661763561,90.19977827023745,85.37564055396598
91,46,340,0,14.180833333333435,4.0,35.12833614050059,4.0,8.0,10.0,11.045361017187261,8.0,24.0,16.0,14.0,15.0,12.0,5.5,10.5,2.5,2.5,5.0,4.0,4.5,17.0,18.0,15.033296378372908,96.02083107326243,95.00526301210897,91.08786966440702,86.20904824900923
92,46,341,0,14.22254166666677,1.4142135623730951,34.132096331752024,5.0,9.055385138137417,10.04987562112089,11.180339887498949,8.06225774829855,23.021728866442675,14.0,13.5,15.0,12.0,5.5,9.5,0.5,1.5,6.0,5.0990195135927845,5.0,16.0,17.0,15.033296378372908,95.02105029939419,95.00526301210897,91.0494371207203,86.20904824900923
93,46,342,0,14.264250000000104,1.0,35.12833614050059,4.0,8.06225774829855,9.055385138137417,10.0,8.06225774829855,21.095023109728988,13.038404810405298,12.5,14.0,11.0,4.5,8.5,0.5,1.5,5.0990195135927845,5.0990195135927845,4.5,17.0,17.0,17.029386365926403,95.04735661763561,95.00526301210897,92.02173656261873,86.09297300012354
94,46,343,0,14.305958333333438,0.0,34.132096331752024,4.0,8.0,10.04987562112089,10.04987562112089,9.055385138137417,21.02379604162864,13.038404810405298,13.0,15.0,12.0,4.5,7.5,0.5,1.5,5.0,5.0,5.0,17.0,17.0,17.0,96.04686356149273,95.0,92.04890004774636,86.14522621712709
95,46,344,0,14.347666666666772,2.0,36.05551275463989,4.0,8.06225774829855,10.04987562112089,11.180339887498949,9.0,23.021728866442675,15.0,14.0,14.0,12.0,4.0,10.0,1.0,1.0,6.0,5.0,5.0,16.0,17.0,16.0312195418814,94.02127418834527,95.00526301210897,91.08786966440702,86.20904824900923
96,46,345,0,14.389375000000106,5.0,35.05709628591621,4.0,8.0,10.0,10.04987562112089,9.0,26.0,18.0,15.5,14.0,12.0,4.0,13.0,4.0,0.0,5.0990195135927845,5.0990195135927845,5.0,18.0,18.0,17.029386365926403,95.04735661763561,94.0,91.02197536858887,86.09297300012354
97,46,346,0,14.43108333333344,6.082762530298219,35.05709628591621,4.0,8.06225774829855,9.0,11.0,8.06225774829855,26.019223662515376,18.0,15.0,14.0,12.0,5.0,13.0,5.0,1.0,5.0,5.0,5.0,18.0,17.0,16.0,96.04686356149273,95.00526301210897,92.02173656261873,87.09190547921202
98,46,347,0,14.472791666666774,6.082762530298219,35.05709628591621,4.0,8.06225774829855,9.0,11.0,8.06225774829855,26.019223662515376,18.0,15.0,14.0,12.0,5.0,13.0,5.0,1.0,5.0,5.0,5.0,18.0,17.0,16.0,96.04686356149273,95.00526301210897,92.02173656261873,87.09190547921202
99,46,348,0,14.514500000000108,1.4142135623730951,35.05709628591621,4.123105625617661,7.0,9.055385138137417,9.055385138137417,11.0,23.0,16.0,15.5,15.0,13.0,3.0,9.0,2.0,0.0,6.082762530298219,5.0,5.0,18.0,17.0,17.029386365926403,94.08506789071261,94.00531899844816,91.02197536858887,87.09190547921202
100,46,349,0,14.556208333333442,0.0,36.124783736376884,5.0,8.06225774829855,10.0,10.04987562112089,10.0,23.021728866442675,15.0,15.0,15.0,12.0,3.5,9.5,1.5,0.5,6.0,5.0,5.0,17.0,17.0,17.029386365926403,94.02127418834527,94.0,92.04890004774636,86.14522621712709
101,46,350,0,14.597916666666777,0.0,35.05709628591621,4.0,8.0,9.055385138137417,10.04987562112089,11.0,23.0,15.0,15.0,15.0,13.0,3.0,9.0,1.0,0.0,5.0,5.0990195135927845,5.0,18.0,17.0,17.029386365926403,94.02127418834527,94.0,92.04890004774636,85.14693182963201
102,46,351,0,14.63962500000011,0.0,35.05709628591621,5.0,9.0,9.055385138137417,10.04987562112089,11.0,25.0,16.0,16.0,16.0,14.0,4.0,10.0,1.0,0.0,6.0,5.0990195135927845,5.0,19.0,18.0,17.029386365926403,93.02150289046077,93.0,90.0222194794152,85.14693182963201
103,46,352,0,14.681333333333445,2.0,34.23448553724738,5.0,8.06225774829855,9.055385138137417,10.04987562112089,9.0,24.020824298928627,16.0,15.0,16.0,12.0,5.0,10.0,2.0,1.0,6.0,5.0990195135927845,5.5,18.0,18.0,17.029386365926403,93.02150289046077,93.0,91.02197536858887,85.14693182963201
104,46,353,0,14.72304166666678,3.1622776601683795,34.058772731852805,4.0,8.06225774829855,9.055385138137417,11.045361017187261,9.055385138137417,24.020824298928627,16.0,14.5,15.0,13.0,5.0,10.0,2.0,2.0,5.0,5.0990195135927845,4.5,16.0,17.0,17.11724276862369,94.00531899844816,94.00531899844816,90.08884503644167,85.21150157109074
105,46,354,0,14.764750000000111,3.0,34.132096331752024,4.0,8.0,10.04987562112089,10.04987562112089,9.0,24.0,16.0,14.5,15.0,12.0,4.5,10.5,1.5,1.5,5.0,5.0990195135927845,5.0,15.0,17.0,16.0312195418814,96.02083107326243,95.08417323613851,90.19977827023745,85.37564055396598
106,46,355,0,14.806458333333447,3.0,34.132096331752024,4.0,8.0,10.04987562112089,10.04987562112089,9.0,24.0,16.0,14.5,15.0,12.0,4.5,10.5,1.5,1.5,5.0,5.0990195135927845,5.0,15.0,17.0,16.0312195418814,96.02083107326243,95.08417323613851,90.19977827023745,85.37564055396598
107,46,356,0,14.84816666666678,1.4142135623730951,34.058772731852805,4.123105625617661,7.0,10.0,10.04987562112089,9.0,21.0,14.0,13.5,15.0,13.0,5.0,7.0,0.0,1.0,5.0990195135927845,5.0990195135927845,5.0,15.0,16.0,16.0312195418814,94.00531899844816,94.04786015641186,90.13878188659973,85.21150157109074
108,46,357,0,14.889875000000115,0.0,32.0624390837628,4.0,8.0,8.06225774829855,10.04987562112089,10.0,22.0,14.0,14.0,15.0,13.0,4.0,8.0,0.0,1.0,6.082762530298219,5.0990195135927845,5.0,17.0,17.0,18.110770276274835,94.04786015641186,93.02150289046077,89.00561780022652,84.0535543567314
109,46,358,0,14.93158333333345,0.0,34.058772731852805,4.0,8.0,10.04987562112089,10.04987562112089,10.0,22.0,14.0,14.0,15.0,13.0,4.0,8.0,0.0,1.0,5.0990195135927845,5.0990195135927845,5.0,17.0,16.0,16.0312195418814,93.02150289046077,93.00537618869137,90.0499861188218,85.21150157109074
110,46,359,0,14.973291666666784,0.0,34.058772731852805,4.0,8.0,10.04987562112089,10.0,10.0,22.0,14.0,14.0,15.0,13.0,4.0,8.0,0.0,1.0,5.0990195135927845,5.0990195135927845,5.0,18.0,17.0,17.029386365926403,93.02150289046077,93.0,90.0499861188218,84.2140130857092
111,46,360,0,15.015000000000118,2.0,35.05709628591621,4.0,8.06225774829855,9.055385138137417,11.045361017187261,10.0,24.020824298928627,16.0,15.0,16.0,14.0,5.0,9.0,1.0,2.0,5.0,4.0,4.0,17.0,17.0,16.1245154965971,93.00537618869137,93.02150289046077,90.13878188659973,84.38009243891595
112,46,361,0,15.056708333333452,2.0,35.05709628591621,5.0,9.0,10.04987562112089,10.04987562112089,9.055385138137417,25.019992006393608,16.0312195418814,15.0,16.0,14.0,6.0,10.0,1.0,2.0,4.0,4.0,4.0,17.0,16.0,15.033296378372908,93.04837451562494,94.0,91.0494371207203,85.21150157109074
113,46,362,0,15.098416666666786,2.0,34.058772731852805,4.123105625617661,8.0,9.055385138137417,11.045361017187261,9.055385138137417,23.0,15.0,14.0,15.0,13.0,5.0,9.0,1.0,2.0,5.0,4.123105625617661,4.0,16.0,16.0,15.033296378372908,94.02127418834527,93.00537618869137,90.08884503644167,84.2140130857092
114,46,363,0,15.14012500000012,3.0,34.058772731852805,5.0,8.0,9.055385138137417,10.04987562112089,8.06225774829855,24.020824298928627,16.0312195418814,14.5,15.0,13.0,6.0,10.0,2.0,2.0,4.0,4.123105625617661,4.0,17.0,17.0,15.0,93.02150289046077,93.0,90.0499861188218,85.14693182963201
115,46,364,0,15.181833333333454,5.0,32.0624390837628,4.0,8.0,9.0,10.04987562112089,8.06225774829855,25.019992006393608,17.029386365926403,14.5,14.0,12.0,5.0,12.0,4.0,1.0,5.0,4.123105625617661,4.5,18.0,18.0,16.0312195418814,96.02083107326243,95.00526301210897,92.04890004774636,86.20904824900923
116,46,365,0,15.223541666666788,2.0,33.13608305156178,4.0,8.0,9.0,10.04987562112089,9.055385138137417,23.021728866442675,15.033296378372908,14.0,15.0,12.0,4.5,9.5,1.5,0.5,5.0990195135927845,5.0990195135927845,5.0,17.0,17.0,16.0312195418814,95.00526301210897,95.00526301210897,92.13576938409967,85.37564055396598
117,46,366,0,15.265250000000124,1.4142135623730951,33.13608305156178,4.0,7.0,10.04987562112089,10.198039027185569,8.06225774829855,20.09975124224178,13.152946437965905,12.5,15.0,12.0,5.5,6.5,0.5,2.5,5.0,5.0990195135927845,4.5,17.0,17.0,15.033296378372908,93.0,94.04786015641186,91.13725912051558,85.28774824088158
118,46,367,0,15.306958333333457,1.0,31.25699921617557,4.123105625617661,8.0,9.0,10.04987562112089,8.06225774829855,21.095023109728988,13.152946437965905,12.5,15.0,11.0,5.0,8.0,0.0,1.0,5.0990195135927845,5.0990195135927845,5.0,18.0,18.0,15.033296378372908,94.00531899844816,94.00531899844816,92.0869154657707,86.20904824900923
119,46,368,0,15.34866666666679,2.23606797749979,33.13608305156178,5.0990195135927845,8.06225774829855,10.0,11.045361017187261,7.0,22.02271554554524,14.0,13.0,14.0,11.0,5.5,9.5,1.5,1.5,5.0,5.0,5.0,15.0,16.0,16.1245154965971,93.00537618869137,93.02150289046077,90.13878188659973,84.29116205154607
120,46,369,0,15.390375000000123,3.0,33.24154027718932,4.0,8.0,10.04987562112089,11.045361017187261,8.0,23.0,15.0,13.5,15.0,11.0,5.0,10.0,2.0,2.0,5.0,4.123105625617661,4.5,15.0,16.0,16.1245154965971,93.00537618869137,93.04837451562494,90.13878188659973,83.38465086573187
121,46,370,0,15.43208333333346,5.0990195135927845,33.13608305156178,5.0,8.0,10.04987562112089,11.045361017187261,7.0710678118654755,25.0,17.0,14.5,15.0,12.0,6.5,11.5,3.5,2.5,5.0,5.0990195135927845,5.0,15.0,17.0,15.132745950421556,92.00543462209176,93.00537618869137,89.1403387922662,84.38009243891595
122,46,371,0,15.473791666666791,5.0990195135927845,33.13608305156178,5.0,8.0,10.04987562112089,11.045361017187261,7.0710678118654755,25.0,17.0,14.5,15.0,12.0,6.5,11.5,3.5,2.5,5.0,5.0990195135927845,5.0,15.0,17.0,15.132745950421556,92.00543462209176,93.00537618869137,89.1403387922662,84.38009243891595
123,46,372,0,15.515500000000127,9.055385138137417,32.14031735997639,4.0,8.06225774829855,9.055385138137417,11.180339887498949,8.0,29.0,21.02379604162864,16.5,15.0,12.0,5.5,15.5,7.5,2.5,6.0,5.0990195135927845,5.0,16.0,17.0,15.033296378372908,91.00549433962765,91.00549433962765,87.09190547921202,81.30190649671138
124,46,373,0,15.55720833333346,10.0,33.13608305156178,4.123105625617661,9.0,9.055385138137417,11.045361017187261,7.0,30.01666203960727,21.02379604162864,16.0,13.0,10.0,4.5,18.5,9.5,1.5,5.0,5.0990195135927845,5.5,14.0,16.0,15.132745950421556,91.02197536858887,91.0,87.05170877128145,81.15417426109393
125,46,374,0,15.598916666666796,9.055385138137417,33.13608305156178,3.0,8.0,9.055385138137417,10.04987562112089,7.0,27.018512172212592,19.026297590440446,14.5,12.0,9.0,3.5,16.5,8.5,1.5,5.0,5.0990195135927845,5.0,14.0,16.0,15.132745950421556,90.0499861188218,89.0,86.05230967266364,81.15417426109393
126,46,375,0,15.64062500000013,9.055385138137417,33.13608305156178,3.0,8.0,9.055385138137417,10.04987562112089,7.0,27.018512172212592,19.026297590440446,14.5,12.0,9.0,3.5,16.5,8.5,1.5,5.0,5.0990195135927845,5.0,14.0,16.0,15.132745950421556,90.0499861188218,89.0,86.05230967266364,81.15417426109393
127,46,376,0,15.682333333333464,5.0,33.24154027718932,2.23606797749979,7.0,9.055385138137417,10.198039027185569,7.0710678118654755,21.0,14.0,11.5,10.0,6.0,1.0,13.0,6.0,0.0,4.0,4.0,4.0,13.0,15.0,13.038404810405298,90.0499861188218,89.0,85.0235261559999,80.22468448052632
128,46,377,0,15.724041666666798,5.0990195135927845,32.2490309931942,2.0,6.0,9.055385138137417,10.198039027185569,6.082762530298219,19.0,13.0,10.5,9.0,5.0,1.0,12.0,6.0,0.0,4.123105625617661,4.0,4.0,13.0,15.0,12.041594578792296,90.08884503644167,88.0056816347672,86.00581375697809,80.09993757800315
129,46,378,0,15.765750000000132,5.0,32.38826948140329,2.0,6.082762530298219,9.055385138137417,10.198039027185569,6.0,19.026297590440446,13.0,10.5,9.0,4.0,0.5,12.5,6.5,0.5,5.0,5.0990195135927845,4.5,12.0,14.0,14.142135623730951,87.05170877128145,86.00581375697809,83.02409288875127,78.16009211867653
130,46,379,0,15.807458333333466,5.0,32.2490309931942,2.23606797749979,6.082762530298219,9.055385138137417,10.198039027185569,6.082762530298219,19.026297590440446,13.0,10.5,9.0,5.0,1.0,12.0,6.0,0.0,5.0,5.0990195135927845,5.0,12.0,15.0,13.152946437965905,89.05054744357274,87.00574693662483,83.02409288875127,78.16009211867653
131,46,380,0,15.8491666666668,4.0,31.25699921617557,2.0,6.082762530298219,8.06225774829855,9.219544457292887,5.0990195135927845,17.0,11.045361017187261,9.0,7.0,3.0,0.0,12.0,6.0,1.0,5.0990195135927845,4.0,4.0,13.0,15.0,13.152946437965905,88.14193099768123,87.02298546935747,83.00602387778854,77.05841939723393
132,46,381,0,15.890875000000134,4.0,31.25699921617557,2.0,6.0,9.055385138137417,10.198039027185569,5.0,17.0,11.0,9.0,7.0,3.0,0.0,12.0,6.0,1.0,4.0,4.123105625617661,3.5,12.0,14.0,13.152946437965905,88.05112151472007,86.0,83.02409288875127,77.10382610480494
133,46,382,0,15.932583333333469,4.0,30.265491900843113,1.0,5.0990195135927845,9.055385138137417,10.198039027185569,7.0710678118654755,17.0,12.041594578792296,10.0,8.0,4.0,1.0,11.0,6.0,1.0,4.0,4.123105625617661,4.0,12.0,15.0,13.152946437965905,87.05170877128145,85.0,83.02409288875127,77.1621668954417
134,46,383,0,15.974291666666804,4.0,30.265491900843113,1.0,5.0990195135927845,9.055385138137417,10.198039027185569,7.0710678118654755,17.0,12.041594578792296,10.0,8.0,4.0,1.0,11.0,6.0,1.0,4.0,4.123105625617661,4.0,12.0,15.0,13.152946437965905,87.05170877128145,85.0,83.02409288875127,77.1621668954417
135,46,384,0,16.016000000000137,4.0,30.265491900843113,2.0,7.0,9.055385138137417,10.198039027185569,6.0,19.0,12.0,10.0,8.0,4.0,0.0,13.0,6.0,1.0,4.0,4.0,4.0,13.0,15.0,15.132745950421556,82.05485969764375,80.0,77.02596964660685,71.17583859709698
136,46,385,0,16.05770833333347,4.0,30.14962686336267,2.0,6.082762530298219,9.055385138137417,9.219544457292887,6.082762530298219,18.0,12.041594578792296,10.0,8.0,5.0,0.5,11.5,6.5,0.5,4.123105625617661,4.0,4.0,11.0,13.0,14.142135623730951,85.05292469985967,83.0,79.02531240052139,74.16872656315464
137,46,386,0,16.0994166666668,5.0,31.144823004794873,2.0,6.0,9.055385138137417,9.219544457292887,6.0,19.0,13.0,10.5,8.0,5.0,0.5,12.5,6.5,0.5,4.123105625617661,4.0,4.0,12.0,14.0,14.142135623730951,85.05292469985967,85.00588214941364,81.02468759581859,76.16429609731846
138,46,387,0,16.141125000000134,5.0,31.144823004794873,2.0,5.0,9.055385138137417,9.055385138137417,6.0,18.0,13.0,10.5,9.0,6.0,1.5,10.5,5.5,0.5,5.0,4.123105625617661,4.0,12.0,14.0,15.132745950421556,85.00588214941364,83.00602387778854,80.05623023850174,75.16648189186454
139,46,388,0,16.182833333333466,6.0,32.0624390837628,3.0,5.0,8.06225774829855,10.198039027185569,7.0710678118654755,21.02379604162864,16.0312195418814,13.0,10.0,8.0,2.0,12.0,7.0,0.0,4.0,5.0990195135927845,5.0,13.0,15.0,15.132745950421556,85.05292469985967,84.0,80.02499609497022,75.1065909225016
140,46,389,0,16.2245416666668,5.0,32.0624390837628,3.0,5.0,8.06225774829855,10.04987562112089,8.06225774829855,21.02379604162864,16.0312195418814,13.5,12.0,10.0,3.0,10.0,5.0,1.0,5.0,4.0,4.5,12.0,14.0,15.132745950421556,85.05292469985967,84.0,80.05623023850174,75.23961722390672
141,46,390,0,16.26625000000013,4.0,29.068883707497267,3.0,5.0,9.0,10.04987562112089,9.0,21.0,16.0,14.0,12.0,10.0,2.0,10.0,5.0,0.0,5.0990195135927845,5.0990195135927845,5.0,13.0,14.0,14.142135623730951,83.05419917138447,83.00602387778854,80.00624975587844,74.10802925459562
142,46,391,0,16.307958333333463,4.0,29.068883707497267,3.0,5.0,9.0,10.04987562112089,9.0,21.0,16.0,14.0,12.0,10.0,2.0,10.0,5.0,0.0,5.0990195135927845,5.0990195135927845,5.0,13.0,14.0,14.142135623730951,83.05419917138447,83.00602387778854,80.00624975587844,74.10802925459562
143,46,392,0,16.349666666666796,3.0,31.064449134018133,2.0,6.0,9.055385138137417,9.055385138137417,9.0,20.0,14.0,12.5,12.0,10.0,2.0,9.0,3.0,1.0,4.0,3.0,3.5,14.0,15.0,16.0,85.05292469985967,85.0,81.02468759581859,76.10519036176179
144,46,393,0,16.391375000000128,1.0,30.066592756745816,3.0,6.0,8.06225774829855,9.055385138137417,9.0,19.0,13.0,12.5,13.0,11.0,3.0,7.0,1.0,1.0,4.0,3.0,3.0,15.0,15.0,16.0312195418814,85.14693182963201,86.02325267042627,82.00609733428362,76.05918747922567
145,46,394,0,16.43308333333346,1.0,28.0178514522438,3.0,7.0,8.0,9.0,8.0,19.0,12.0,11.5,12.0,11.0,3.5,7.5,0.5,0.5,4.0,3.1622776601683795,3.0,14.0,14.0,16.0312195418814,87.09190547921202,86.00581375697809,82.00609733428362,77.10382610480494
146,46,395,0,16.474791666666793,1.4142135623730951,29.017236257093817,3.0,7.0,9.0,9.0,8.0,19.026297590440446,12.041594578792296,11.5,12.0,11.0,3.5,7.5,0.5,0.5,4.0,3.1622776601683795,3.0,14.0,14.0,16.0312195418814,87.09190547921202,86.00581375697809,82.02438661763951,77.1621668954417
147,46,396,0,16.516500000000125,0.0,30.066592756745816,4.0,6.0,8.0,9.055385138137417,8.0,18.0,12.0,12.0,13.0,11.0,4.0,6.0,0.0,1.0,4.0,4.0,4.0,14.0,14.0,15.033296378372908,87.05170877128145,86.00581375697809,83.02409288875127,78.16009211867653
148,46,397,0,16.558208333333457,0.0,31.064449134018133,3.0,7.0,9.055385138137417,9.055385138137417,9.0,19.0,12.0,12.0,13.0,11.0,3.0,7.0,0.0,1.0,3.0,3.0,3.5,13.0,14.0,15.033296378372908,86.05230967266364,86.0,83.02409288875127,78.16009211867653
149,46,398,0,16.59991666666679,1.0,31.064449134018133,3.0,8.0,8.0,10.0,8.0,20.0,12.0,11.5,12.0,10.0,3.0,9.0,1.0,0.0,4.0,4.0,4.0,15.0,15.0,15.033296378372908,85.05292469985967,85.0235261559999,83.00602387778854,79.05694150420949
150,46,399,0,16.641625000000122,2.0,31.064449134018133,4.0,7.0,9.055385138137417,10.0,7.0,20.0,13.0,12.0,12.0,10.0,4.0,9.0,1.0,1.0,4.0,3.1622776601683795,3.5,14.0,14.0,15.0,86.05230967266364,85.00588214941364,83.00602387778854,78.05767098754612
151,46,400,0,16.683333333333454,4.0,32.01562118716424,2.0,6.0,9.055385138137417,10.04987562112089,8.0,20.0,14.0,12.0,12.0,11.0,3.5,8.5,2.5,2.5,4.0,4.0,4.0,14.0,14.0,15.033296378372908,86.02325267042627,85.0,83.02409288875127,79.1012010022604
152,46,401,0,16.725041666666787,4.0,31.016124838541646,2.0,7.0,9.0,10.04987562112089,8.0,21.0,14.0,12.0,12.0,11.0,3.5,9.5,2.5,1.5,4.123105625617661,4.0,4.0,14.0,14.0,15.033296378372908,86.09297300012354,87.02298546935747,84.00595217006948,79.05694150420949
153,46,402,0,16.76675000000012,4.0,30.01666203960727,3.0,7.0,9.0,10.04987562112089,8.0,22.0,15.0,13.0,12.0,11.0,3.5,10.5,3.5,0.5,4.0,4.0,4.0,14.0,14.0,15.033296378372908,87.14355971613737,87.02298546935747,85.00588214941364,79.05694150420949
154,46,403,0,16.80845833333345,4.0,30.0,3.0,7.0,9.0,10.04987562112089,8.0,22.0,15.0,13.0,12.0,12.0,4.0,10.0,3.0,1.0,5.0990195135927845,4.0,4.0,14.0,14.0,16.0,87.14355971613737,87.02298546935747,85.0,79.02531240052139
155,46,404,0,16.850166666666784,1.0,29.0,4.0,8.06225774829855,9.0,9.0,7.0,20.024984394500787,12.0,11.5,11.0,11.0,4.0,9.0,1.0,0.0,5.0990195135927845,5.0,5.0,16.0,14.0,15.0,87.20665112249179,87.05170877128145,85.0,79.05694150420949
156,46,405,0,16.891875000000116,1.0,29.0,4.123105625617661,8.0,8.0,9.0,8.0,21.02379604162864,13.038404810405298,12.5,12.0,12.0,4.0,9.0,1.0,1.0,4.0,4.0,4.0,15.0,14.0,16.0312195418814,88.2779700718135,88.09086218218096,85.0235261559999,80.02499609497022
157,46,406,0,16.93358333333345,4.0,30.01666203960727,4.123105625617661,7.0,9.0,9.055385138137417,8.0,23.021728866442675,16.0312195418814,14.0,12.0,13.0,4.5,10.5,2.5,0.5,5.0,4.0,4.0,15.0,13.0,16.0312195418814,89.35882720806042,88.14193099768123,85.00588214941364,80.00624975587844
158,46,407,0,16.97529166666678,3.0,30.01666203960727,4.123105625617661,8.06225774829855,8.0,9.055385138137417,8.0,23.08679276123039,15.033296378372908,13.5,12.0,13.0,4.5,10.5,2.5,0.5,4.0,4.123105625617661,4.0,15.0,13.0,16.0312195418814,89.27485648266257,88.14193099768123,85.0235261559999,80.0
159,46,408,0,17.017000000000113,3.0,31.016124838541646,4.123105625617661,7.0,9.055385138137417,10.04987562112089,7.0,21.02379604162864,14.035668847618199,12.5,11.0,12.0,4.5,9.5,2.5,0.5,4.0,5.0,5.0,15.0,13.0,15.0,88.56635930193812,89.27485648266257,86.02325267042627,81.00617260431454
160,46,409,0,17.058708333333445,3.0,32.0624390837628,4.123105625617661,7.0,9.055385138137417,10.04987562112089,7.0,21.02379604162864,14.035668847618199,12.5,11.0,13.0,5.0,9.0,1.0,1.0,5.0990195135927845,5.0,5.0,15.0,12.0,16.0312195418814,89.56003573022959,89.35882720806042,87.09190547921202,82.0
161,46,410,0,17.100416666666778,4.0,30.066592756745816,3.1622776601683795,7.0710678118654755,9.0,10.0,9.0,23.08679276123039,16.0312195418814,14.0,11.0,13.0,3.0,11.0,3.0,0.0,4.123105625617661,5.0,5.0,16.0,12.0,15.0,90.79647570252934,90.35485598461214,88.09086218218096,82.00609733428362
162,46,411,0,17.14212500000011,3.1622776601683795,30.066592756745816,4.123105625617661,8.0,8.0,9.055385138137417,8.0,23.08679276123039,15.132745950421556,13.5,11.0,13.0,4.0,11.0,3.0,0.0,4.123105625617661,5.0,5.0,15.0,12.0,15.033296378372908,90.79647570252934,90.35485598461214,88.14193099768123,82.00609733428362
163,46,412,0,17.183833333333443,1.0,30.066592756745816,3.0,7.0710678118654755,8.0,9.0,9.219544457292887,20.223748416156685,13.152946437965905,12.5,10.0,12.0,2.0,9.0,1.0,1.0,5.0990195135927845,5.0990195135927845,5.0,17.0,13.0,14.0,90.09439494219383,89.56003573022959,88.20430828479978,83.02409288875127
164,46,413,0,17.225541666666775,1.0,30.01666203960727,4.123105625617661,7.0710678118654755,8.0,9.0,9.055385138137417,21.213203435596427,14.142135623730951,13.5,12.0,13.0,3.5,8.5,1.5,0.5,5.0990195135927845,5.0,5.0,16.0,12.0,13.0,89.10667763978185,88.68483523128404,87.28115489611719,81.02468759581859
165,46,414,0,17.267250000000107,2.23606797749979,29.068883707497267,4.0,7.0710678118654755,7.0,8.06225774829855,9.055385138137417,22.20360331117452,15.132745950421556,14.0,11.0,13.0,3.0,10.0,2.0,1.0,5.0990195135927845,4.0,4.5,15.0,12.0,14.035668847618199,90.79647570252934,90.44888059008801,89.08984229416954,82.0
166,46,415,0,17.30895833333344,2.23606797749979,29.068883707497267,4.0,7.0710678118654755,7.0,8.06225774829855,9.055385138137417,22.20360331117452,15.132745950421556,14.0,11.0,13.0,3.0,10.0,2.0,1.0,5.0990195135927845,4.0,4.5,15.0,12.0,14.035668847618199,90.79647570252934,90.44888059008801,89.08984229416954,82.0
167,46,416,0,17.350666666666772,6.082762530298219,30.01666203960727,4.123105625617661,8.06225774829855,8.0,9.0,8.06225774829855,26.30589287593181,18.24828759089466,15.0,12.0,13.0,4.5,13.5,5.5,0.5,5.0990195135927845,5.0,5.0,16.0,12.0,14.035668847618199,90.09439494219383,89.56003573022959,86.20904824900923,80.02499609497022
168,46,417,0,17.392375000000104,6.082762530298219,29.0,4.123105625617661,8.06225774829855,9.0,10.0,7.0,25.179356624028344,17.11724276862369,14.0,11.0,11.0,4.0,14.0,6.0,1.0,5.0990195135927845,4.0,4.5,16.0,13.0,14.0,89.94442728707543,90.44888059008801,88.14193099768123,81.0
169,46,418,0,17.434083333333437,7.0710678118654755,29.017236257093817,3.0,7.0710678118654755,8.0,9.055385138137417,8.246211251235321,25.317977802344327,18.24828759089466,14.5,11.0,12.0,3.5,13.5,5.5,0.5,5.0990195135927845,5.0,5.0,16.0,13.0,14.035668847618199,89.10667763978185,89.56003573022959,87.09190547921202,82.00609733428362
170,46,419,0,17.47579166666677,5.0990195135927845,29.017236257093817,4.0,8.06225774829855,8.0,9.055385138137417,8.246211251235321,25.317977802344327,17.26267650163207,14.5,11.0,12.0,3.5,13.5,5.5,0.5,5.0990195135927845,5.0,5.0,17.0,14.0,14.035668847618199,88.11923740024082,89.45389874119518,88.14193099768123,81.00617260431454
171,46,420,0,17.5175000000001,5.0990195135927845,28.0178514522438,4.123105625617661,8.06225774829855,8.06225774829855,9.0,8.06225774829855,25.317977802344327,17.26267650163207,14.5,11.0,12.0,3.5,13.5,4.5,0.5,5.0990195135927845,4.123105625617661,4.5,15.0,13.0,13.038404810405298,90.2551937563706,90.44888059008801,89.02246907382428,85.0235261559999
172,46,421,0,17.559208333333434,6.082762530298219,28.0178514522438,4.0,7.0710678118654755,9.0,9.0,7.280109889280518,24.331050121192877,17.26267650163207,14.0,10.0,11.0,3.5,13.5,5.5,0.5,5.0990195135927845,5.0,5.0,15.0,13.0,14.0,87.69264507357501,88.2779700718135,86.05230967266364,81.0
173,46,422,0,17.600916666666766,4.123105625617661,28.0,4.0,7.0710678118654755,7.0,8.06225774829855,8.06225774829855,23.194827009486403,16.1245154965971,14.0,11.0,11.0,3.0,12.0,5.0,0.0,5.0990195135927845,5.0,5.0,15.0,13.0,14.0,91.7877987534291,91.35097153287424,90.0499861188218,84.02380615040002
174,46,423,0,17.6426250000001,4.123105625617661,28.0,4.0,7.0710678118654755,7.0,8.06225774829855,8.06225774829855,23.194827009486403,16.1245154965971,14.0,11.0,11.0,3.0,12.0,5.0,0.0,5.0990195135927845,5.0,5.0,15.0,13.0,14.0,91.7877987534291,91.35097153287424,90.0499861188218,84.02380615040002
175,46,424,0,17.68433333333343,4.0,29.0,4.0,7.0710678118654755,7.0,8.06225774829855,7.0710678118654755,22.090722034374522,15.033296378372908,13.0,11.0,11.0,4.0,11.0,3.0,1.0,4.123105625617661,5.0,5.0,14.0,13.0,12.041594578792296,83.2946576918352,84.09518416651456,82.00609733428362,76.00657866263946
176,46,425,0,17.726041666666763,1.0,30.01666203960727,4.0,7.0710678118654755,8.0,9.055385138137417,7.280109889280518,19.235384061671343,12.165525060596439,11.5,10.0,9.0,2.5,9.5,2.5,0.5,5.0990195135927845,4.123105625617661,4.0,14.0,13.0,13.038404810405298,83.15046602394962,83.05419917138447,81.0,75.05997601918082
177,46,426,0,17.767750000000095,1.0,29.017236257093817,3.0,8.06225774829855,8.0,9.055385138137417,9.055385138137417,21.095023109728988,13.038404810405298,12.5,12.0,11.0,2.5,9.5,1.5,0.5,5.0990195135927845,4.123105625617661,4.0,14.0,13.0,12.0,88.36288813749809,88.14193099768123,86.00581375697809,80.09993757800315
178,46,427,0,17.809458333333428,1.0,29.017236257093817,3.0,8.06225774829855,8.0,9.055385138137417,9.055385138137417,21.095023109728988,13.038404810405298,12.5,12.0,11.0,2.5,9.5,1.5,0.5,5.0990195135927845,4.123105625617661,4.0,14.0,13.0,12.0,88.36288813749809,88.14193099768123,86.00581375697809,80.09993757800315
179,46,428,0,17.85116666666676,3.0,31.016124838541646,4.123105625617661,7.0,8.0,9.0,8.0,22.02271554554524,15.033296378372908,13.5,11.0,10.0,2.5,11.5,4.5,0.5,5.0,5.0990195135927845,5.0,14.0,14.0,16.0,91.19758768739445,91.0494371207203,88.0056816347672,82.15229759416349
180,46,429,0,17.892875000000092,4.0,31.016124838541646,4.123105625617661,7.0,8.06225774829855,9.055385138137417,8.0,23.021728866442675,16.0312195418814,14.0,12.0,11.0,3.5,11.5,4.5,0.5,5.0,5.0,5.0,15.0,15.0,15.033296378372908,91.13725912051558,90.0222194794152,88.0056816347672,82.05485969764375
181,46,430,0,17.934583333333425,1.0,31.064449134018133,4.0,7.0,8.0,9.055385138137417,8.0,20.0,13.0,12.5,12.0,10.0,3.0,9.0,2.0,1.0,5.0,5.0,5.0,14.0,14.0,15.033296378372908,89.08984229416954,90.0222194794152,87.00574693662483,81.09870529176159
182,46,431,0,17.976291666666757,1.0,31.064449134018133,4.0,7.0,8.0,9.055385138137417,8.0,20.0,13.0,12.5,12.0,10.0,3.0,9.0,2.0,1.0,5.0,5.0,5.0,14.0,14.0,15.033296378372908,89.08984229416954,90.0222194794152,87.00574693662483,81.09870529176159
183,46,432,0,18.01800000000009,1.0,31.064449134018133,4.0,7.0,9.055385138137417,9.055385138137417,8.0,20.0,13.0,12.5,12.0,10.0,3.0,9.0,2.0,0.0,5.0,5.0990195135927845,5.0,13.0,14.0,15.033296378372908,88.02272433866155,88.0,85.0235261559999,80.09993757800315
184,46,433,0,18.059708333333425,1.0,32.14031735997639,4.0,8.0,9.055385138137417,10.04987562112089,8.0,21.0,13.0,12.5,13.0,10.0,3.5,9.5,1.5,0.5,4.123105625617661,5.0,4.5,13.0,15.0,14.035668847618199,88.0,88.02272433866155,85.09406559801923,80.22468448052632
185,46,434,0,18.10141666666676,3.0,33.13608305156178,4.0,8.0,9.055385138137417,10.04987562112089,8.06225774829855,23.021728866442675,15.033296378372908,13.5,13.0,10.0,3.5,11.5,3.5,0.5,4.0,3.1622776601683795,3.0,13.0,15.0,14.035668847618199,89.02246907382428,89.05054744357274,85.14693182963201,80.30566605165541
186,46,435,0,18.143125000000087,3.0,33.13608305156178,4.0,8.0,9.055385138137417,10.04987562112089,8.06225774829855,23.021728866442675,15.033296378372908,13.5,13.0,10.0,3.5,11.5,3.5,0.5,4.123105625617661,3.1622776601683795,3.0,13.0,15.0,14.035668847618199,89.00561780022652,89.05054744357274,85.14693182963201,80.30566605165541
187,46,436,0,18.18483333333342,0.0,33.24154027718932,4.123105625617661,7.0,9.055385138137417,10.04987562112089,9.055385138137417,20.09975124224178,13.152946437965905,13.0,13.0,9.0,2.0,9.0,2.0,1.0,4.0,4.0,3.5,13.0,16.0,15.132745950421556,87.09190547921202,86.14522621712709,83.2946576918352,78.31347265956222
188,46,437,0,18.22654166666675,0.0,34.36568055487916,3.1622776601683795,7.0710678118654755,9.055385138137417,9.219544457292887,9.055385138137417,19.235384061671343,12.165525060596439,12.0,13.0,8.0,1.5,8.5,1.5,0.5,5.0,5.0990195135927845,4.5,12.0,16.0,15.132745950421556,87.20665112249179,85.28774824088158,82.38931969618392,77.41446893184762
189,46,438,0,18.268250000000084,0.0,33.54101966249684,4.123105625617661,7.0710678118654755,8.246211251235321,9.219544457292887,9.055385138137417,20.223748416156685,13.152946437965905,13.0,14.0,8.0,2.0,9.0,2.0,0.0,4.0,3.1622776601683795,3.0,11.0,17.0,16.278820596099706,84.5931439302264,84.5931439302264,81.74350127074322,76.79192665899195
190,46,439,0,18.309958333333416,0.0,33.54101966249684,4.123105625617661,7.0710678118654755,8.246211251235321,9.219544457292887,9.055385138137417,20.223748416156685,13.152946437965905,13.0,14.0,8.0,2.0,9.0,2.0,0.0,4.0,3.1622776601683795,3.0,11.0,17.0,16.278820596099706,84.5931439302264,84.5931439302264,81.74350127074322,76.79192665899195
191,46,440,0,18.35166666666675,1.4142135623730951,33.37663853655727,4.123105625617661,7.0710678118654755,9.055385138137417,9.055385138137417,9.055385138137417,21.37755832643195,14.317821063276353,13.5,14.0,9.0,2.5,9.5,1.5,0.5,3.0,3.1622776601683795,3.0,11.0,17.0,14.142135623730951,87.13208364316786,85.32877591996736,82.03657720797473,77.92945527847606
192,46,441,0,18.39337500000008,0.0,34.23448553724738,4.123105625617661,6.082762530298219,9.055385138137417,9.055385138137417,10.04987562112089,20.223748416156685,14.142135623730951,14.0,14.0,10.0,2.0,8.0,2.0,0.0,4.123105625617661,3.1622776601683795,3.0,10.0,16.0,13.341664064126334,84.17244204607586,83.02409288875127,80.89499366462674,76.94153624668537
193,46,442,0,18.435083333333413,1.0,34.36568055487916,4.123105625617661,7.0710678118654755,9.055385138137417,10.04987562112089,9.055385138137417,21.213203435596427,14.142135623730951,13.5,14.0,9.0,2.5,9.5,2.5,0.5,4.0,3.605551275463989,3.0,10.0,16.0,13.341664064126334,85.15867542417507,84.8528137423857,81.74350127074322,76.6550715869472
194,46,443,0,18.476791666666745,1.4142135623730951,33.24154027718932,3.1622776601683795,7.0710678118654755,9.055385138137417,9.055385138137417,10.04987562112089,21.37755832643195,14.317821063276353,13.5,14.0,10.0,2.0,9.0,2.0,0.0,4.0,3.1622776601683795,3.0,11.0,17.0,13.341664064126334,85.15867542417507,84.8528137423857,81.88406438373708,76.6550715869472
195,46,444,0,18.51850000000008,3.1622776601683795,34.23448553724738,3.0,6.0,9.0,10.04987562112089,7.0710678118654755,19.1049731745428,13.152946437965905,11.5,11.0,7.0,2.0,10.0,4.0,1.0,4.0,3.1622776601683795,3.0,10.0,15.0,13.152946437965905,86.14522621712709,84.8528137423857,82.60750571225353,79.40403012442127
196,46,445,0,18.56020833333341,2.0,35.12833614050059,3.1622776601683795,6.082762530298219,9.0,10.04987562112089,8.06225774829855,19.235384061671343,13.152946437965905,12.0,11.0,8.0,1.5,9.5,3.5,1.5,3.1622776601683795,3.1622776601683795,3.0,11.0,16.0,12.165525060596439,85.84287972802403,84.71717653463199,81.49846624323675,77.41446893184762
197,46,446,0,18.601916666666742,2.0,34.132096331752024,3.0,7.0710678118654755,10.04987562112089,10.0,8.246211251235321,20.223748416156685,13.152946437965905,12.0,11.0,8.0,1.5,10.5,3.5,0.5,3.0,3.1622776601683795,2.5,11.0,15.0,14.142135623730951,85.84287972802403,85.58621384311844,82.49242389456137,78.40918313565064
198,46,447,0,18.643625000000075,2.0,34.132096331752024,3.0,7.0710678118654755,10.04987562112089,10.0,8.246211251235321,20.223748416156685,13.152946437965905,12.0,11.0,8.0,1.5,10.5,3.5,0.5,3.0,3.1622776601683795,2.5,11.0,15.0,14.142135623730951,85.84287972802403,85.58621384311844,82.49242389456137,78.40918313565064
199,46,448,0,18.685333333333407,3.0,34.0147027033899,3.0,7.0710678118654755,10.04987562112089,10.0,8.06225774829855,21.095023109728988,14.035668847618199,12.5,10.0,9.0,1.5,11.5,3.5,0.5,2.0,2.0,2.5,11.0,13.0,13.038404810405298,86.37129152675674,84.38009243891595,81.39410298049853,77.31752712031083
200,46,449,0,18.72704166666674,1.4142135623730951,33.06055050963308,3.0,7.0,9.055385138137417,10.0,8.0,19.026297590440446,12.041594578792296,11.5,10.0,8.0,1.0,10.0,3.0,1.0,2.0,2.0,2.0,11.0,13.0,13.038404810405298,87.20665112249179,86.20904824900923,82.21921916437786,78.23042886243178
201,46,450,0,18.76875000000007,1.0,33.015148038438355,3.1622776601683795,7.0,9.055385138137417,11.045361017187261,8.0,19.026297590440446,12.041594578792296,11.5,9.0,8.0,0.5,10.5,3.5,1.5,2.0,2.0,2.0,11.0,13.0,12.041594578792296,85.09406559801923,85.09406559801923,81.09870529176159,76.16429609731846
202,46,451,0,18.810458333333404,1.0,33.015148038438355,3.1622776601683795,7.0,9.055385138137417,11.045361017187261,8.0,19.026297590440446,12.041594578792296,11.5,9.0,8.0,0.5,10.5,3.5,1.5,2.0,2.0,2.0,11.0,13.0,12.041594578792296,85.09406559801923,85.09406559801923,81.09870529176159,76.16429609731846
203,46,452,0,18.852166666666736,3.0,34.0147027033899,3.0,6.0,9.055385138137417,11.0,8.06225774829855,20.024984394500787,14.035668847618199,12.5,9.0,8.0,0.5,11.5,4.5,1.5,3.0,3.1622776601683795,3.0,11.0,12.0,12.041594578792296,89.00561780022652,87.02298546935747,83.02409288875127,78.05767098754612
204,46,453,0,18.89387500000007,2.23606797749979,34.0147027033899,3.0,7.0,9.0,11.0,8.0,20.024984394500787,13.038404810405298,12.0,9.0,8.0,0.5,11.5,3.5,1.5,3.1622776601683795,3.0,3.0,11.0,12.0,13.038404810405298,89.0,87.0,84.00595217006948,78.02563681252464
205,46,454,0,18.9355833333334,3.0,34.0147027033899,3.0,7.0,10.0,12.0,8.0,21.0,14.0,12.5,10.0,9.0,1.5,11.5,4.5,0.5,3.0,3.1622776601683795,3.0,12.0,12.0,12.0,89.05054744357274,87.00574693662483,82.00609733428362,77.05841939723393
206,46,455,0,18.977291666666734,3.0,34.058772731852805,3.0,7.0,10.0,12.0,8.0,21.0,14.0,12.5,10.0,8.0,1.0,12.0,4.0,1.0,3.0,3.1622776601683795,3.0,12.0,12.0,12.041594578792296,89.02246907382428,87.00574693662483,83.0,78.02563681252464
207,46,456,0,19.019000000000062,1.0,34.058772731852805,2.23606797749979,7.0,9.055385138137417,10.04987562112089,9.0,19.026297590440446,12.041594578792296,11.5,8.0,6.0,2.0,12.0,5.0,3.0,3.1622776601683795,3.0,3.0,12.0,12.0,12.041594578792296,88.09086218218096,87.02298546935747,83.0,79.05694150420949
208,46,457,0,19.0607083333334,2.0,34.058772731852805,3.0,7.0,10.04987562112089,11.045361017187261,7.0710678118654755,19.026297590440446,12.041594578792296,11.0,8.0,6.0,0.0,12.0,5.0,2.0,3.0,3.0,3.0,11.0,11.0,12.041594578792296,88.20430828479978,87.05170877128145,84.00595217006948,79.02531240052139
209,46,458,0,19.10241666666673,2.23606797749979,34.0147027033899,2.0,7.0710678118654755,10.0,11.045361017187261,8.0,19.0,12.041594578792296,11.0,8.0,7.0,0.5,11.5,4.5,2.5,3.0,3.0,3.0,12.0,12.0,12.0,89.20201791439474,87.09190547921202,83.00602387778854,79.00632886041473
210,46,459,0,19.144125000000063,2.0,34.058772731852805,2.0,7.0,10.04987562112089,11.045361017187261,8.06225774829855,19.026297590440446,12.041594578792296,11.0,8.0,6.0,1.0,12.0,5.0,2.0,3.0,3.0,3.0,12.0,12.0,13.0,89.1403387922662,86.05230967266364,83.0,78.02563681252464
211,46,460,0,19.185833333333395,0.0,34.0147027033899,3.0,7.0,9.055385138137417,10.04987562112089,7.0,17.0,10.0,10.0,7.0,6.0,0.5,10.5,3.5,2.5,2.0,2.0,2.0,11.0,11.0,12.0,88.09086218218096,87.05170877128145,84.0,79.05694150420949
212,46,461,0,19.227541666666728,1.0,34.0147027033899,3.0,7.0,9.055385138137417,10.0,7.0710678118654755,18.027756377319946,11.045361017187261,10.5,7.0,6.0,0.5,11.5,3.5,2.5,3.0,3.0,2.5,11.0,11.0,11.0,89.08984229416954,88.02272433866155,84.0,79.02531240052139
213,46,462,0,19.26925000000006,2.23606797749979,35.0,3.0,7.0,9.0,10.0,7.0,19.026297590440446,12.041594578792296,11.0,6.0,6.0,1.0,13.0,5.0,3.0,2.23606797749979,2.0,2.0,12.0,12.0,13.0,88.02272433866155,87.00574693662483,84.0,78.00640999302557
214,46,463,0,19.310958333333392,2.0,35.014282800023196,3.0,7.0710678118654755,9.0,10.0,7.0,19.026297590440446,12.0,11.0,7.0,6.0,0.5,12.5,4.5,2.5,2.23606797749979,2.0,2.0,12.0,12.0,12.0,88.0056816347672,87.0,84.00595217006948,78.02563681252464
215,46,464,0,19.352666666666725,5.0,36.0,3.0,7.0,10.0,11.0,7.0,22.0,15.0,12.5,7.0,7.0,0.0,15.0,7.0,2.0,3.0,2.23606797749979,2.0,12.0,12.0,12.041594578792296,88.0056816347672,86.00581375697809,82.0,77.0
216,46,465,0,19.394375000000057,5.0990195135927845,36.0,3.0,7.0,11.0,11.0,7.0,22.02271554554524,15.033296378372908,12.5,7.0,7.0,0.0,15.0,7.0,2.0,3.0,3.0,3.0,12.0,12.0,12.0,89.0,87.0,82.00609733428362,77.0
217,46,466,0,19.43608333333339,4.0,35.0,3.0,7.0,10.0,11.0,7.0,21.0,14.0,12.0,7.0,7.0,0.0,14.0,7.0,2.0,3.1622776601683795,3.0,3.0,12.0,12.0,11.0,88.02272433866155,86.02325267042627,82.02438661763951,78.02563681252464
218,46,467,0,19.47779166666672,4.0,34.0,3.0,7.0,10.0,11.0,7.0,21.0,14.0,12.0,7.0,7.0,0.0,14.0,7.0,2.0,4.0,3.1622776601683795,3.5,11.0,11.0,11.0,87.00574693662483,86.00581375697809,82.02438661763951,78.00640999302557
219,46,468,0,19.51950000000005,2.0,35.0,3.0,7.0,10.0,11.0,6.0,18.0,11.0,10.0,6.0,6.0,0.0,12.0,5.0,3.0,3.0,2.0,2.0,12.0,12.0,12.041594578792296,89.08984229416954,87.05170877128145,84.0535543567314,80.05623023850174
220,46,469,0,19.561208333333383,3.0,35.0,3.0,7.0,10.0,11.0,6.0,19.0,12.0,10.5,7.0,7.0,1.0,12.0,5.0,2.0,2.0,2.0,1.5,12.0,11.0,13.0,88.09086218218096,86.05230967266364,84.02380615040002,79.02531240052139
221,46,470,0,19.60291666666672,4.0,34.0,2.0,7.0,10.0,10.0,7.0,20.0,13.0,11.0,7.0,7.0,0.0,13.0,5.0,2.0,2.0,3.0,2.5,12.0,11.0,11.0,88.05112151472007,86.05230967266364,83.02409288875127,78.02563681252464
222,46,471,0,19.64462500000005,4.0,34.0,2.0,7.0,10.0,10.0,7.0,20.0,13.0,11.0,7.0,7.0,0.0,13.0,5.0,2.0,2.0,3.0,2.5,12.0,11.0,11.0,88.05112151472007,86.05230967266364,83.02409288875127,78.02563681252464
223,46,472,0,19.686333333333383,2.0,34.0,3.1622776601683795,7.0,9.055385138137417,10.0,8.0,20.024984394500787,13.038404810405298,12.0,8.0,8.0,0.0,12.0,5.0,3.0,2.0,2.0,2.0,11.0,12.0,12.0,86.09297300012354,85.05292469985967,82.02438661763951,77.05841939723393
224,46,473,0,19.72804166666672,2.23606797749979,34.0,2.0,6.0,9.0,10.0,8.0,18.027756377319946,12.041594578792296,11.0,8.0,8.0,0.0,10.0,3.0,2.0,2.0,2.0,2.0,11.0,12.0,12.0,87.09190547921202,85.09406559801923,82.09750300709517,76.05918747922567
225,46,474,0,19.769750000000048,2.23606797749979,36.013886210738214,3.0,7.0,10.0,10.0,8.0,20.024984394500787,13.038404810405298,12.0,9.0,8.0,0.5,11.5,3.5,1.5,2.0,1.0,1.0,11.0,12.0,13.0,88.05112151472007,86.09297300012354,82.05485969764375,77.05841939723393
226,46,475,0,19.81145833333338,2.23606797749979,36.013886210738214,3.0,7.0,10.0,10.0,8.0,20.024984394500787,13.038404810405298,12.0,9.0,8.0,0.5,11.5,3.5,1.5,2.0,1.0,1.0,11.0,12.0,13.0,88.05112151472007,86.09297300012354,82.05485969764375,77.05841939723393
227,46,476,0,19.85316666666672,2.0,36.013886210738214,2.0,7.0,10.04987562112089,11.0,8.0,19.0,12.0,11.0,9.0,8.0,0.5,10.5,2.5,0.5,4.0,3.1622776601683795,3.5,12.0,13.0,13.0,89.00561780022652,88.0056816347672,84.02380615040002,78.02563681252464
228,46,477,0,19.894875000000045,3.0,35.05709628591621,2.0,7.0,10.0,11.0,8.0,20.0,13.0,11.5,11.0,9.0,2.0,10.0,2.0,0.0,4.123105625617661,4.123105625617661,4.0,12.0,13.0,14.035668847618199,89.02246907382428,88.09086218218096,84.09518416651456,79.1580697086532
229,46,478,0,19.936583333333378,3.0,35.05709628591621,3.0,7.0,10.04987562112089,12.041594578792296,7.0,20.0,13.0,11.5,11.0,9.0,3.0,10.0,3.0,1.0,5.0,4.0,4.5,12.0,13.0,14.035668847618199,89.00561780022652,89.00561780022652,85.05292469985967,80.15609770940699
230,46,479,0,19.97829166666671,3.0,35.05709628591621,3.0,7.0,10.04987562112089,11.045361017187261,7.0,20.0,13.0,11.5,11.0,9.0,3.0,10.0,3.0,1.0,4.123105625617661,4.123105625617661,3.5,11.0,13.0,14.035668847618199,89.0,88.0056816347672,85.0235261559999,80.09993757800315
231,46,480,0,20.02000000000004,6.082762530298219,34.23448553724738,3.0,7.0710678118654755,9.055385138137417,10.198039027185569,7.0,23.0,16.0312195418814,13.0,12.0,8.0,3.0,13.0,6.0,1.0,4.0,4.123105625617661,4.0,13.0,15.0,13.038404810405298,91.02197536858887,90.00555538409837,86.09297300012354,81.2219182240853
232,46,481,0,20.06170833333337,7.0710678118654755,32.2490309931942,3.0,7.0,9.055385138137417,10.198039027185569,7.0710678118654755,24.0,17.0,13.5,12.0,8.0,3.0,14.0,7.0,1.0,4.0,5.0990195135927845,5.0,12.0,15.0,15.132745950421556,89.00561780022652,88.09086218218096,84.29116205154607,79.51100552753688
233,46,482,0,20.103416666666707,4.123105625617661,31.144823004794873,4.0,7.0710678118654755,9.055385138137417,9.055385138137417,7.0,22.0,15.033296378372908,13.0,12.0,9.0,3.5,11.5,4.5,0.5,5.0,4.0,4.5,11.0,15.0,15.132745950421556,90.0,89.08984229416954,85.28774824088158,79.51100552753688
234,46,483,0,20.14512500000004,4.123105625617661,31.144823004794873,4.0,7.0710678118654755,9.055385138137417,9.055385138137417,7.0,22.0,15.033296378372908,13.0,12.0,9.0,3.5,11.5,4.5,0.5,5.0,4.0,4.5,11.0,15.0,15.132745950421556,90.0,89.08984229416954,85.28774824088158,79.51100552753688
235,46,484,0,20.18683333333337,1.0,32.38826948140329,3.0,7.0710678118654755,8.06225774829855,9.219544457292887,7.0,18.027756377319946,11.0,10.5,13.0,8.0,3.5,7.5,0.5,1.5,4.0,4.123105625617661,4.0,11.0,15.0,14.142135623730951,90.0499861188218,90.27181176868004,87.5728268357257,82.03657720797473
236,46,485,0,20.228541666666704,1.0,30.4138126514911,4.0,7.0,9.219544457292887,9.219544457292887,7.0710678118654755,19.026297590440446,12.041594578792296,11.5,13.0,8.0,3.5,8.5,2.5,1.5,5.0,5.0990195135927845,5.0,11.0,16.0,14.035668847618199,82.21921916437786,83.38465086573187,80.62257748298549,73.97972695272672
237,46,486,0,20.27025000000004,1.0,32.55764119219941,3.0,8.06225774829855,9.055385138137417,9.219544457292887,7.0,19.026297590440446,11.0,10.5,13.0,7.0,3.0,9.0,2.0,1.0,4.0,4.123105625617661,4.0,10.0,14.0,13.152946437965905,91.0494371207203,90.27181176868004,87.5728268357257,82.03657720797473
238,46,487,0,20.31195833333337,2.0,31.400636936215164,3.0,7.0710678118654755,9.055385138137417,9.219544457292887,7.0,19.026297590440446,12.0,11.0,13.0,8.0,3.5,8.5,1.5,1.5,4.0,5.0990195135927845,5.0,10.0,15.0,15.297058540778355,91.0494371207203,89.20201791439474,87.5728268357257,82.03657720797473
239,46,488,0,20.3536666666667,3.0,32.2490309931942,3.0,8.0,10.04987562112089,10.198039027185569,7.0,21.0,13.0,11.5,13.0,9.0,4.0,10.0,2.0,2.0,5.0,5.0990195135927845,4.5,11.0,15.0,15.132745950421556,91.0494371207203,90.13878188659973,86.46964785403026,80.62257748298549
240,46,489,0,20.39537500000004,3.0,34.36568055487916,3.0,7.0710678118654755,10.04987562112089,10.198039027185569,7.0,20.024984394500787,13.0,11.5,14.0,9.0,4.5,8.5,1.5,2.5,5.0,5.0990195135927845,5.0,11.0,15.0,16.1245154965971,91.0494371207203,91.26883367283708,86.57944328765345,82.87339742040264
241,46,490,0,20.43708333333337,4.123105625617661,34.36568055487916,3.1622776601683795,8.06225774829855,10.04987562112089,11.180339887498949,7.0,22.02271554554524,14.0,12.0,14.0,9.0,4.5,10.5,3.5,2.5,4.0,4.123105625617661,4.5,11.0,15.0,15.297058540778355,91.08786966440702,89.1403387922662,85.37564055396598,80.62257748298549
242,46,491,0,20.47879166666669,4.123105625617661,34.36568055487916,3.1622776601683795,8.06225774829855,10.04987562112089,11.180339887498949,7.0,22.02271554554524,14.0,12.0,14.0,9.0,4.5,10.5,2.5,2.5,5.0,4.123105625617661,4.5,11.0,15.0,15.132745950421556,91.08786966440702,90.19977827023745,85.37564055396598,79.63039620647382
243,46,492,0,20.52050000000003,7.0,34.23448553724738,4.0,7.0,10.04987562112089,11.180339887498949,7.0,25.0,18.0,14.5,13.0,9.0,4.0,14.0,7.0,1.0,5.0,5.0990195135927845,5.0,12.0,16.0,15.132745950421556,88.14193099768123,87.14355971613737,83.2946576918352,78.40918313565064
244,46,493,0,20.562208333333363,5.0,35.12833614050059,4.0,7.0,10.0,11.045361017187261,7.0,23.0,16.0,13.5,12.0,9.0,3.5,12.5,5.5,0.5,5.0,5.0990195135927845,5.0,10.0,14.0,14.142135623730951,92.13576938409967,89.1403387922662,85.21150157109074,79.30952023559341
245,46,494,0,20.60391666666669,6.0,35.12833614050059,3.0,7.0710678118654755,10.0,11.045361017187261,8.06225774829855,24.08318915758459,17.029386365926403,14.0,13.0,10.0,3.5,12.5,4.5,0.5,5.0,5.0990195135927845,5.5,11.0,15.0,14.142135623730951,87.14355971613737,86.20904824900923,83.21658488546619,78.31347265956222
246,46,495,0,20.645625000000027,6.0,35.12833614050059,3.0,7.0710678118654755,10.0,11.045361017187261,8.06225774829855,24.08318915758459,17.029386365926403,14.0,13.0,10.0,3.5,12.5,4.5,0.5,5.0,5.0990195135927845,5.5,11.0,15.0,14.142135623730951,87.14355971613737,86.20904824900923,83.21658488546619,78.31347265956222
247,46,496,0,20.68733333333336,3.0,34.0147027033899,3.0,7.0,10.0,11.0,8.06225774829855,21.02379604162864,14.035668847618199,12.5,11.0,10.0,2.5,10.5,2.5,0.5,4.0,5.0990195135927845,4.5,11.0,13.0,13.038404810405298,88.20430828479978,86.14522621712709,82.21921916437786,78.23042886243178
248,46,497,0,20.72904166666669,3.0,34.0147027033899,2.0,7.0,10.0,11.0,8.06225774829855,20.024984394500787,13.038404810405298,11.5,10.0,9.0,1.5,10.5,3.5,0.5,4.0,4.123105625617661,4.5,11.0,14.0,12.165525060596439,88.09086218218096,87.14355971613737,83.15046602394962,79.1580697086532
249,46,498,0,20.770750000000024,3.1622776601683795,35.014282800023196,2.23606797749979,7.0710678118654755,9.0,10.0,8.0,20.024984394500787,13.0,11.5,10.0,9.0,1.5,10.5,2.5,0.5,4.0,4.123105625617661,4.5,11.0,14.0,13.038404810405298,86.28441342444185,86.20904824900923,82.21921916437786,78.23042886243178
250,46,499,0,20.81245833333336,3.1622776601683795,35.014282800023196,2.23606797749979,7.0710678118654755,9.0,10.0,8.0,20.024984394500787,13.0,11.5,10.0,9.0,1.5,10.5,2.5,0.5,4.0,4.123105625617661,4.5,11.0,14.0,13.038404810405298,86.28441342444185,86.20904824900923,82.21921916437786,78.23042886243178
251,46,500,0,20.85416666666669,2.0,35.05709628591621,3.1622776601683795,7.0710678118654755,10.04987562112089,11.0,7.0,19.1049731745428,12.041594578792296,11.0,10.0,8.0,2.0,10.0,3.0,0.0,4.0,4.0,4.0,11.0,14.0,14.035668847618199,85.28774824088158,85.28774824088158,82.29823813423954,78.31347265956222
252,46,501,0,20.89587500000002,4.0,34.132096331752024,2.0,6.082762530298219,10.04987562112089,10.04987562112089,8.06225774829855,20.09975124224178,14.035668847618199,12.0,11.0,8.0,1.5,10.5,3.5,0.5,5.0990195135927845,5.0990195135927845,5.0,11.0,14.0,15.033296378372908,88.09086218218096,86.09297300012354,82.15229759416349,78.23042886243178
253,46,502,0,20.93758333333336,4.0,34.132096331752024,3.0,7.0,10.04987562112089,11.0,8.06225774829855,22.02271554554524,15.033296378372908,13.0,12.0,9.0,2.5,11.5,4.5,0.5,5.0,5.0,4.5,12.0,14.0,13.038404810405298,89.02246907382428,87.09190547921202,83.09632964216891,78.16009211867653
254,46,503,0,20.97929166666669,4.0,35.12833614050059,3.1622776601683795,7.0,11.045361017187261,11.0,8.0,22.02271554554524,15.033296378372908,13.0,12.0,9.0,2.5,11.5,4.5,0.5,5.0,5.0990195135927845,4.5,11.0,13.0,15.033296378372908,89.02246907382428,87.05170877128145,83.09632964216891,78.16009211867653
255,46,504,0,21.02100000000002,2.23606797749979,30.01666203960727,4.123105625617661,8.06225774829855,6.0,7.0,11.180339887498949,25.495097567963924,17.46424919657298,16.0,14.0,15.0,3.5,10.5,2.5,0.5,5.0990195135927845,5.0,5.0,18.0,15.0,14.142135623730951,100.71742649611338,102.12247548899312,100.0,92.19544457292888
256,46,505,0,21.06270833333335,2.23606797749979,30.01666203960727,4.123105625617661,7.0710678118654755,7.0,8.0,11.045361017187261,24.331050121192877,17.26267650163207,16.0,14.0,15.0,3.5,9.5,1.5,0.5,5.0,4.0,4.0,18.0,15.0,13.152946437965905,97.62171889492625,97.12878049270464,96.00520819205592,89.20201791439474
257,46,506,0,21.104416666666683,2.23606797749979,29.017236257093817,5.0990195135927845,7.0710678118654755,7.0,8.0,10.04987562112089,24.331050121192877,17.26267650163207,16.0,13.0,14.0,3.5,10.5,2.5,0.5,5.0990195135927845,5.0990195135927845,5.0,18.0,14.0,13.152946437965905,95.88534820294495,96.18731725128839,95.00526301210897,89.1403387922662
258,46,507,0,21.146125000000016,3.1622776601683795,28.0178514522438,5.0990195135927845,9.055385138137417,6.082762530298219,8.0,10.198039027185569,27.459060435491963,18.439088914585774,16.5,14.0,15.0,4.5,12.5,2.5,0.5,4.123105625617661,4.0,4.0,19.0,15.0,13.152946437965905,102.1077861869505,103.31021246711285,102.0196059588548,95.08417323613851
259,46,508,0,21.187833333333348,4.123105625617661,27.073972741361768,4.123105625617661,9.055385138137417,7.0,8.0,10.198039027185569,27.459060435491963,18.439088914585774,16.0,14.0,16.0,5.0,12.0,2.0,1.0,5.0990195135927845,5.0,5.0,18.0,15.0,15.033296378372908,100.2845950283492,101.31633629380802,98.04590761474952,89.05054744357274
260,46,509,0,21.22954166666668,4.123105625617661,30.14962686336267,5.0990195135927845,9.055385138137417,7.0710678118654755,8.06225774829855,10.04987562112089,28.284271247461902,19.235384061671343,17.0,14.0,17.0,5.5,12.5,2.5,0.5,4.123105625617661,5.0,5.0,19.0,16.0,13.152946437965905,101.96568050084302,102.3132444994293,101.01980003939822,93.04837451562494
261,46,510,0,21.271250000000013,4.123105625617661,31.144823004794873,5.0990195135927845,9.055385138137417,7.0710678118654755,9.055385138137417,9.219544457292887,27.459060435491963,18.439088914585774,16.0,13.0,16.0,5.5,12.5,3.5,0.5,4.0,4.0,4.5,20.0,17.0,14.142135623730951,102.95630140987001,104.23531071570709,103.0,95.08417323613851
262,46,511,0,21.312958333333345,3.1622776601683795,33.13608305156178,4.0,9.055385138137417,8.06225774829855,9.0,9.219544457292887,25.317977802344327,16.278820596099706,14.5,12.0,15.0,4.5,11.5,1.5,0.5,5.0990195135927845,5.0,5.0,20.0,17.0,14.142135623730951,100.84145972763385,102.23991392797629,100.00499987500625,93.08598175880189
263,46,512,0,21.35466666666668,2.0,30.01666203960727,4.123105625617661,10.04987562112089,8.0,9.0,9.219544457292887,25.317977802344327,15.297058540778355,14.0,12.0,13.0,3.5,12.5,2.5,0.5,4.0,5.0,5.0,18.0,16.0,14.035668847618199,103.81714694596457,104.23531071570709,103.00485425454472,94.08506789071261
264,46,513,0,21.39637500000001,2.0,31.064449134018133,4.123105625617661,9.055385138137417,8.0,9.0,9.055385138137417,24.186773244895647,15.132745950421556,14.0,13.0,15.0,5.0,10.0,0.0,1.0,4.123105625617661,5.0,5.0,19.0,17.0,15.132745950421556,102.82509421342633,104.23531071570709,103.0,94.08506789071261
265,46,514,0,21.438083333333346,1.0,29.017236257093817,5.0990195135927845,9.055385138137417,7.0,9.055385138137417,8.06225774829855,23.194827009486403,14.142135623730951,13.5,13.0,14.0,5.5,9.5,0.5,1.5,4.0,5.0,5.0,19.0,16.0,15.132745950421556,102.59142264341595,103.12128781197411,102.0,94.19129471453293
266,46,515,0,21.479791666666674,3.0,28.0178514522438,4.0,9.055385138137417,8.0,9.055385138137417,8.06225774829855,24.08318915758459,15.033296378372908,13.5,14.0,15.0,6.5,9.5,0.5,2.5,4.123105625617661,4.0,4.0,19.0,16.0,16.1245154965971,100.4987562112089,101.07917688624102,100.00499987500625,92.19544457292888
267,46,516,0,21.521500000000007,4.123105625617661,27.073972741361768,5.0990195135927845,10.04987562112089,7.0710678118654755,8.0,9.055385138137417,28.071337695236398,18.027756377319946,16.0,15.0,17.0,7.0,12.0,1.0,2.0,4.123105625617661,5.0,5.0,19.0,16.0,15.132745950421556,101.83319694480774,102.23991392797629,100.0,92.13576938409967
268,46,517,0,21.56320833333334,1.4142135623730951,30.01666203960727,5.0990195135927845,9.0,8.0,9.0,10.0,25.079872407968907,16.1245154965971,15.5,15.0,16.0,5.5,9.5,0.5,0.5,4.123105625617661,5.0,5.0,19.0,15.0,15.033296378372908,101.96568050084302,103.31021246711285,101.00495037373169,93.08598175880189
269,46,518,0,21.60491666666667,1.0,30.066592756745816,4.123105625617661,9.055385138137417,9.0,9.0,11.0,25.079872407968907,16.0312195418814,15.5,15.0,17.0,5.0,9.0,0.0,1.0,5.0990195135927845,4.0,4.5,20.0,16.0,15.033296378372908,102.1077861869505,102.39628899525607,101.04454463255303,93.02150289046077
270,46,519,0,21.646625000000004,3.0,29.017236257093817,5.0990195135927845,9.0,8.06225774829855,9.0,9.055385138137417,26.076809620810597,17.11724276862369,15.5,16.0,15.0,6.5,10.5,0.5,2.5,5.0990195135927845,5.0,5.0,19.0,15.0,14.142135623730951,101.83319694480774,102.17631819555841,100.0,93.13431161500041
271,46,520,0,21.688333333333336,6.0,29.017236257093817,4.123105625617661,9.055385138137417,8.0,8.0,8.0,27.073972741361768,18.027756377319946,15.0,17.0,16.0,8.5,10.5,1.5,4.5,5.385164807134504,4.0,4.5,20.0,16.0,15.132745950421556,101.71037311896953,103.12128781197411,101.00495037373169,92.19544457292888
272,46,521,0,21.73004166666667,3.0,29.0,4.0,8.06225774829855,9.0,9.0,8.0,23.021728866442675,15.0,13.5,14.0,14.0,6.0,9.0,0.0,2.0,5.385164807134504,4.0,4.0,21.0,17.0,16.278820596099706,106.92053123698928,108.16653826391968,106.0,99.24716620639605
273,46,522,0,21.77175,1.4142135623730951,30.0,5.0,9.055385138137417,8.0,8.0,9.0,24.08318915758459,15.033296378372908,14.5,15.0,15.0,6.0,9.0,0.0,2.0,5.0990195135927845,4.123105625617661,4.0,21.0,16.0,16.1245154965971,108.04628637764465,108.29589096544707,107.00467279516349,100.12492197250393
274,46,523,0,21.813458333333333,4.0,33.015148038438355,4.123105625617661,10.04987562112089,10.04987562112089,11.045361017187261,9.0,27.073972741361768,17.029386365926403,15.0,15.0,16.0,6.5,11.5,1.5,2.5,5.0990195135927845,4.0,4.5,21.0,16.0,16.1245154965971,109.89540481748998,110.16351483136329,109.0,100.24470060806208
275,46,524,0,21.855166666666666,4.0,33.0,4.123105625617661,10.04987562112089,9.0,10.0,8.0,26.076809620810597,16.0312195418814,14.0,15.0,15.0,7.0,11.0,1.0,3.0,4.123105625617661,4.0,3.5,20.0,15.0,16.0312195418814,104.6900186264192,105.17128885774862,104.00480758118829,97.12878049270464
276,46,525,0,21.896875,5.0,33.0,4.123105625617661,9.055385138137417,10.0,10.04987562112089,8.0,26.076809620810597,17.029386365926403,14.5,14.0,14.0,6.0,12.0,3.0,2.0,3.0,3.0,3.0,21.0,17.0,17.11724276862369,106.56922632730333,107.11675872616759,105.00476179678711,99.24716620639605
277,46,526,0,21.93858333333333,4.123105625617661,35.0,5.0,9.055385138137417,10.0,11.045361017187261,8.0,26.076809620810597,17.029386365926403,15.0,15.0,15.0,7.0,11.0,2.0,3.0,3.1622776601683795,3.0,3.0,20.0,16.0,18.110770276274835,101.31633629380802,103.01941564578979,101.01980003939822,94.26027795418386
278,46,527,0,21.980291666666663,4.123105625617661,36.013886210738214,5.0,9.055385138137417,10.0,11.045361017187261,8.0,26.076809620810597,17.029386365926403,15.0,14.0,15.0,6.5,11.5,2.5,2.5,3.1622776601683795,3.0,3.0,20.0,17.0,17.029386365926403,103.39245620450265,105.07616285342742,104.01922899156675,96.18731725128839
279,46,528,0,22.021999999999995,3.0,36.0,5.0990195135927845,9.055385138137417,10.0,11.045361017187261,9.0,26.076809620810597,17.029386365926403,15.5,15.0,15.0,6.0,11.0,1.0,2.0,3.0,3.0,3.5,19.0,16.0,18.110770276274835,101.31633629380802,103.07764064044152,101.00495037373169,93.1933474020544
280,46,529,0,22.063708333333327,4.123105625617661,35.0,5.0990195135927845,9.0,11.0,11.0,9.0,27.073972741361768,18.110770276274835,16.0,15.0,15.0,6.0,12.0,3.0,2.0,5.0990195135927845,4.0,4.0,18.0,16.0,17.029386365926403,102.23991392797629,104.01922899156675,101.01980003939822,94.19129471453293
281,46,530,0,22.10541666666666,5.0990195135927845,36.013886210738214,4.0,8.0,11.0,12.041594578792296,9.055385138137417,26.076809620810597,18.110770276274835,15.5,16.0,15.0,6.5,10.5,1.5,2.5,3.1622776601683795,3.0,3.0,19.0,16.0,18.0,109.16501271011697,110.01818031580054,108.04165863221463,101.31633629380802
282,46,531,0,22.147124999999992,4.0,36.0,4.0,9.0,11.0,11.0,8.0,25.0,16.0,14.0,14.0,14.0,6.0,11.0,1.0,2.0,3.0,3.1622776601683795,3.0,17.0,15.0,19.026297590440446,105.23307464861035,106.01886624558857,104.0768946500615,98.41239759298622
283,46,532,0,22.188833333333324,3.0,36.05551275463989,5.0,9.0,10.0,11.045361017187261,8.0,25.0,16.0,14.5,15.0,13.0,6.0,11.0,2.0,2.0,5.0990195135927845,4.0,4.0,19.0,16.0,19.0,107.16809226630845,107.00467279516349,106.07544484940895,98.41239759298622
284,46,533,0,22.230541666666657,1.0,36.013886210738214,6.0,9.0,11.045361017187261,11.045361017187261,9.0,25.0,16.0,15.5,15.0,14.0,5.5,10.5,0.5,1.5,4.123105625617661,3.0,3.0,18.0,16.0,18.0,103.1746092796091,105.01904589168576,102.04410811016969,96.18731725128839
285,46,534,0,22.27224999999999,3.0,37.013511046643494,5.0990195135927845,9.055385138137417,11.0,12.041594578792296,9.055385138137417,26.019223662515376,17.0,15.5,16.0,15.0,6.5,10.5,0.5,1.5,3.1622776601683795,3.0,3.0,18.0,16.0,18.0,105.23307464861035,106.01886624558857,104.01922899156675,97.12878049270464
286,46,535,0,22.31395833333332,4.123105625617661,37.013511046643494,5.0,9.0,11.045361017187261,12.041594578792296,9.0,27.018512172212592,18.027756377319946,16.0,15.0,14.0,5.5,12.5,2.5,1.5,4.0,4.0,4.0,18.0,16.0,18.0,107.16809226630845,107.01868995647442,104.01922899156675,98.12746812182611
287,46,536,0,22.355666666666654,4.0,38.0,4.123105625617661,9.0,11.0,12.041594578792296,9.055385138137417,26.0,17.0,15.0,15.0,15.0,6.0,11.0,2.0,2.0,4.123105625617661,4.0,4.0,17.0,16.0,19.0,106.1178590059185,106.00471687618433,103.01941564578979,96.18731725128839
288,46,537,0,22.397374999999982,4.0,38.01315561749642,4.0,9.0,12.041594578792296,12.0,9.0,26.0,17.0,15.0,15.0,14.0,5.5,11.5,1.5,2.5,4.123105625617661,4.0,3.5,17.0,16.0,18.0,104.01922899156675,105.00476179678711,103.12128781197411,95.33624704172071
289,46,538,0,22.43908333333332,2.23606797749979,37.013511046643494,5.0,9.0,11.0,12.041594578792296,9.055385138137417,25.0,16.0,15.0,15.0,14.0,5.5,10.5,0.5,1.5,4.123105625617661,4.0,4.0,17.0,16.0,17.0,106.07544484940895,106.0,103.04368005850722,96.25487000666512
290,46,539,0,22.48079166666665,1.0,38.05259518088089,5.0,10.0,11.0,12.041594578792296,10.04987562112089,26.019223662515376,16.0312195418814,15.5,16.0,14.0,5.0,11.0,0.0,1.0,4.123105625617661,4.123105625617661,3.5,17.0,16.0,18.0,109.16501271011697,109.01834707974616,105.01904589168576,100.17983829094555
291,46,540,0,22.522499999999983,1.0,38.01315561749642,5.0,10.0,10.0,11.0,10.04987562112089,26.019223662515376,16.0312195418814,15.5,16.0,15.0,5.5,10.5,0.5,1.5,4.0,4.123105625617661,3.5,17.0,15.0,17.0,107.11675872616759,107.00467279516349,104.04326023342406,98.18350166906862
292,46,541,0,22.564208333333315,1.0,38.01315561749642,5.0,10.0,11.045361017187261,12.0,10.04987562112089,26.019223662515376,16.0312195418814,15.5,16.0,15.0,5.5,10.5,0.5,1.5,4.123105625617661,4.123105625617661,4.0,17.0,15.0,17.0,108.11567878897121,108.01851693112621,104.01922899156675,99.12618221237011
293,46,542,0,22.605916666666648,0.0,36.013886210738214,5.0,11.0,11.045361017187261,11.0,10.0,26.0,15.0,15.0,17.0,16.0,6.5,9.5,1.5,2.5,5.0990195135927845,4.0,4.0,18.0,16.0,17.0,109.16501271011697,108.04165863221463,105.01904589168576,98.04590761474952
294,46,543,0,22.64762499999998,0.0,36.013886210738214,5.0,10.0,10.0,11.0,11.0,26.0,16.0,16.0,17.0,16.0,5.5,9.5,0.5,1.5,4.0,4.0,4.0,17.0,15.0,18.0,108.11567878897121,107.0420478129973,103.0,97.04638066409278
295,46,544,0,22.689333333333312,1.0,35.0,5.0,9.0,10.0,10.04987562112089,11.0,25.019992006393608,16.0312195418814,16.0,16.0,16.0,5.0,9.0,0.0,1.0,4.123105625617661,4.0,4.0,17.0,14.0,17.0,109.16501271011697,108.04165863221463,105.0,98.04590761474952
296,46,545,0,22.731041666666645,1.0,36.013886210738214,5.0,10.0,10.0,11.045361017187261,11.0,26.019223662515376,16.0312195418814,16.0,17.0,16.0,5.5,9.5,0.5,0.5,4.0,4.0,4.0,16.0,14.0,17.029386365926403,109.07336980216573,108.01851693112621,104.00480758118829,98.04590761474952
297,46,546,0,22.772749999999977,0.0,35.0,5.0990195135927845,10.0,10.04987562112089,11.045361017187261,12.041594578792296,27.0,17.0,17.0,17.0,17.0,5.0,10.0,0.0,0.0,4.0,4.0,4.0,16.0,15.0,17.029386365926403,109.1146186356347,108.01851693112621,104.0,98.04590761474952
298,46,547,0,22.81445833333331,0.0,35.014282800023196,5.0990195135927845,10.0,10.04987562112089,10.04987562112089,12.041594578792296,27.0,17.0,17.0,18.0,17.0,5.5,9.5,0.5,1.5,5.0990195135927845,4.0,4.0,16.0,15.0,16.0,109.1146186356347,108.04165863221463,104.0,97.02061636580135
299,46,548,0,22.85616666666664,1.0,37.013511046643494,5.0,10.0,10.04987562112089,11.0,12.0,27.018512172212592,17.029386365926403,17.0,18.0,17.0,5.5,9.5,0.5,1.5,4.123105625617661,5.0,4.5,16.0,15.0,16.0,109.04127658827184,108.01851693112621,103.00485425454472,96.04686356149273
300,46,549,0,22.89787499999997,0.0,37.0,4.0,9.0,10.0,11.045361017187261,13.0,26.0,17.0,17.0,16.0,16.0,3.0,10.0,1.0,1.0,4.123105625617661,5.0,5.0,16.0,15.0,16.0,110.07270324653611,108.00462953040486,103.01941564578979,96.08329719571451
301,46,550,0,22.939583333333307,1.0,39.01281840626232,4.0,9.0,10.0,11.045361017187261,13.0,26.019223662515376,17.029386365926403,17.0,16.0,15.0,2.5,10.5,1.5,0.5,5.0990195135927845,4.0,4.0,15.0,14.0,16.0,110.04090148667449,109.0,104.04326023342406,98.12746812182611
302,46,551,0,22.98129166666664,0.0,40.01249804748511,4.0,9.0,11.045361017187261,12.041594578792296,12.041594578792296,25.019992006393608,16.0312195418814,16.0,15.0,14.0,2.5,10.5,1.5,0.5,4.0,4.0,4.0,16.0,15.0,18.0,110.07270324653611,109.01834707974616,105.00476179678711,98.08159868191383
303,46,552,0,23.02299999999997,1.0,42.04759208325728,4.0,9.055385138137417,11.045361017187261,11.180339887498949,12.0,25.0,16.0312195418814,16.0,15.0,13.0,2.0,11.0,2.0,1.0,4.0,4.0,3.5,15.0,15.0,17.0,109.07336980216573,108.00462953040486,106.00471687618433,99.04544411531506
304,46,553,0,23.064708333333304,1.0,38.01315561749642,5.0,9.055385138137417,11.0,11.045361017187261,11.045361017187261,26.076809620810597,17.029386365926403,16.5,16.0,15.0,4.5,10.5,1.5,0.5,4.0,4.0,4.0,16.0,16.0,18.0,110.11357772772621,110.04090148667449,105.0,98.08159868191383
305,46,554,0,23.10641666666664,5.0,38.01315561749642,5.0990195135927845,9.0,11.0,12.041594578792296,11.0,30.01666203960727,21.02379604162864,18.5,17.0,16.0,5.5,13.5,4.5,1.5,5.0,5.0990195135927845,5.0,17.0,16.0,18.0,109.16501271011697,108.07404868885037,104.0,98.02040603874276
306,46,555,0,23.14812499999997,7.0710678118654755,38.01315561749642,4.0,9.0,10.0,12.041594578792296,12.0,32.01562118716424,23.021728866442675,19.5,18.0,17.0,5.5,14.5,4.5,1.5,5.0990195135927845,5.0,5.0,18.0,17.0,17.0,109.16501271011697,108.04165863221463,104.0,97.04638066409278
307,46,556,0,23.1898333333333,6.0,39.01281840626232,4.0,10.04987562112089,10.0,11.045361017187261,12.041594578792296,32.0624390837628,22.02271554554524,19.0,18.0,17.0,5.5,14.5,4.5,1.5,5.0990195135927845,5.0990195135927845,5.0,19.0,18.0,20.0,112.11155159036913,111.01801655587259,107.00467279516349,100.12492197250393
308,46,557,0,23.23154166666664,5.0,38.05259518088089,6.0,10.0,10.0,11.045361017187261,11.045361017187261,32.01562118716424,22.02271554554524,19.5,18.0,16.0,6.0,15.0,5.0,0.0,5.0990195135927845,6.0,5.5,21.0,18.0,20.024984394500787,109.22453936730518,110.04090148667449,106.0,98.04590761474952
309,46,558,0,23.273249999999965,3.0,41.048751503547585,5.0,9.0,10.04987562112089,11.045361017187261,12.0,29.0,20.0,18.5,17.0,15.0,4.0,13.0,4.0,0.0,5.0,6.0,5.5,21.0,19.0,20.024984394500787,108.11567878897121,108.01851693112621,105.00476179678711,97.082439194738
310,46,559,0,23.314958333333298,1.0,39.05124837953327,4.0,7.0,10.04987562112089,11.045361017187261,12.0,24.0,17.0,16.5,16.0,14.0,3.0,9.0,2.0,0.0,5.0990195135927845,5.0,4.5,21.0,20.0,19.026297590440446,110.07270324653611,109.0,105.04284840006957,100.17983829094555
311,46,560,0,23.35666666666663,0.0,40.11234224026316,4.0,5.0,10.04987562112089,10.198039027185569,13.0,22.0,17.0,17.0,16.0,13.0,1.5,7.5,2.5,0.5,4.0,4.0,4.0,21.0,20.0,20.0,109.1146186356347,109.01834707974616,105.01904589168576,99.18165152889924
312,46,561,0,23.39837499999996,0.0,41.10960958218893,4.0,5.0,10.04987562112089,11.045361017187261,13.0,22.0,17.0,17.0,17.0,14.0,2.5,6.5,1.5,0.5,5.0,5.0,4.5,22.0,20.0,18.0,108.07404868885037,108.00462953040486,105.01904589168576,99.18165152889924
313,46,562,0,23.44008333333329,0.0,41.10960958218893,4.0,5.0990195135927845,10.198039027185569,11.045361017187261,13.0,22.02271554554524,17.0,17.0,16.0,13.0,1.5,7.5,2.5,0.5,5.0990195135927845,5.0,5.0,22.0,21.0,19.0,110.04090148667449,110.00454536063498,106.04244433244644,100.24470060806208
314,46,563,0,23.481791666666627,1.0,42.190046219457976,4.0,5.0,10.04987562112089,11.045361017187261,12.0,21.02379604162864,16.0312195418814,16.0,16.0,12.0,2.0,7.0,2.0,1.0,6.082762530298219,5.0,5.0,21.0,21.0,21.02379604162864,108.04165863221463,108.00462953040486,106.04244433244644,99.18165152889924
315,46,564,0,23.52349999999996,1.0,43.18564576337837,4.0,5.0,11.045361017187261,11.180339887498949,11.0,21.0,16.0,15.5,15.0,11.0,2.0,8.0,3.0,1.0,4.123105625617661,4.0,4.0,21.0,20.0,19.0,110.04090148667449,110.0,106.04244433244644,100.17983829094555
316,46,565,0,23.56520833333329,1.0,42.190046219457976,5.0990195135927845,7.0,11.045361017187261,11.180339887498949,11.045361017187261,24.0,17.0,16.5,16.0,12.0,3.0,10.0,3.0,1.0,5.0,5.0,4.5,20.0,21.0,20.024984394500787,110.07270324653611,111.0,107.07474025184464,101.31633629380802
317,46,566,0,23.606916666666624,5.0,43.18564576337837,4.0,8.0,12.041594578792296,13.038404810405298,13.0,30.0,22.0,19.5,17.0,13.0,2.0,15.0,7.0,1.0,4.123105625617661,4.0,4.0,18.0,19.0,19.026297590440446,111.07204868912791,111.0,107.0420478129973,101.24228365658294
318,46,567,0,23.64862499999996,8.0,43.104524124504614,4.0,8.0,12.041594578792296,12.165525060596439,11.0,31.0,23.0,19.0,16.0,13.0,3.5,16.5,8.5,0.5,4.123105625617661,4.0,4.0,16.0,17.0,18.027756377319946,111.07204868912791,111.00450441310929,106.01886624558857,100.12492197250393
319,46,568,0,23.69033333333329,9.0,43.104524124504614,3.0,8.0,12.165525060596439,12.165525060596439,11.045361017187261,31.016124838541646,23.021728866442675,18.5,15.0,12.0,2.5,17.5,9.5,0.5,4.0,4.0,4.0,16.0,17.0,18.110770276274835,112.0714058089752,110.00454536063498,105.01904589168576,100.17983829094555
320,46,569,0,23.73204166666662,8.0,42.190046219457976,3.0,7.0,11.045361017187261,12.041594578792296,11.045361017187261,29.017236257093817,22.02271554554524,18.0,14.0,10.0,1.0,17.0,10.0,1.0,5.0990195135927845,4.0,4.0,15.0,16.0,17.029386365926403,112.11155159036913,110.01818031580054,106.00471687618433,100.12492197250393
321,46,570,0,23.77374999999996,6.082762530298219,42.190046219457976,4.0,8.06225774829855,11.045361017187261,13.152946437965905,9.0,27.0,19.026297590440446,16.0,14.0,10.0,3.0,15.0,7.0,0.0,3.0,3.0,3.5,14.0,16.0,18.027756377319946,111.07204868912791,110.00454536063498,106.00471687618433,99.12618221237011
322,46,571,0,23.81545833333329,4.0,41.10960958218893,4.0,9.0,12.041594578792296,12.165525060596439,9.0,26.0,17.0,15.0,13.0,10.0,2.5,14.5,5.5,0.5,4.0,3.0,3.0,14.0,16.0,18.027756377319946,112.0714058089752,111.00450441310929,107.01868995647442,100.12492197250393
323,46,572,0,23.85716666666662,5.0,41.19465984809196,3.0,8.06225774829855,13.038404810405298,13.152946437965905,8.06225774829855,24.0,16.0312195418814,13.5,14.0,10.0,4.0,12.0,4.0,2.0,3.0,3.0,2.5,14.0,16.0,19.026297590440446,110.01818031580054,109.0,105.07616285342742,98.18350166906862
324,46,573,0,23.89887499999995,4.123105625617661,42.190046219457976,4.0,9.055385138137417,12.041594578792296,13.152946437965905,8.0,25.0,16.0312195418814,14.0,15.0,11.0,5.0,12.0,3.0,3.0,4.0,4.123105625617661,3.5,14.0,16.0,20.09975124224178,112.0044641967453,110.00454536063498,105.11898020814318,99.32270636667126
325,46,574,0,23.940583333333283,4.0,40.19950248448356,4.0,9.0,12.165525060596439,13.152946437965905,8.0,25.0,16.0,14.0,15.0,11.0,5.0,12.0,3.0,3.0,3.0,3.1622776601683795,2.5,13.0,15.0,19.1049731745428,113.01769772916099,110.0,106.07544484940895,99.24716620639605
326,46,575,0,23.98229166666661,5.0,41.19465984809196,3.0,9.055385138137417,12.041594578792296,13.152946437965905,8.0,25.019992006393608,16.0,13.5,15.0,11.0,5.0,12.0,4.0,3.0,3.1622776601683795,2.0,2.5,14.0,16.0,19.026297590440446,112.0044641967453,110.01818031580054,105.17128885774862,98.41239759298622
327,46,576,0,24.023999999999948,6.082762530298219,41.19465984809196,4.0,9.055385138137417,13.038404810405298,14.317821063276353,9.0,28.0,19.026297590440446,16.0,15.0,11.0,4.0,15.0,6.0,1.0,3.0,2.0,2.5,14.0,16.0,18.110770276274835,111.00450441310929,110.01818031580054,105.17128885774862,99.40824915468535
328,46,577,0,24.06570833333328,4.123105625617661,39.11521443121589,4.0,9.0,13.038404810405298,13.152946437965905,10.04987562112089,27.0,18.0,16.0,16.0,13.0,4.5,12.5,3.5,1.5,3.0,3.0,3.0,13.0,16.0,18.027756377319946,107.01868995647442,107.07474025184464,102.23991392797629,96.42095207992918
329,46,578,0,24.10741666666661,2.0,40.11234224026316,4.0,9.0,12.041594578792296,12.041594578792296,10.0,25.0,16.0,15.0,17.0,14.0,5.5,9.5,0.5,2.5,4.0,3.0,3.0,14.0,16.0,19.026297590440446,110.00454536063498,109.01834707974616,104.0768946500615,98.2496819333274
330,46,579,0,24.149124999999945,1.4142135623730951,37.05401462729781,4.0,9.055385138137417,11.045361017187261,12.041594578792296,10.0,24.0,15.033296378372908,14.5,16.0,14.0,5.0,9.0,0.0,2.0,4.0,4.123105625617661,4.0,14.0,16.0,19.026297590440446,111.00450441310929,109.00458705944443,104.12012293500234,97.25224933131366
331,46,580,0,24.19083333333328,1.0,38.118237105091836,4.0,9.0,12.041594578792296,12.041594578792296,11.0,25.0,16.0,15.5,17.0,14.0,4.5,9.5,0.5,2.5,4.0,3.1622776601683795,3.0,14.0,16.0,18.027756377319946,111.00450441310929,109.01834707974616,104.12012293500234,97.32933781753577
332,46,581,0,24.23254166666661,1.0,39.11521443121589,4.0,10.04987562112089,12.041594578792296,13.038404810405298,11.0,26.019223662515376,16.0,15.5,17.0,14.0,4.5,10.5,0.5,1.5,4.123105625617661,3.1622776601683795,3.0,14.0,16.0,18.027756377319946,110.0,110.04090148667449,105.11898020814318,98.32598842625484
333,46,582,0,24.27424999999994,3.1622776601683795,39.11521443121589,4.0,9.055385138137417,11.045361017187261,12.041594578792296,10.0,26.0,17.029386365926403,15.5,16.0,13.0,4.5,11.5,2.5,1.5,3.0,3.0,3.0,14.0,16.0,18.027756377319946,109.00458705944443,109.01834707974616,105.11898020814318,98.2496819333274
334,46,583,0,24.31595833333328,3.0,41.10960958218893,3.0,8.06225774829855,12.041594578792296,13.038404810405298,9.0,23.021728866442675,15.0,13.5,15.0,12.0,4.5,9.5,1.5,2.5,3.0,3.0,3.0,14.0,16.0,18.027756377319946,108.00462953040486,108.07404868885037,105.17128885774862,99.40824915468535
335,46,584,0,24.357666666666606,1.4142135623730951,39.11521443121589,4.123105625617661,10.04987562112089,11.045361017187261,12.041594578792296,10.0,25.019992006393608,15.0,14.5,16.0,13.0,4.5,10.5,0.5,1.5,3.0,3.0,3.0,14.0,16.0,18.110770276274835,107.0,108.07404868885037,105.17128885774862,98.32598842625484
336,46,585,0,24.39937499999994,1.0,39.11521443121589,4.0,9.0,11.045361017187261,12.041594578792296,11.045361017187261,25.019992006393608,16.0312195418814,15.5,17.0,14.0,4.5,9.5,0.5,1.5,4.0,3.0,3.0,14.0,17.0,18.027756377319946,108.01851693112621,108.07404868885037,105.17128885774862,97.32933781753577
337,46,586,0,24.44108333333327,0.0,38.2099463490856,5.0990195135927845,10.0,11.180339887498949,12.165525060596439,10.0,25.019992006393608,15.033296378372908,15.0,17.0,13.0,5.0,10.0,0.0,2.0,4.123105625617661,3.0,3.0,13.0,16.0,18.110770276274835,109.07336980216573,108.2266141020775,104.38869670610895,98.6154146165801
338,46,587,0,24.482791666666603,1.0,38.2099463490856,5.0,9.055385138137417,11.045361017187261,12.041594578792296,11.0,26.019223662515376,17.0,16.5,17.0,13.0,4.0,11.0,2.0,1.0,4.0,4.0,3.5,13.0,17.0,17.11724276862369,108.04165863221463,108.16653826391968,105.38500842150178,98.6154146165801
339,46,588,0,24.524499999999936,5.0,40.11234224026316,5.0,9.055385138137417,11.180339887498949,12.041594578792296,11.0,30.01666203960727,21.0,18.5,17.0,14.0,4.5,14.5,4.5,1.5,5.0,4.123105625617661,4.0,14.0,17.0,17.11724276862369,109.00458705944443,109.1146186356347,105.23307464861035,98.41239759298622
340,46,589,0,24.566208333333268,9.055385138137417,39.20459156782532,4.0,9.055385138137417,12.041594578792296,13.038404810405298,11.045361017187261,33.015148038438355,24.0,19.5,18.0,14.0,5.0,17.0,8.0,2.0,4.0,4.0,4.0,13.0,16.0,18.027756377319946,110.01818031580054,109.07336980216573,105.17128885774862,99.32270636667126
341,46,590,0,24.6079166666666,8.0,41.10960958218893,4.0,9.055385138137417,11.045361017187261,12.041594578792296,10.0,31.016124838541646,22.0,18.0,16.0,13.0,4.5,16.5,6.5,1.5,4.0,4.123105625617661,3.5,14.0,16.0,17.11724276862369,110.0,109.04127658827184,105.11898020814318,99.32270636667126
342,46,591,0,24.649624999999933,3.0,40.11234224026316,4.0,9.055385138137417,12.041594578792296,12.041594578792296,11.045361017187261,27.073972741361768,18.027756377319946,16.5,16.0,13.0,3.5,12.5,3.5,0.5,4.0,4.0,3.5,13.0,16.0,17.11724276862369,110.0,109.07336980216573,105.17128885774862,100.31948963187563
343,46,592,0,24.691333333333265,3.0,40.11234224026316,3.0,9.055385138137417,12.041594578792296,12.041594578792296,11.045361017187261,26.076809620810597,17.029386365926403,15.5,16.0,13.0,3.5,11.5,2.5,1.5,4.123105625617661,3.1622776601683795,3.0,13.0,16.0,17.029386365926403,109.01834707974616,108.16653826391968,105.23307464861035,99.50376877284599
344,46,593,0,24.7330416666666,2.0,39.20459156782532,4.0,9.055385138137417,12.041594578792296,12.165525060596439,10.04987562112089,25.079872407968907,16.0312195418814,15.0,16.0,12.0,4.0,11.0,2.0,2.0,3.1622776601683795,3.0,3.0,13.0,17.0,17.11724276862369,110.04090148667449,110.16351483136329,106.30145812734649,100.4987562112089
345,46,594,0,24.77474999999993,1.0,39.20459156782532,5.0,9.055385138137417,12.165525060596439,12.041594578792296,9.055385138137417,24.08318915758459,15.033296378372908,14.5,16.0,12.0,5.0,10.0,1.0,2.0,3.0,3.1622776601683795,3.0,12.0,16.0,19.1049731745428,109.01834707974616,108.11567878897121,105.23307464861035,99.40824915468535
346,46,595,0,24.816458333333262,1.0,39.20459156782532,4.123105625617661,10.04987562112089,11.045361017187261,12.165525060596439,10.04987562112089,25.179356624028344,15.132745950421556,14.5,17.0,13.0,5.0,10.0,0.0,2.0,3.0,3.1622776601683795,3.0,12.0,17.0,19.1049731745428,109.07336980216573,109.22453936730518,105.38500842150178,99.72462083156798
347,46,596,0,24.858166666666595,1.4142135623730951,39.319206502675,5.0,9.055385138137417,11.045361017187261,12.041594578792296,10.04987562112089,25.179356624028344,16.1245154965971,15.5,18.0,13.0,5.5,9.5,0.5,2.5,3.1622776601683795,4.123105625617661,3.5,12.0,17.0,18.24828759089466,107.29864864013899,108.37435120913067,103.58571330062848,98.85848471426213
348,46,597,0,24.899874999999927,2.23606797749979,39.45883931389772,4.0,9.055385138137417,12.041594578792296,12.041594578792296,10.04987562112089,25.179356624028344,16.1245154965971,15.0,19.0,13.0,6.0,9.0,1.0,3.0,4.0,3.1622776601683795,3.5,12.0,17.0,17.11724276862369,108.2266141020775,108.46197490364999,104.6900186264192,98.85848471426213
349,46,598,0,24.94158333333326,3.1622776601683795,38.3275357934736,4.0,10.04987562112089,11.045361017187261,12.165525060596439,10.04987562112089,27.16615541441225,17.11724276862369,15.5,18.0,13.0,5.5,11.5,1.5,2.5,4.0,5.0990195135927845,5.0,12.0,18.0,17.11724276862369,109.29318368498559,108.55873986004075,104.6900186264192,98.85848471426213
350,46,599,0,24.98329166666659,6.0,39.45883931389772,5.0990195135927845,8.06225774829855,11.045361017187261,13.152946437965905,11.180339887498949,30.265491900843113,22.20360331117452,19.0,20.0,14.0,6.0,13.0,5.0,2.0,5.0,5.385164807134504,5.5,12.0,19.0,20.09975124224178,109.37092849564732,108.55873986004075,104.6900186264192,98.85848471426213
351,46,600,0,25.024999999999924,1.4142135623730951,39.6232255123179,5.0,9.055385138137417,12.041594578792296,12.36931687685298,11.180339887498949,26.30589287593181,17.26267650163207,16.5,20.0,13.0,5.5,9.5,0.5,1.5,6.0,5.0990195135927845,5.0,12.0,19.0,19.235384061671343,109.45775440780794,109.65856099730654,105.80170130957252,100.12991560967181
352,46,601,0,25.066708333333256,0.0,39.45883931389772,5.0990195135927845,9.055385138137417,11.180339887498949,12.165525060596439,11.045361017187261,25.179356624028344,16.1245154965971,16.0,19.0,13.0,5.0,9.0,0.0,2.0,5.0,5.0990195135927845,5.0,10.0,18.0,19.1049731745428,109.37092849564732,108.46197490364999,105.57461816175325,99.72462083156798
353,46,602,0,25.10841666666659,1.0,39.6232255123179,5.0,9.055385138137417,12.041594578792296,12.165525060596439,10.198039027185569,24.331050121192877,15.297058540778355,15.0,19.0,12.0,5.5,8.5,0.5,1.5,5.0,5.0990195135927845,5.0,11.0,19.0,17.26267650163207,108.664621657649,107.78682665335315,102.95630140987001,97.01546268507923
354,46,603,0,25.15012499999992,1.0,38.63935817272331,5.0990195135927845,9.055385138137417,10.198039027185569,11.40175425099138,11.180339887498949,25.495097567963924,16.492422502470642,16.0,20.0,13.0,5.5,8.5,0.5,2.5,6.082762530298219,5.0990195135927845,5.0,10.0,18.0,19.235384061671343,109.65856099730654,108.77959367454909,105.92922165295089,98.15294188153507
355,46,604,0,25.191833333333253,1.0,39.81205847478876,5.0990195135927845,9.055385138137417,11.180339887498949,12.36931687685298,11.180339887498949,25.495097567963924,16.492422502470642,16.0,21.0,13.0,6.0,8.0,0.0,3.0,6.082762530298219,5.385164807134504,5.0,10.0,19.0,19.4164878389476,109.65856099730654,107.78682665335315,103.9471019317037,98.15294188153507
356,46,605,0,25.233541666666586,1.0,39.81205847478876,5.0990195135927845,9.219544457292887,11.180339887498949,12.165525060596439,11.180339887498949,26.476404589747453,17.26267650163207,16.5,21.0,13.0,6.0,9.0,0.0,3.0,5.0,6.082762530298219,6.0,10.0,19.0,18.24828759089466,108.90362712049586,108.04628637764465,102.95630140987001,97.01546268507923
357,46,606,0,25.27524999999992,3.0,37.8549864614954,5.0990195135927845,10.04987562112089,11.180339887498949,12.165525060596439,11.180339887498949,29.274562336608895,19.235384061671343,17.5,22.0,14.0,7.0,11.0,1.0,3.0,6.082762530298219,5.0990195135927845,5.0,10.0,19.0,16.278820596099706,108.04628637764465,106.06601717798213,103.0970416646375,97.16480844420988
358,46,607,0,25.31695833333325,3.1622776601683795,36.87817782917155,6.082762530298219,10.04987562112089,12.165525060596439,12.36931687685298,11.045361017187261,30.265491900843113,20.223748416156685,18.5,23.0,15.0,8.0,11.0,1.0,4.0,6.082762530298219,6.324555320336759,6.0,9.0,19.0,19.4164878389476,106.92053123698928,107.05606008068857,102.1077861869505,95.1892851112981
359,46,608,0,25.358666666666583,1.0,35.6931365951495,6.082762530298219,10.04987562112089,11.045361017187261,11.40175425099138,10.198039027185569,27.294688127912362,17.26267650163207,16.5,22.0,15.0,8.5,8.5,0.5,3.5,6.082762530298219,6.082762530298219,6.0,10.0,19.0,19.235384061671343,108.90362712049586,107.05606008068857,102.1077861869505,96.17692030835673
360,46,609,0,25.400374999999915,0.0,37.8549864614954,6.082762530298219,11.180339887498949,10.198039027185569,11.180339887498949,11.045361017187261,28.284271247461902,17.11724276862369,17.0,23.0,15.0,8.0,9.0,1.0,4.0,7.0710678118654755,6.082762530298219,6.0,10.0,19.0,19.4164878389476,107.20074626605917,107.20074626605917,102.25947388873072,96.33794683301072
361,46,610,0,25.442083333333247,3.1622776601683795,38.8329756778952,6.082762530298219,10.04987562112089,10.198039027185569,11.40175425099138,11.045361017187261,30.265491900843113,20.223748416156685,18.5,22.0,14.0,7.0,12.0,2.0,3.0,5.0,5.385164807134504,5.5,10.0,20.0,16.492422502470642,107.05606008068857,107.05606008068857,103.24727599312246,97.16480844420988
362,46,611,0,25.48379166666658,6.0,38.63935817272331,5.0990195135927845,10.04987562112089,11.180339887498949,12.165525060596439,10.198039027185569,31.25699921617557,21.213203435596427,18.0,21.0,14.0,7.5,13.5,3.5,3.5,6.082762530298219,5.385164807134504,5.5,11.0,20.0,16.492422502470642,107.20074626605917,107.20074626605917,103.40696301506973,96.33794683301072
363,46,612,0,25.525499999999912,7.0710678118654755,38.63935817272331,5.0,10.04987562112089,11.045361017187261,12.165525060596439,10.198039027185569,32.2490309931942,22.20360331117452,18.5,21.0,14.0,7.5,14.5,4.5,3.5,6.082762530298219,5.0990195135927845,5.5,10.0,20.0,19.235384061671343,107.78682665335315,106.06601717798213,103.40696301506973,96.5090669315583
364,46,613,0,25.567208333333244,7.0,36.49657518178932,5.0,9.055385138137417,11.045361017187261,12.36931687685298,10.198039027185569,31.144823004794873,22.090722034374522,18.5,20.0,14.0,7.0,14.0,5.0,3.0,6.0,6.082762530298219,6.0,11.0,19.0,18.24828759089466,107.56393447619885,106.92053123698928,103.0970416646375,96.17692030835673
365,46,614,0,25.608916666666577,6.0,36.49657518178932,5.0,10.04987562112089,11.045361017187261,12.165525060596439,11.180339887498949,32.14031735997639,22.090722034374522,19.0,21.0,15.0,7.0,14.0,4.0,3.0,5.0,5.0990195135927845,5.0,10.0,19.0,21.213203435596427,110.76551810017412,109.89540481748998,105.07616285342742,98.3107318658548
366,46,615,0,25.65062499999991,6.082762530298219,38.3275357934736,5.0,9.055385138137417,11.180339887498949,11.40175425099138,10.04987562112089,30.14962686336267,21.095023109728988,18.0,19.0,14.0,6.5,13.5,4.5,2.5,4.0,4.47213595499958,4.5,11.0,18.0,19.235384061671343,108.29589096544707,107.46627377926528,103.58571330062848,97.86725703727473
367,46,616,0,25.69233333333324,0.0,37.48332962798263,5.0,9.055385138137417,10.198039027185569,10.198039027185569,12.041594578792296,26.076809620810597,17.029386365926403,17.0,19.0,13.0,4.0,10.0,2.0,1.0,5.0,5.385164807134504,5.0,12.0,18.0,20.223748416156685,109.22453936730518,108.29589096544707,104.58011283222064,98.85848471426213
368,46,617,0,25.73404166666657,1.0,39.45883931389772,5.0,9.055385138137417,10.198039027185569,10.198039027185569,12.041594578792296,25.079872407968907,16.0312195418814,16.5,19.0,13.0,4.0,9.0,0.0,1.0,4.123105625617661,5.0990195135927845,5.0,12.0,18.0,19.1049731745428,110.11357772772621,111.28791488746656,107.46627377926528,99.72462083156798
369,46,618,0,25.775749999999903,1.0,40.311288741492746,5.0,9.055385138137417,10.04987562112089,10.04987562112089,12.041594578792296,25.079872407968907,16.0312195418814,16.5,19.0,14.0,4.5,8.5,0.5,0.5,5.0,4.123105625617661,4.5,12.0,17.0,18.110770276274835,109.1146186356347,108.2266141020775,106.56922632730333,99.84988733093293
370,46,619,0,25.81745833333324,0.0,39.319206502675,5.0,8.0,10.04987562112089,11.180339887498949,12.041594578792296,25.019992006393608,17.029386365926403,17.0,19.0,14.0,4.5,8.5,0.5,0.5,4.0,3.0,3.5,12.0,17.0,18.027756377319946,110.11357772772621,109.29318368498559,107.56393447619885,100.9752444909147
371,46,620,0,25.85916666666657,4.0,38.2099463490856,5.0,9.0,10.04987562112089,11.045361017187261,11.045361017187261,29.017236257093817,20.024984394500787,18.0,20.0,16.0,7.0,11.0,2.0,3.0,4.0,5.0990195135927845,4.5,14.0,17.0,17.029386365926403,108.04165863221463,109.22453936730518,106.47065323364932,99.98499887483122
372,46,621,0,25.900874999999903,6.082762530298219,37.21558813185679,5.0,9.0,11.045361017187261,11.045361017187261,11.045361017187261,31.0,22.0,19.0,20.0,16.0,7.0,13.0,4.0,3.0,3.0,3.0,3.0,15.0,18.0,17.029386365926403,110.00454536063498,110.11357772772621,108.37435120913067,100.71742649611338
373,46,622,0,25.94258333333324,7.0710678118654755,36.05551275463989,5.0,10.0,10.04987562112089,11.045361017187261,10.04987562112089,32.0,22.0,18.5,18.0,16.0,7.0,15.0,5.0,3.0,4.0,3.0,3.5,14.0,17.0,16.0312195418814,100.07996802557443,100.24470060806208,97.41663102366043,89.80534505250787
374,46,623,0,25.984291666666568,8.0,35.05709628591621,6.0,9.0,10.04987562112089,11.045361017187261,10.0,33.0,24.0,20.0,19.0,17.0,8.0,15.0,6.0,3.0,4.0,4.123105625617661,4.0,15.0,18.0,17.029386365926403,99.08077512817509,99.32270636667126,97.51410154434076,89.80534505250787
375,46,624,0,26.0259999999999,7.0710678118654755,36.05551275463989,5.0,10.0,10.0,11.180339887498949,10.04987562112089,32.0,22.0,18.5,18.0,16.0,7.0,15.0,5.0,2.0,4.0,4.0,4.0,15.0,17.0,17.029386365926403,106.00471687618433,107.16809226630845,105.38500842150178,96.74709297958259
376,46,625,0,26.06770833333324,7.0,35.05709628591621,5.0990195135927845,10.0,10.0,11.180339887498949,10.04987562112089,32.0,22.0,18.5,18.0,16.0,7.0,15.0,5.0,2.0,4.0,4.0,4.5,15.0,17.0,19.026297590440446,107.0,107.11675872616759,105.30432089900205,98.6154146165801
377,46,626,0,26.109416666666565,6.0,34.058772731852805,5.0990195135927845,10.0,10.0,11.045361017187261,10.04987562112089,31.0,21.0,18.0,18.0,16.0,7.0,14.0,3.0,2.0,3.0,4.0,4.5,16.0,18.0,17.0,104.0,105.17128885774862,104.38869670610895,96.74709297958259
378,46,627,0,26.151124999999897,6.082762530298219,36.05551275463989,5.0,9.0,10.04987562112089,11.045361017187261,10.04987562112089,30.0,21.0,18.0,18.0,16.0,7.0,13.0,4.0,3.0,3.0,4.123105625617661,4.0,16.0,17.0,17.0,105.00476179678711,105.04284840006957,103.31021246711285,95.63472172804185
379,46,628,0,26.19283333333323,6.082762530298219,35.014282800023196,5.0,9.0,10.04987562112089,11.045361017187261,10.0,30.01666203960727,21.02379604162864,18.0,18.0,17.0,7.5,12.5,3.5,3.5,3.0,3.0,3.0,17.0,17.0,18.027756377319946,103.01941564578979,104.04326023342406,101.24228365658294,94.53041838477179
380,46,629,0,26.23454166666656,6.082762530298219,35.014282800023196,5.0,9.0,10.04987562112089,11.045361017187261,10.0,30.01666203960727,21.02379604162864,18.0,17.0,16.0,6.5,13.5,4.5,2.5,3.0,3.0,3.0,17.0,17.0,18.027756377319946,104.01922899156675,104.01922899156675,102.17631819555841,95.42536350467836
381,46,630,0,26.27624999999989,7.0710678118654755,36.013886210738214,5.0,9.0,9.0,11.045361017187261,10.0,31.016124838541646,22.02271554554524,18.5,17.0,16.0,6.5,14.5,5.5,1.5,4.123105625617661,4.0,4.0,16.0,16.0,18.0,105.04284840006957,106.00471687618433,104.12012293500234,97.32933781753577
382,46,631,0,26.317958333333227,8.06225774829855,36.013886210738214,5.0,9.0,10.0,11.045361017187261,10.04987562112089,32.0624390837628,23.08679276123039,19.0,18.0,17.0,7.5,14.5,4.5,2.5,5.0,5.0,5.0,18.0,17.0,17.029386365926403,105.11898020814318,106.0,105.07616285342742,98.32598842625484
383,46,632,0,26.35966666666656,8.06225774829855,34.0,5.0,10.04987562112089,10.0,11.045361017187261,11.0,34.058772731852805,24.020824298928627,20.0,18.0,18.0,7.0,16.0,6.0,2.0,5.0,5.0990195135927845,5.0,18.0,17.0,17.0,108.2266141020775,109.01834707974616,107.0420478129973,99.24716620639605
384,46,633,0,26.40137499999989,5.0990195135927845,35.0,5.0,10.04987562112089,9.0,11.0,10.0,30.066592756745816,20.024984394500787,17.5,17.0,17.0,7.0,13.0,2.0,2.0,5.0,6.0,5.5,18.0,16.0,16.0312195418814,106.23088063270491,108.01851693112621,106.00471687618433,99.08077512817509
385,46,634,0,26.443083333333224,1.0,35.014282800023196,5.0990195135927845,9.0,10.0,11.0,10.04987562112089,25.0,16.0,15.5,16.0,17.0,6.5,8.5,0.5,1.5,5.0990195135927845,5.0,5.5,18.0,15.0,18.0,105.11898020814318,106.01886624558857,105.04284840006957,98.18350166906862
386,46,635,0,26.48479166666656,1.0,36.013886210738214,6.0,9.0,9.055385138137417,10.0,9.0,24.020824298928627,15.033296378372908,15.0,15.0,16.0,6.5,8.5,1.5,0.5,5.0990195135927845,5.0,5.0,17.0,14.0,18.027756377319946,104.12012293500234,105.0,105.07616285342742,98.32598842625484
387,46,636,0,26.52649999999989,1.4142135623730951,37.05401462729781,5.0,9.0,11.0,12.0,9.055385138137417,24.0,15.0,14.5,15.0,17.0,7.0,8.0,2.0,2.0,5.0990195135927845,5.0,4.5,18.0,15.0,17.029386365926403,102.07840124139877,104.00480758118829,103.07764064044152,96.25487000666512
388,46,637,0,26.56820833333322,3.0,36.05551275463989,5.0,10.04987562112089,10.0,12.041594578792296,9.0,27.018512172212592,17.0,15.5,16.0,18.0,8.0,10.0,0.0,3.0,5.0990195135927845,5.0,5.0,17.0,14.0,18.110770276274835,100.12492197250393,102.0196059588548,100.00499987500625,93.08598175880189
389,46,638,0,26.60991666666656,0.0,36.05551275463989,6.0,10.04987562112089,9.0,10.0,9.055385138137417,25.079872407968907,15.033296378372908,15.0,15.0,17.0,7.0,9.0,1.0,1.0,5.0990195135927845,5.0990195135927845,5.0,18.0,13.0,18.027756377319946,101.31633629380802,103.04368005850722,102.0,95.08417323613851
390,46,639,0,26.65162499999989,0.0,37.12142238654117,5.0990195135927845,10.04987562112089,10.0,11.0,11.045361017187261,26.1725046566048,16.1245154965971,16.0,15.0,18.0,5.5,9.5,0.5,0.5,5.0990195135927845,6.0,5.5,18.0,13.0,17.029386365926403,103.4842983258813,106.1178590059185,105.01904589168576,97.04638066409278
391,46,640,0,26.69333333333321,2.23606797749979,37.12142238654117,6.0,9.055385138137417,9.055385138137417,10.04987562112089,11.045361017187261,28.160255680657446,19.1049731745428,18.0,15.0,18.0,5.5,11.5,1.5,0.5,6.082762530298219,5.0990195135927845,5.5,19.0,14.0,16.0312195418814,103.9471019317037,106.38138934982942,105.11898020814318,99.00505037623081
392,46,641,0,26.73504166666655,4.123105625617661,37.12142238654117,6.082762530298219,9.055385138137417,9.055385138137417,11.045361017187261,10.0,29.154759474226502,20.09975124224178,18.0,15.0,18.0,6.5,12.5,2.5,0.5,5.0990195135927845,5.0990195135927845,5.5,19.0,14.0,18.110770276274835,107.91200118615167,109.55363982999378,106.16967551989597,100.0199980003999
393,46,642,0,26.776749999999883,3.1622776601683795,37.12142238654117,6.0,10.04987562112089,10.04987562112089,11.0,10.04987562112089,29.154759474226502,19.1049731745428,17.5,15.0,18.0,6.5,12.5,1.5,0.5,5.0990195135927845,5.0,5.0,20.0,14.0,15.132745950421556,107.05606008068857,108.55873986004075,107.16809226630845,101.01980003939822
394,46,643,0,26.81845833333321,4.123105625617661,37.21558813185679,6.082762530298219,9.055385138137417,10.04987562112089,11.045361017187261,10.0,29.154759474226502,20.09975124224178,18.0,15.0,19.0,7.0,12.0,2.0,1.0,5.0990195135927845,5.0,5.0,20.0,13.0,16.1245154965971,104.08650248711405,106.56922632730333,106.30145812734649,99.04544411531506
395,46,644,0,26.860166666666547,4.123105625617661,35.35533905932738,6.082762530298219,10.04987562112089,10.04987562112089,11.045361017187261,9.0,29.154759474226502,19.1049731745428,17.0,15.0,20.0,8.5,11.5,0.5,2.5,6.082762530298219,5.0,5.5,19.0,13.0,16.0312195418814,101.83319694480774,104.47966309287182,102.12247548899312,95.02105029939419
396,46,645,0,26.90187499999988,3.1622776601683795,34.23448553724738,6.082762530298219,10.04987562112089,10.04987562112089,11.045361017187261,10.04987562112089,29.274562336608895,19.235384061671343,17.5,16.0,20.0,8.0,11.0,0.0,2.0,6.082762530298219,6.0,6.0,20.0,13.0,16.0312195418814,104.08650248711405,105.57461816175325,103.31021246711285,97.082439194738
397,46,646,0,26.94358333333321,5.0990195135927845,34.23448553724738,5.0990195135927845,10.04987562112089,10.04987562112089,12.041594578792296,10.0,30.14962686336267,20.09975124224178,17.5,17.0,21.0,9.0,11.0,0.0,3.0,6.082762530298219,6.0,6.0,20.0,13.0,17.11724276862369,104.80935072788114,106.47065323364932,104.17293314484334,98.00510190801293
398,46,647,0,26.985291666666544,4.123105625617661,33.24154027718932,6.082762530298219,10.198039027185569,11.045361017187261,11.045361017187261,10.0,30.265491900843113,20.09975124224178,18.0,17.0,21.0,9.0,11.0,0.0,3.0,6.082762530298219,6.082762530298219,5.5,20.0,13.0,17.11724276862369,103.81714694596457,105.38500842150178,104.12012293500234,96.00520819205592
399,46,648,0,27.02699999999988,5.0990195135927845,33.24154027718932,5.0,11.045361017187261,9.055385138137417,11.0,9.055385138137417,30.14962686336267,19.1049731745428,16.5,16.0,20.0,9.0,12.0,1.0,3.0,6.082762530298219,6.0,6.0,20.0,13.0,16.0312195418814,105.07616285342742,106.56922632730333,104.17293314484334,97.02061636580135
400,46,649,0,27.06870833333321,5.0990195135927845,32.2490309931942,5.0,10.04987562112089,9.055385138137417,11.0,10.0,30.066592756745816,20.024984394500787,17.5,17.0,21.0,9.0,11.0,0.0,4.0,6.082762530298219,6.0,6.0,19.0,13.0,16.0312195418814,105.80170130957252,107.37783756436893,104.12012293500234,98.00510190801293
401,46,650,0,27.11041666666654,4.0,33.13608305156178,6.082762530298219,10.04987562112089,10.04987562112089,11.045361017187261,9.0,29.068883707497267,19.026297590440446,17.0,17.0,20.0,9.5,10.5,0.5,3.5,6.082762530298219,6.0,5.5,20.0,14.0,16.0312195418814,105.92922165295089,106.47065323364932,105.11898020814318,98.02040603874276
402,46,651,0,27.15212499999988,2.23606797749979,33.13608305156178,6.0,10.0,10.04987562112089,11.0,9.0,27.018512172212592,17.029386365926403,16.0,16.0,19.0,8.5,9.5,1.5,2.5,6.082762530298219,6.0,6.0,20.0,14.0,16.0312195418814,104.80935072788114,106.38138934982942,105.11898020814318,98.00510190801293
403,46,652,0,27.19383333333321,1.4142135623730951,35.12833614050059,5.0,8.06225774829855,9.055385138137417,10.0,10.0,24.08318915758459,16.0312195418814,15.5,16.0,19.0,7.5,6.5,2.5,2.5,6.082762530298219,6.082762530298219,6.0,19.0,14.0,17.11724276862369,104.6900186264192,106.30145812734649,104.0768946500615,97.0051545022222
404,46,653,0,27.23554166666654,1.4142135623730951,34.132096331752024,5.0990195135927845,8.0,10.04987562112089,11.0,10.0,24.08318915758459,16.1245154965971,15.5,15.0,18.0,6.5,7.5,1.5,1.5,6.082762530298219,6.0,6.0,19.0,14.0,16.0312195418814,103.69667304209909,105.30432089900205,104.0768946500615,97.0
405,46,654,0,27.27724999999987,1.0,37.12142238654117,6.082762530298219,10.04987562112089,10.0,11.0,10.0,27.073972741361768,17.029386365926403,16.5,15.0,18.0,6.5,10.5,0.5,1.5,6.082762530298219,6.082762530298219,5.5,19.0,14.0,17.029386365926403,104.93807697875924,106.47065323364932,106.1178590059185,100.00499987500625
406,46,655,0,27.318958333333203,3.0,37.05401462729781,5.0990195135927845,10.04987562112089,10.0,11.0,10.0,28.071337695236398,18.027756377319946,16.5,16.0,18.0,7.0,11.0,0.0,2.0,5.0990195135927845,5.0,5.5,19.0,14.0,18.110770276274835,106.06601717798213,107.46627377926528,106.16967551989597,99.02019995940222
407,46,656,0,27.36066666666653,4.123105625617661,37.12142238654117,6.082762530298219,10.0,10.04987562112089,11.0,9.0,29.068883707497267,19.1049731745428,17.0,15.0,18.0,7.5,12.5,1.5,1.5,6.082762530298219,6.082762530298219,6.0,20.0,15.0,16.0312195418814,104.93807697875924,107.46627377926528,106.16967551989597,100.00499987500625
408,46,657,0,27.402374999999868,4.123105625617661,37.12142238654117,6.082762530298219,10.04987562112089,10.04987562112089,11.045361017187261,9.0,29.154759474226502,19.1049731745428,17.0,15.0,18.0,7.5,12.5,1.5,1.5,6.082762530298219,6.082762530298219,6.0,19.0,14.0,17.0,103.81714694596457,105.30432089900205,104.12012293500234,98.0
409,46,658,0,27.4440833333332,5.0990195135927845,37.21558813185679,6.082762530298219,10.04987562112089,11.045361017187261,12.0,9.0,30.14962686336267,20.09975124224178,17.5,15.0,19.0,8.0,13.0,2.0,2.0,5.0990195135927845,5.0,5.5,19.0,14.0,17.11724276862369,106.92053123698928,108.46197490364999,107.16809226630845,101.01980003939822
410,46,659,0,27.485791666666533,6.082762530298219,38.2099463490856,6.082762530298219,9.055385138137417,10.04987562112089,11.045361017187261,9.0,30.14962686336267,21.095023109728988,18.0,15.0,19.0,8.0,13.0,3.0,2.0,6.082762530298219,6.082762530298219,5.5,19.0,14.0,17.029386365926403,106.92053123698928,108.46197490364999,106.23088063270491,100.0199980003999
411,46,660,0,27.527499999999865,5.0990195135927845,36.124783736376884,6.082762530298219,11.045361017187261,10.04987562112089,11.0,9.0,31.144823004794873,20.09975124224178,17.5,15.0,18.0,7.5,14.5,2.5,1.5,5.0990195135927845,6.0,5.5,20.0,15.0,18.027756377319946,108.04628637764465,109.55363982999378,107.22872749408155,101.04454463255303
412,46,661,0,27.5692083333332,7.0710678118654755,38.05259518088089,6.0,10.04987562112089,11.045361017187261,12.0,10.04987562112089,33.13608305156178,23.08679276123039,19.5,16.0,18.0,7.0,16.0,5.0,1.0,5.0990195135927845,6.082762530298219,5.5,19.0,14.0,17.11724276862369,107.78682665335315,108.46197490364999,106.1178590059185,100.0199980003999
413,46,662,0,27.61091666666653,8.06225774829855,38.118237105091836,6.082762530298219,10.04987562112089,10.04987562112089,12.0,10.04987562112089,34.23448553724738,24.186773244895647,20.0,16.0,19.0,7.5,16.5,5.5,1.5,5.0990195135927845,5.0,5.0,20.0,14.0,16.0312195418814,108.04628637764465,109.55363982999378,108.29589096544707,101.04454463255303
414,46,663,0,27.652624999999865,5.0,38.118237105091836,6.082762530298219,11.045361017187261,10.04987562112089,11.045361017187261,9.055385138137417,31.144823004794873,20.09975124224178,17.5,15.0,18.0,7.5,14.5,3.5,1.5,5.0990195135927845,6.0,5.5,20.0,14.0,16.0312195418814,107.20074626605917,108.55873986004075,107.22872749408155,101.04454463255303
415,46,664,0,27.694333333333194,6.082762530298219,38.2099463490856,6.082762530298219,10.04987562112089,10.04987562112089,12.0,10.04987562112089,32.2490309931942,22.20360331117452,19.0,16.0,20.0,8.0,14.0,3.0,2.0,6.082762530298219,6.0,6.0,20.0,14.0,17.029386365926403,107.05606008068857,108.55873986004075,107.29864864013899,100.04498987955368
