,video_id,frame_seq,gap,time_seconds,m1,m3,m4,m5,m6,m7,m8,m9,m10,m11,m12,m13,m14,m15,m16,m17,e1,e2,e3,b1,b2,b3
0,41,0,0,0.0,10.433611919219155,42.82307390961542,5.919847853829319,8.46610451559507,12.120962846942787,13.51869827947413,8.563874154562491,33.345356272434394,24.881084874642173,19.569702114046265,18.86575599483598,17.457863756415378,9.714456445102115,15.064446951100365,6.335515072892662,4.08288749141974,7.04509051022938,6.810474064785493,6.757882744418879,18.021020651783616,21.11838357630893,24.555513450801776
1,41,1,0,0.0333333333333333,10.433611919219155,42.82307390961542,5.919847853829319,8.46610451559507,12.120962846942787,13.51869827947413,8.563874154562491,33.345356272434394,24.881084874642173,19.569702114046265,18.86575599483598,17.457863756415378,9.714456445102115,15.064446951100365,6.335515072892662,4.08288749141974,7.04509051022938,6.810474064785493,6.757882744418879,18.021020651783616,21.11838357630893,24.555513450801776
2,41,2,0,0.0666666666666666,10.921111402754585,43.11866572878003,6.327086661370808,8.638078151200327,12.069944372489964,13.218839900951648,8.126020379562554,33.979010330651505,25.340939507211825,19.823576194848272,18.961681577680963,17.525190549068753,10.1990863031466,15.65775221187289,6.751507834477309,4.1658239829753825,6.90113972105615,6.948816555474005,6.895156937338527,18.09978696051364,18.09978696051364,24.435552657715377
3,41,3,0,0.0999999999999999,10.662291268903621,43.22508726057702,5.768493996701753,8.373723437385967,12.390137411102904,13.830112840350996,8.718424189393316,33.49489374954386,25.1211703121579,19.732441783204735,18.436149987227793,17.283890613026045,9.218074993613897,15.555501551723438,6.913556245210401,3.744842966155659,7.207380082954907,7.224629521466404,7.345653510536067,18.148085143677335,19.876474204979942,24.800358798072335
4,41,4,0,0.1333333333333332,12.02517483883229,43.99025751723729,5.285913892894033,7.922091128106145,12.611428091367918,13.780858126004532,8.256861453769208,33.472175458340644,25.551341128576432,19.49844819955959,17.885794589069718,17.006165346984318,9.236107041896673,15.979931231218018,7.476848557725845,3.9583315893843007,7.330243684044973,7.382832794463989,7.330243684044973,14.660487368089946,16.712955599622532,22.00831660556668
5,41,5,0,0.1666666666666665,10.396534683029945,40.436723140729626,5.464297314603954,7.654893522573403,10.928594629207907,12.294668957858889,7.397011827314191,30.903487932259026,23.24896370679947,18.032181138193067,16.11967707808165,15.846462212351469,8.606268270501204,14.890210182295789,6.9669790761200545,3.4151858216274604,6.835833756597427,6.852193972473692,6.693764210389816,17.212536541002436,16.666106809542043,20.771518416030784
6,41,6,0,0.1999999999999998,4.883528150386098,42.673581418717994,4.88352815038607,9.51350121794263,11.826072130288468,12.594362072048341,9.267269027046781,28.540503653827898,19.02700243588526,16.578292931573827,15.678695640713244,16.449779032879462,6.8112366308016306,12.465848173353976,2.441764075193049,1.9277084804155606,7.715116529002517,7.7279501112506646,7.710833921662243,16.192751235490732,16.96383462765695,22.385040635710347
7,41,7,0,0.2333333333333331,4.883528150386098,42.673581418717994,4.88352815038607,9.51350121794263,11.826072130288468,12.594362072048341,9.267269027046781,28.540503653827898,19.02700243588526,16.578292931573827,15.678695640713244,16.449779032879462,6.8112366308016306,12.465848173353976,2.441764075193049,1.9277084804155606,7.715116529002517,7.7279501112506646,7.710833921662243,16.192751235490732,16.96383462765695,22.385040635710347
8,41,8,0,0.2666666666666664,2.875421253555618,42.453489706461845,5.213072315198137,8.334575706860976,11.206223316790554,11.986420067783676,8.854993416196205,25.251855612585786,16.92334895225587,15.489540298441796,14.578390869121677,15.88003291100756,6.378046005240748,10.022643722521167,1.1714778376972674,1.1714778376972674,7.827188237688278,7.848804374504865,8.070180659692355,15.61970450263037,15.880032911007547,21.09302796107713
9,41,9,0,0.2999999999999997,4.95856866101996,41.86700462321022,5.450410263866331,9.084017106443866,11.208546996210139,11.984046878625227,8.050028817397463,27.522610809287606,18.444020153444878,15.96191577275141,14.534427370310226,17.129860829294188,7.786300376951914,11.679450565427828,1.8168034212887676,1.816803421288796,8.062571066733614,8.062571066733613,8.3053870687487,15.313057408005406,14.274884024411818,21.02461307614682
10,41,10,0,0.333333333333333,5.4436458222453465,41.93906281235201,5.677178330947839,10.067396694783444,11.171066803140775,12.196955519760463,8.003821447424636,29.178315895424205,19.111649480591357,16.386401091599453,14.192945827369613,17.547642113838805,7.870633595177708,13.289758365627904,2.19345526422984,1.6773481432346102,7.780218559765701,8.016291703930884,8.128687155675323,15.999320750853016,14.450999387867242,20.902338400307983
11,41,11,0,0.3666666666666663,7.430552789267996,41.83496067198139,5.377548957181631,9.999999999999991,11.058710682860514,12.103379828737442,7.942415703872156,30.74591802841211,20.748296394612485,17.028905031075197,14.340130552484368,17.15694191100806,7.810249675906647,14.98031495214883,3.969143277919784,1.9205531989934457,8.23029190964895,8.210349326647068,8.450434075571138,15.620499351813308,14.340130552484354,20.492301633284345
12,41,12,0,0.3999999999999997,8.153693264107687,40.81939509282562,4.841255375563918,8.412355942954148,11.745833990557871,12.526874211216938,10.195301119059419,31.59967085559773,23.188465193556613,19.11021858775237,15.288174870201885,17.326598186228807,6.115269948080737,15.288174870201914,5.605664119074049,1.274014572516819,8.189446536385091,7.915312176789367,8.153693264107687,15.033371955698541,13.759357383181722,21.658247732786037
13,41,13,0,0.433333333333333,8.153693264107687,40.81939509282562,4.841255375563918,8.412355942954148,11.745833990557871,12.526874211216938,10.195301119059419,31.59967085559773,23.188465193556613,19.11021858775237,15.288174870201885,17.326598186228807,6.115269948080737,15.288174870201914,5.605664119074049,1.274014572516819,8.189446536385091,7.915312176789367,8.153693264107687,15.033371955698541,13.759357383181722,21.658247732786037
14,41,14,0,0.4666666666666663,3.5321003369344055,39.882230116294195,4.793564742982426,9.334836604755225,10.599304071940695,11.378380972132678,12.617166737049693,30.27619694724074,20.941828921880187,19.174258971929646,16.399037278624036,17.660501684672056,4.415125421168,13.245376263504056,3.1536610151200364,0.1261464406048276,8.34094154245087,8.0773133130248,8.325665079916817,16.651330159833662,15.137572872576058,21.697187784025672
15,41,15,0,0.4999999999999996,2.2686581068341143,39.0957404451244,4.259033406955979,8.518066813911986,9.523488216396109,10.274841258517663,14.038701803086695,29.071356983104636,20.557316979726554,19.41618170818174,16.78560225094421,17.787727758463262,3.256907899436925,11.77497471334891,2.5053137687976346,0.7515941306392904,8.532791227346054,8.28270523958137,8.518066813911986,15.282413989665613,15.282413989665613,21.29664069777156
16,41,16,0,0.533333333333333,3.7303005590407183,35.486904269047685,3.7303005590407468,8.440268941454402,8.4366206728848,8.932892477172132,15.384425932907561,31.273984411011583,22.83389661879257,20.967483731140135,18.113920856487937,18.610192660775283,2.9776308257240487,12.903066911470859,3.9701744342987126,0.2481359021436731,8.698924213443343,8.451204297724543,8.80882452610031,15.384425932907561,15.632561835051234,20.843415780068312
17,41,17,0,0.5666666666666663,6.314675963534737,33.756104843518614,4.61116153438536,10.43860825727848,8.750410185091363,9.977002652578385,14.563585039006048,35.91934132419272,25.482734795287456,22.327729534918518,19.415416986885674,20.62888054856603,5.46058602756159,15.896372658012695,4.732507890553421,1.0921172055122952,8.265815933131174,8.265815933131174,8.372898575594448,16.0177190141807,16.0177190141807,21.12681531519205
18,41,18,0,0.5999999999999996,8.477935169169232,36.10629732618058,5.332314121940665,11.624661647051193,9.930196714392777,11.17991383182791,13.561324731444236,38.98560144540587,27.36152534783712,23.123215554057424,19.612360836425665,21.065128305790523,6.779581523702689,18.643849190182408,5.81106987745946,1.6948953809256864,8.746818441674867,8.48830150909513,8.83766877196959,23.002151598276996,22.275767863594567,27.11940700144552
19,41,19,0,0.633333333333333,7.228915662650593,35.93271239418064,5.542168674698786,11.566265060240966,9.665624636207983,11.126165186135125,13.493975903614455,37.8313253012048,26.265060240963834,22.650602409638537,19.277108433734924,20.722891566265048,6.506024096385545,17.8313253012048,5.301204819277103,1.2048192771084416,8.728082060855336,8.688075362563822,8.9156626506024,22.168674698795172,21.44578313253011,26.266165556492624
20,41,20,0,0.6666666666666663,5.514810578344907,37.192862153364786,5.754584951316417,11.748944275604373,10.096181091520556,11.571442675657037,12.010278955299752,35.01444797994231,23.269235072888055,20.500708889064754,18.22285234583535,19.66149858366444,6.953456816174025,16.06488298909167,3.117066848629719,1.1988718648576082,8.661797369121452,8.446730827246158,8.631877426974626,20.14104732960749,20.620596075550523,24.467562037553712
21,41,21,0,0.6999999999999996,5.324059809958328,37.31439892382316,6.022952303822378,10.187788022054493,9.516087833896059,10.508823199428113,9.956368310097954,31.489055498839193,21.301270838070025,18.63420933485412,16.2036602911775,18.05550718159776,7.17590670037859,14.351813400757209,3.009251196932979,1.1574043065126602,8.384593404808916,8.13153750592807,8.333311006891279,21.990681823740886,22.45364354634596,26.166553967814888
22,41,22,0,0.733333333333333,0.738454966678548,37.83095496928542,4.2098410277463225,8.876830747167705,10.041358469922017,10.518771943629822,13.795477247868435,27.59095449573687,18.71804908488955,18.331317206718097,15.412317651508204,15.645837615925018,1.751399733125936,12.026278167464739,2.2184396619595077,1.984919697542722,8.922785311805963,8.458452860952749,8.756998665629652,20.54975686867762,21.25031676192799,28.026287459181663
23,41,23,0,0.7666666666666663,1.1800725267629608,37.26115208787174,4.628625262630152,9.260142964176461,8.797432620171751,9.731127347466604,13.916699079508643,28.962214819576484,19.705661985104083,19.093079208349366,15.274463366679498,15.505894629810996,1.5043032103547773,13.538728893193195,3.355753315406872,2.661459526012351,9.073168147096673,8.612850569537562,8.910103630563043,20.597382418704157,21.291676208098693,27.544209639079263
24,41,24,0,0.7999999999999996,2.302381837277551,38.68001486626311,4.8404806156873965,9.902918726596418,9.439765532838024,10.370946027660814,12.944628722347185,29.974323520353156,20.078300963422638,18.879531065676048,14.505005574848667,14.505005574848667,1.6116672860943027,15.425958309759693,4.60476367455513,2.762858204733078,8.79738864774849,8.368136570724955,8.633931889790887,20.030721984314823,21.181912902953613,28.32771869434295
25,41,25,0,0.8333333333333329,2.3076909421951086,39.00065966592074,4.615381884390217,9.925754050285223,9.695048819101803,10.625407035752314,13.226512063731914,30.04344186806833,20.12459988945435,18.92306572599992,14.307683841609702,14.538452935829213,1.2692300182073097,15.576913859817012,4.730766431499973,2.8846136777438858,8.817674709154618,8.38743281181714,8.653841033231686,19.846142102877963,20.999987573975517,28.16234018320899
26,41,26,0,0.8666666666666663,1.831267474986281,40.88597048164853,4.769956279657237,10.458346683338485,10.905123003709843,11.586406192657009,11.61975483552755,28.66386991337594,18.206718172466854,17.26269891685473,13.401305738084574,13.17416496286279,1.7035558141632805,15.332002327469667,4.202104341602819,2.3849781398286325,8.227388800833003,8.001676594596875,8.290638295594675,18.852684343407105,20.669810545181278,28.180106560806482
27,41,27,0,0.8999999999999996,1.8812801553534664,42.89068783227562,4.562774583471082,10.276377309663497,11.86321391702478,12.549703921616787,11.18810563930114,27.866564442965426,17.590368901968844,16.6541272296694,12.775768833718985,12.547630104545448,1.4829017396280904,15.171225490041309,3.992427760537197,2.395456656322324,8.490316981848192,8.32628228116046,8.441132979421454,18.707375792231375,20.9887630839669,28.303917218212707
28,41,28,0,0.9333333333333328,2.9123177949843395,41.77156503996974,4.489572464480004,10.073717727739732,11.617105620579103,12.510410564473618,10.947143340357249,28.410358811206788,18.337674156315067,16.864025677883717,12.95514555387092,12.508416396840886,1.7869166281201103,15.635520496051129,4.9140207273303815,2.0102812066351703,8.291610865247655,8.152042132721958,8.26448940505557,17.645801702686256,21.219634958926505,28.410358811206773
29,41,29,0,0.9666666666666662,2.2564854753153454,41.31877102084383,4.289614727573758,9.665171511835391,10.555237078296216,11.453164582442525,12.132862650180401,28.334240508128843,18.669665767248205,17.51323834343785,13.247193105933746,12.573607015801514,0.7858504384875857,15.380215724685797,5.0518956759916875,2.8066087088842835,8.558638098117282,8.637791428195257,8.756619171718938,17.962295736859318,22.228340974363405,28.33424050812883
30,41,30,0,0.9999999999999996,1.8347579223601382,39.39769305202758,4.0111231483078775,8.48119644091015,10.237283829122829,10.679859827759628,12.699886956696547,26.996516093528047,18.515447123367498,17.577269299854407,13.79481894418953,12.682333545464559,0.5562426993624854,13.683570404317038,4.561190134772346,2.781213496812427,8.244410047401995,8.159911667159253,8.34364049043721,17.577269299854393,21.80471381500925,27.202941017470895
31,41,31,0,1.0333333333333328,1.8347579223601382,39.39769305202758,4.0111231483078775,8.48119644091015,10.237283829122829,10.679859827759628,12.699886956696547,26.996516093528047,18.515447123367498,17.577269299854407,13.79481894418953,12.682333545464559,0.5562426993624854,13.683570404317038,4.561190134772346,2.781213496812427,8.244410047401995,8.159911667159253,8.34364049043721,17.577269299854393,21.80471381500925,27.202941017470895
32,41,32,0,1.066666666666666,1.1401611731735644,38.90966654889536,4.049640726070602,8.746318513969825,10.062180122283621,10.73532108611705,13.200213780803086,27.115154788595998,18.369582574487136,17.776518216034418,13.639844165762241,13.192636160327424,0.22360400271739422,13.63984416576227,4.248476051630888,3.1304560380438033,8.077646240754808,8.160780296125107,8.273348100544325,18.111924220110524,22.360400271741383,27.33827564911719
33,41,33,0,1.0999999999999992,0.9142163550036172,38.14014420270778,4.218701632156554,9.115235174752902,9.977851578566089,10.873818158184664,12.877533736042421,27.10916059202007,17.994317905739628,17.51667277126046,13.968992209992535,13.525532139834041,0.8869201403169882,13.303802104754794,3.3259505261887057,2.6607604209509645,8.45195805047104,8.349541759339457,8.425741333011374,17.960132841418968,22.394733543003895,28.451514761644145
34,41,34,0,1.1333333333333324,2.943701929775853,41.40946353207532,4.275798329101629,8.963403824966816,10.744995695913369,11.646491418155806,11.416275142320826,27.57262125299117,18.609532734804993,17.121121772216384,12.980719775013739,12.309303234926801,1.2309303234926858,14.883066638593306,4.811818537289554,2.5737634036665042,8.069422541593347,8.20789747781282,8.392706751086479,18.128246582346762,22.380551336230567,27.80957994302465
35,41,35,0,1.1666666666666656,2.2339401123409024,41.12339037772551,4.246755634478935,10.025044607450726,11.116490093656887,12.021918367477017,10.894250094881565,27.38533851480699,17.3610407692382,16.226830495111756,12.892550256390166,12.67026490714207,1.8894254686088914,14.55969037575096,3.6677082625937487,2.1117108178570163,8.236564582473312,8.112653960643796,8.224557922179912,18.005113289096613,22.00624957556252,28.064350647328716
36,41,36,0,1.1999999999999988,2.456186949581146,41.58429282255128,4.027341209601873,9.572364199074144,11.34318852809034,12.026643549803323,10.67620659039994,26.71806123428857,17.14578737143191,15.899649329866207,12.89761763821312,12.675244920312906,2.1125408200521463,13.898294868764168,3.2244044095533013,1.445422666351476,7.81158358287587,7.896580143660094,8.005417844408157,18.456935585718796,22.237271790022646,27.618118616285166
37,41,37,0,1.233333333333332,2.456186949581146,41.58429282255128,4.027341209601873,9.572364199074144,11.34318852809034,12.026643549803323,10.67620659039994,26.71806123428857,17.14578737143191,15.899649329866207,12.89761763821312,12.675244920312906,2.1125408200521463,13.898294868764168,3.2244044095533013,1.445422666351476,7.81158358287587,7.896580143660094,8.005417844408157,18.456935585718796,22.237271790022646,27.618118616285166
38,41,38,0,1.2666666666666653,2.666258529931895,39.993877948978316,5.337143973584482,10.452296450118055,10.22307250205113,11.118294517645772,9.152967767301487,27.595203313257578,17.144523806083303,15.775362968763687,13.77566907131478,13.77566907131478,4.66595242738083,13.775669071314752,2.888446740759548,0.44437642165530633,8.026501064921625,8.328353945904768,8.33205790603715,18.441621498695568,21.99663287193809,27.139723789667958
39,41,39,0,1.2999999999999985,3.322366715012858,40.44370382792133,5.3086152969579485,10.396425709717198,10.610328070316664,11.511137576705822,8.851064988867348,27.8776224856758,17.48140864870623,15.80153907330407,13.70203388174616,13.923034428225947,4.972512295794985,14.03353470146584,2.9835073774769967,0.11050027323989298,8.20385463353223,8.283836331665766,8.398020766231525,18.564045904301267,22.1000546479777,26.7638870213126
40,41,40,0,1.3333333333333317,5.05895332446112,40.320072535943616,5.495692069814924,10.308317225144593,9.863176128897779,10.757357189303603,7.915936902482215,28.77338046551084,18.47051943912514,15.886750481831939,13.366783164024099,13.585910756876956,5.587753617747779,15.22936770327334,4.272988060630638,0.32869138927929953,7.681977121543563,7.781343930087017,7.998157139129177,17.74933502108118,21.255376506726847,26.109307860930663
41,41,41,0,1.366666666666665,1.3803940759355653,41.75611142256684,4.5443776065866235,9.768771123079349,11.800640184638453,12.489695818873635,10.687669013956153,26.37239179104708,16.60509666737575,15.88547717162868,13.84305867813356,13.84305867813356,3.177095434325736,12.481446349136831,2.04241849349512,0.9077415526645041,8.197991819631987,8.058603128151919,8.283141668063521,18.15483105328994,22.01273265211404,28.39958341538545
42,41,42,0,1.399999999999998,0.45555368272761143,41.913414573047184,4.7887338558389105,9.349954959405583,11.618851801243677,12.074321239195642,10.727297797021507,25.320139234961736,15.970389318785143,15.71660205410214,13.43883364046414,12.983279957736556,2.505545255001806,12.072172592281362,1.8222147309103889,1.8222147309103889,8.001421448449019,7.639867514844603,7.744412606369181,17.99437046774014,22.09435361228853,28.289296826648936
43,41,43,0,1.4333333333333311,0.45555368272761143,41.913414573047184,4.7887338558389105,9.349954959405583,11.618851801243677,12.074321239195642,10.727297797021507,25.320139234961736,15.970389318785143,15.71660205410214,13.43883364046414,12.983279957736556,2.505545255001806,12.072172592281362,1.8222147309103889,1.8222147309103889,8.001421448449019,7.639867514844603,7.744412606369181,17.99437046774014,22.09435361228853,28.289296826648936
44,41,44,0,1.4666666666666646,2.269497148959214,40.428066512731554,4.538994297918402,9.495330484787486,10.839523518191726,11.519207480288118,10.172084942700394,26.46858414166081,16.974351005137464,15.807638464029594,14.001051210997645,13.323580991110646,3.5002628027494325,12.75902247453817,2.596969176233415,0.5645585165724754,7.9328005364562575,8.019116039047063,8.016730935329292,18.065872530319524,21.904870443012427,26.933642553731566
45,41,45,0,1.4999999999999978,2.7143903141931958,40.492182806457286,5.433491067995646,10.633768166039376,10.178963678224406,11.08606836436858,8.622314466015029,27.393460053223258,16.763176401051588,15.38154511376132,14.250549149514171,13.7981507638153,5.428780628386335,13.345752378116458,2.261991928494325,0.22619919284943535,8.171396923028732,8.032460418854926,8.14317094257953,17.869736235105094,21.94132170639486,26.512629749436353
46,41,46,0,1.533333333333331,3.1712001579725206,39.089999438893386,5.2014984829492,10.177276292023887,9.941300871776349,10.8474087688331,9.082621570317537,27.623715082402946,17.450013422839245,15.81570593237143,14.686012651487772,14.234135339134298,5.4225277482416345,13.10444205825064,2.48532521794408,0.4518773123534743,7.920753224298305,8.023208615235589,8.133791622362466,18.526969806492275,22.367926961496764,26.031035713847263
47,41,47,0,1.5666666666666642,2.926072889638268,38.15726289482842,5.852145779276563,10.333051886062252,9.874460029139271,10.772138213606468,8.979586650816003,28.084741086398935,17.751855626221143,16.270417093468097,15.036109589825685,14.36285095147528,5.72269842597845,13.35296299394966,2.5808247803431925,0.3366293191752163,7.867497636658315,7.934429144499867,8.07910366020485,18.402402781577706,21.993115519446533,25.422881714571353
48,41,48,0,1.5999999999999974,1.8570734550567636,38.76710338060011,5.807995375100684,9.984468690742986,10.448617135032134,11.144858532415217,9.528818347557362,27.175567067598273,17.19203993170698,16.249392731746525,15.320856004218143,15.088721822336055,5.687287456111278,11.954910366927805,1.5088721822336026,0.3482012728231325,8.369716955637704,8.207182707700975,8.472897638696395,19.26713709621373,22.981284006327215,26.73174026951461
49,41,49,0,1.6333333333333306,1.8570734550567636,38.76710338060011,5.807995375100684,9.984468690742986,10.448617135032134,11.144858532415217,9.528818347557362,27.175567067598273,17.19203993170698,16.249392731746525,15.320856004218143,15.088721822336055,5.687287456111278,11.954910366927805,1.5088721822336026,0.3482012728231325,8.369716955637704,8.207182707700975,8.472897638696395,19.26713709621373,22.981284006327215,26.73174026951461
50,41,50,0,1.666666666666664,2.3268526408205497,39.59442189156824,5.806755182251329,10.197860303364942,9.955811129145559,11.115875100337096,8.579134214092402,26.8824748282855,16.68465975952488,15.512542922157024,15.512542922157024,15.049481939406064,6.714384249888866,11.576524568773891,0.9261219655019204,1.1576524568774005,8.133280927813066,8.1858390251527,8.335097689517198,19.217030784164677,22.458457663421356,26.87349987585307
51,41,51,0,1.699999999999997,3.032802317304471,40.47332560113814,5.587371511829129,10.245201573518402,10.469823564159459,11.63956647140967,8.609539564552461,27.45629681542505,17.214365232280027,15.700859069407045,15.351951090086885,15.351951090086885,6.745554266856345,12.095476616432109,1.1630265977338752,1.1630265977338468,8.402816864557932,8.223839939579277,8.490094163457144,19.306241522381995,22.795321315583564,26.32142720477058
52,41,52,0,1.7333333333333305,5.338236466660003,41.512022191258986,4.643356828636815,9.741643398325392,11.139809783676547,12.324494036190453,9.301176699298276,28.99960823631286,19.258456100236245,16.57928948692239,14.608325002463062,15.303959526389889,5.681015278735657,14.028629565857386,3.3622335323129278,1.2753299605325026,7.897486051617974,8.198131484935415,8.347614287121743,15.072081351747599,17.622741272812576,22.75361819035666
53,41,53,0,1.7666666666666635,7.654943764118201,40.60500161553007,4.876847769907809,9.745416832249694,11.156189460303153,12.579853309585435,8.842210952327322,31.10534232083366,21.361216948532753,17.513583460331034,15.077919535384325,16.005791506792576,6.727071792709921,15.54185552108845,4.87132784989339,1.855743942816531,7.6865106764501725,7.710973377410726,7.770927760544225,17.16563147105292,18.325471435313247,22.743512396752585
54,41,54,0,1.7999999999999967,3.752902274487328,39.57391451325339,5.155509164187049,10.537083325322767,10.311018328374097,11.492359822293773,9.623743652267182,29.04345116059339,18.507199331283047,16.62107245131827,15.216474779375858,16.152873227337466,6.0865899117503375,13.343677883452699,1.8727968959231873,1.1704980599519956,7.973145481395896,7.990310507682042,8.193486419663941,15.684674003356676,17.08927167529906,22.25916806100782
55,41,55,0,1.83333333333333,3.995648490487342,39.66400767589466,5.167246090678657,10.803294284010585,10.568888095693382,11.769109253287455,9.631373583120714,29.578595908231456,18.776469567212622,16.776227923366093,15.485748852337935,16.42427908581297,6.335079075956429,13.608688385387865,1.8770604669500415,1.4077953502125524,7.7570815471547085,7.831246089581664,7.977506984537726,15.016483735600417,17.128176760919217,22.77870108094062
56,41,56,0,1.8666666666666631,3.0745482554497303,37.97153129137802,5.193112397214873,9.906704476984574,10.85737363627042,11.564168029149592,10.857373636270404,29.012897487851312,19.106195544509976,17.567627969965173,16.506496079161906,17.213917339697417,6.0130807145518474,12.14406497252628,1.2969389776484377,1.0611318908032672,8.031299979419925,7.8137232138484105,8.135344496158382,15.563267731781252,17.213917339697446,22.16712042097501
57,41,57,0,1.8999999999999964,1.620214107255066,36.804917471306,4.866150133528562,9.501109467322202,10.184202959888992,10.6571799665176,11.806686056509987,27.790525308159634,18.291132283080515,17.475166442536818,16.20214107255069,16.66505938890927,4.629183163585907,11.341498750785462,1.1572957908964838,0.23145915817929108,8.3453786299118,8.153803854900458,8.448259273544267,20.368405919777985,21.062783394315872,25.486796004969904
58,41,58,0,1.9333333333333296,1.6586001364872232,36.72614587936002,5.218125572808681,8.533233797795123,9.006946442212822,9.951600818923367,13.277260640791546,28.685749440700075,20.152684645117873,19.310844446244147,16.822944241513312,16.822944241513312,3.5541431496154985,11.847143832051614,2.8433145196923704,0.9477715065641235,8.306529240666634,8.111617483521217,8.293000682436116,20.850973144410844,22.98345903418013,28.00841200513927
59,41,59,0,1.9666666666666628,3.0737163627874557,37.323045691055164,4.84356266133369,9.457007653768455,9.448585202057124,10.369874690981495,12.442911220796736,29.763359924795065,20.306559530585545,18.7763597076885,15.666165154881213,15.435780373191761,3.110194552807286,14.168664073899919,4.031733679565008,1.0367315176024476,7.616647711694184,7.634049259876875,7.833082577440621,18.891552098533225,20.965015133738092,26.058952911245267
60,41,60,0,1.999999999999996,5.233827870013952,41.225501256880335,5.212333619568227,9.488809035525978,11.37236426087614,12.322339189870682,11.411783319318143,31.331385255053505,21.843337059932594,19.190864690228523,15.163152347834881,14.926228092399953,3.672325959241249,16.229311497292002,6.041568513590448,1.0661591494571496,8.06934937052137,7.87572717968298,8.055424684787283,19.427788945663423,21.560107244577708,26.798636483868464
61,41,61,0,2.033333333333329,5.718449706718506,41.89961931872553,5.2373678763979115,9.296625172554672,11.665046633795342,12.857561605255086,11.488812549064978,31.71949583665496,22.42338459882829,19.521098448392195,15.474041452993788,15.235979276793898,3.9280259072984336,16.30725906969346,6.308647669297471,0.8332176166996703,7.870466600690131,7.945715204250426,8.213145078896702,19.28303627219229,21.66365803419133,27.176650856443544
62,41,62,0,2.0666666666666624,6.682439708171721,43.56612819168453,5.713249391151635,9.287081708611993,12.37870701416189,13.330915246020496,10.068786001145208,31.718147679101765,22.438853151313563,19.044164637172145,14.997279651773084,14.521175535843781,4.7610411592930575,16.90169611549024,6.903509680974878,0.4761041159292745,7.870132086262461,7.913217072899768,8.09376997079815,19.044164637172145,21.42468521681866,26.688385577697595
63,41,63,0,2.099999999999996,6.667305976514353,44.41746015780424,5.462797645224185,8.553764034234444,12.11315999593188,13.063211760318694,9.784264817998592,30.447083981837693,21.89761119623444,18.52600940554285,14.250776465802204,13.775750583608783,4.275232939740647,16.388392935672556,7.125388232901116,0.7125388232901173,7.8415249113525585,7.659562198712296,7.9566835267395675,18.763522346639576,21.37616469870332,26.62794434914337
64,41,64,0,2.133333333333329,5.113373873514283,44.91085135269844,5.560137654137898,8.798964401520218,12.036521079256431,13.195909171399942,9.515705428769579,28.979277814482355,20.18585950936987,17.5918385004517,12.962407316122295,12.26799263847289,3.1248660494223657,16.31874492476112,6.82841099688585,1.967508253339986,7.883637229241366,7.464733487214929,7.754297233751743,18.28625317810112,20.600968770265823,26.86665968232876
65,41,65,0,2.166666666666662,5.097359200993973,45.13690972261872,5.559839771002794,8.798492998964281,12.498794541681946,13.426626363705585,9.284368967531101,28.734514880904282,19.939101541381202,17.359436863447172,12.498794541681946,12.035876225323364,3.008969056330841,16.43360023072998,6.9437747453788745,2.0831324236136766,7.883214865134586,7.46433356578274,7.638152219916748,18.516732654343627,20.59986507795729,26.642949916294018
66,41,66,0,2.199999999999996,4.893120046426952,46.39122717215948,5.571777584570629,9.28114443323236,12.527778894379077,13.461451991110609,9.304303906377296,29.03994479770015,19.765330635326478,17.2807321216294,12.061719064761462,12.061719064761462,2.783473630329553,16.93279791783823,6.958684075823925,2.3195613586079844,7.900141315041678,7.710579232757902,8.002486687197518,19.020403140585387,21.108008363332573,28.31385472795506
67,41,67,0,2.2333333333333285,4.893120046426952,46.39122717215948,5.571777584570629,9.28114443323236,12.527778894379077,13.461451991110609,9.304303906377296,29.03994479770015,19.765330635326478,17.2807321216294,12.061719064761462,12.061719064761462,2.783473630329553,16.93279791783823,6.958684075823925,2.3195613586079844,7.900141315041678,7.710579232757902,8.002486687197518,19.020403140585387,21.108008363332573,28.31385472795506
68,41,68,0,2.2666666666666617,5.952058428941447,45.87902307214522,5.478024511886389,9.132893545247043,12.555881010897702,13.702667534831484,9.141446280268115,29.694571875731913,20.562870889881694,17.57532864230214,11.869053109087133,11.640802087758544,2.6248867452788716,17.917705174295037,7.8746602358366715,2.396635723950311,8.001818032075409,7.84400168530354,8.10291125716526,19.401336812930893,21.455596004888292,27.633460436692474
69,41,69,0,2.299999999999995,10.712476777582266,46.45522541532468,5.237536017311271,9.347578889803975,12.98197794567377,14.34810148777539,9.134340748786737,34.422490497114474,25.07494910191178,19.697689804235893,12.752261607366592,12.524542650092172,3.529643837753241,21.74716041970555,11.72752629963179,1.25245426500922,7.755828212543414,7.795841349367613,7.97016350460413,18.900673453775497,21.177863026519532,27.805034858698335
70,41,70,0,2.333333333333328,13.097629710719342,46.26584811365452,5.195706395358889,9.932795109274618,12.864162646235656,14.008968902026924,9.489597604238448,37.71405738965106,27.78243507819903,21.21458401309036,13.992597966080865,13.992597966080865,4.513741279380923,23.697141716749883,12.638475582266608,0.22568706396904759,7.686624420240874,7.50218562696764,7.673360174947561,19.409087501337993,21.440271077059407,27.31652677134281
71,41,71,0,2.3666666666666614,12.126639267830623,45.231584817186615,5.211822680813928,9.315653886300874,12.337220169960084,13.640645338300068,8.88332573835666,35.53330295342667,26.21768141681615,20.126051667997046,12.768140305503493,13.200958620944306,4.11177399668756,22.506552402921443,12.118912832342318,0.8656366308815961,7.370630319890731,7.19377373271524,7.466115941353749,18.611187563954275,20.342460825717467,27.281290676600136
72,41,72,0,2.3999999999999946,12.216538556559108,47.476747930398545,5.204687744145972,9.054384356571298,13.340469911808352,14.484827415116662,9.088190514081317,35.552390088505284,26.498329754206043,20.346946994755257,12.886399763344997,13.112476952175626,3.9563508045357594,22.494680288646094,12.547283980099081,1.0173473497377756,7.699911594238067,7.7396362513231995,8.02574020348679,19.216561050602195,21.025178561247117,28.715363031468375
73,41,73,0,2.433333333333328,12.017768502011153,47.58370589923393,5.216472265108157,9.066394949453345,13.149977486344186,14.291287539004792,9.358979183050385,35.63288826761803,26.57282267203581,20.50631135181274,13.368755466927638,13.368755466927638,4.078603362791483,22.205729419642495,12.23581008837445,0.9063563028425392,7.717345833149213,7.532169886606268,7.817323112016993,19.260071435404214,20.846194965378672,28.55381996501782
74,41,74,0,2.466666666666661,10.49601905924686,48.50291260836439,5.014365800244478,9.119002303830383,13.206056074815407,14.35173563816146,8.501127510889344,33.11000584279074,23.99517811481459,18.670631002325223,11.839912342937936,11.156840476999207,3.073823396724265,21.51676377706997,11.270685787989038,1.4799890428672597,7.527577308525552,7.599547587976218,7.855326458295366,19.12601224628439,21.402918466080138,28.241898882805497
75,41,75,0,2.4999999999999942,10.720819783311994,48.947211920776596,4.558473253982236,8.43494962610753,13.430718181174214,14.570692960634846,8.27367835706241,31.96772210422822,23.53618544647578,18.09732365090423,11.609603851523474,10.926685977904441,3.073130431285648,20.60135585417399,11.268144914713957,1.024376810428521,7.298670907374297,7.115321146807408,7.398276964206133,19.121700461332765,21.398093373396193,27.34041708800101
76,41,76,0,2.5333333333333274,11.709585756459525,48.60465814241602,3.674411905252006,7.577594459948694,13.524949782599466,14.670815648979355,8.074342520890388,31.02724889501878,23.450555503374083,17.534069071752725,11.689379381168465,10.5433617947794,3.094247483250456,19.826104244530853,11.345574105251757,0.11460175863891209,7.348823810504055,7.164214159897288,7.334512552890018,18.107077864947243,21.315927106836625,27.322366765072164
77,41,77,0,2.5666666666666607,11.128498774107157,48.85062032680563,3.9404676357052804,7.880935271410562,13.885461754846064,14.809102528188419,8.38138293393191,31.323534232203492,23.443812686803433,17.817201479226696,12.032395804153083,10.412650215132487,2.8924028375367925,20.015427635754662,11.2225230096428,0.3470883405044276,7.188072065740134,7.232626658060143,7.404551264094209,18.511378160235523,21.288084884270845,27.791160144877637
78,41,78,0,2.599999999999994,11.487796408261625,48.94320658239482,4.212119792705494,7.969979485505315,14.042349229076226,14.976425929619595,8.079162374177434,31.695594606410527,23.72832098735496,17.901509118998433,12.636359378116538,10.764306136914087,3.7441064824048738,19.890565687776018,11.232319447214707,0.23400665515029573,7.491868426567572,7.314345836612976,7.371209637234642,18.018512446573567,21.060598963527553,27.862519061613046
79,41,79,0,2.633333333333327,11.654078078782234,48.93518073251709,3.9660643834646345,8.164633650303525,13.748716357367131,14.672405146565595,8.003606162518052,31.759271349978764,23.59610054076888,17.70004430379339,12.343451948698032,10.713184710190745,3.6098774566947327,20.145445161554335,11.295423009657611,0.34934297968015926,7.4671920035563,7.0486914147503095,7.219754913389423,18.165834943366917,21.19347410059474,27.730195462821015
80,41,80,0,2.6666666666666603,12.015954520650258,49.17713209764623,4.709883973320017,7.775854099402867,14.113982769678383,15.52500691167172,7.7043833357428,32.133055146082015,24.363399307992992,18.228029582511937,12.936020994040746,11.524818703781762,4.704007634196643,19.756832063625836,11.054417940362072,0.7056011451294921,7.2950044011847845,7.351658146748401,7.644012405569526,18.580830155076697,21.63843511730451,27.543561443596246
81,41,81,0,2.699999999999993,11.90038798405036,48.465159220282,4.658765629536134,7.923326392672143,13.745332518611383,14.675111733038818,7.402894393893642,31.783060637856465,23.873617074801917,17.819778532975704,12.811605481224376,11.64691407384035,5.008173051751356,19.45034650331334,10.831630088671488,0.8152839851688327,6.992029671176217,7.049991671432606,7.2210867257810065,18.169185955190926,21.19738361438941,27.269701685292215
82,41,82,0,2.7333333333333267,11.882408592381205,48.17666728536446,4.840898273288872,8.475029057354025,13.798683116522042,15.006784647195488,8.165204981057254,33.26686990025268,24.806946917841692,18.758480808994364,14.280649906202171,13.312470251544397,5.809077927946646,19.36359309315546,10.407931287571046,1.4522694819866615,7.277465847990512,7.325608374151474,7.503392323597737,18.395413438497698,21.29995240247102,27.631311345792987
83,41,83,0,2.76666666666666,7.787821891933287,45.97695410864847,5.357040715929592,8.517248393408932,13.135537171241964,14.351790613023638,9.598389824847565,31.212959255054407,22.70585891180369,18.730303003437626,15.081542678092632,14.595041301379979,5.351515143839293,16.297796119874306,7.054269962333677,0.4865013767126527,7.058462693736407,7.121057439710486,7.297520650689975,18.24380162672496,20.91955919864462,27.5260484091987
84,41,84,0,2.799999999999993,1.9753026206382742,45.18572206727669,5.678995034335088,8.6419489652925,12.3456413789893,12.841840976488495,10.663089906294735,26.931614151508345,18.29822304961768,17.283897930585,15.061682482366933,15.308595309946725,4.5678873102260695,11.728359310039792,2.5925846895877385,0.8641948965292272,7.411498898706248,7.198684099189807,7.407384827393571,18.51846206848394,20.740677516702007,27.43511526952006
85,41,85,0,2.8333333333333264,1.9801980198019749,45.050184958419045,5.69306930693071,8.663366336633658,12.128712871287135,12.873666954401818,10.689516278063943,26.998358861922206,18.343571597672184,17.326732673267315,15.099009900990097,15.34653465346534,4.579207920792072,11.75742574257427,2.5990099009901257,0.8663366336633942,7.182484222052916,7.216524622333283,7.425742574257427,18.56435643564356,21.039603960396036,27.255836071219345
86,41,86,0,2.86666666666666,1.408311025472159,41.32112439274493,5.4036257646737,7.983880140890349,11.276263900370342,11.745310199943242,9.39167369282619,24.18625845527046,16.202378799442783,15.49142128019389,13.613673246231002,14.55254726321246,4.694370084907234,10.092895682550562,1.643029529717552,0.7041555127360937,7.045466016375147,7.076675320924277,7.3936328837289125,18.073324826892886,20.18579136510114,25.828635802763465
87,41,87,0,2.899999999999993,0.5521004034202401,42.23261352580365,5.684221554304549,8.394831420678514,11.861810033837871,12.10095271296622,9.38570685814414,23.951232911265546,15.557088263318938,15.308222002413743,13.826781163470486,14.814408389432685,4.938136129810886,9.629365453131243,0.7407204194716428,0.7407204194716428,6.917798226799977,6.707508677998327,6.913390581735243,19.258730906262457,20.49326493871517,26.423642971954788
88,41,88,0,2.933333333333326,0.47731473454368256,41.298759242273874,5.966434181795904,8.114350487242433,11.455553629048126,11.935254698654878,9.072119641366301,23.628284669406764,15.51456458995555,15.274071505397501,13.84212730176651,14.796756770853847,5.250462079980423,9.307637323601597,0.7159721018154812,0.47731473454365414,2.6252310399901972,3.1025457745338656,3.1025457745338656,19.808561483562414,20.52453358537791,25.30781058345191
89,41,89,0,2.9666666666666592,1.6520465011377004,40.429598090343724,6.308135732465985,9.111751613561978,11.684068950879583,12.384840712580141,8.64448230004595,25.700874197151677,16.589705862713576,15.770339331164934,13.784444748721938,14.718983375753936,5.6072317621919865,11.448098181141944,1.869077254063967,0.4672693135159989,2.569981224337994,2.5699812243379796,2.569981224337994,19.15804185415591,19.39167651091391,25.236869126711767
90,41,90,0,2.9999999999999925,4.4917257683215155,41.377236973233806,6.146572104018901,9.21985815602838,11.822694799101635,12.77471024690903,8.986561611701287,28.842576428326176,19.623173493567027,17.375886524822675,14.420803782505914,15.130023640661932,5.791962174940892,14.066193853427905,4.137115839243506,0.11820330969266024,3.5460992907801483,4.261880940264759,4.255319148936167,18.91252955082743,20.094562647754145,26.245393984839854
91,41,91,0,3.0333333333333257,4.255307257903127,41.145504630239195,6.146554928082253,9.459192963794274,11.593537187163523,12.77467454935105,8.750214566514364,28.609028281114828,19.150341901005074,17.021229031612393,14.420763485116055,15.366387320205632,6.146554928082253,13.7115456087989,3.5460893815859436,0.0,3.5460893815859293,3.7898758260892302,4.018901299130718,18.676070743019153,19.858100536881125,26.005730015302273
92,41,92,0,3.066666666666659,9.624307079128386,42.02880610020356,5.404102148855608,7.7463935027131186,12.461092191401232,13.633073787802976,8.453870731827626,31.22384292111042,23.478614019747752,18.661766165627057,15.023308611322392,15.962265399530054,7.042175911557393,15.727526202478117,7.042175911557365,1.643174379363387,4.694783941038239,4.718199467547006,4.929523138090147,18.074918172997258,19.013874961204905,25.82557930844353
93,41,93,0,3.099999999999992,12.101247807772333,44.70827053093275,4.938256551595714,7.654297654973362,12.614321818678624,14.108643043983648,8.656046770692402,33.34146113500573,25.68961557485423,19.629569792593003,15.802420965106307,17.036985103005236,7.777754068763244,16.913528689215326,8.271579723922827,2.5925846895877385,5.191044927099239,5.4544826407865,5.555538620545192,19.2592005512233,20.49376468912223,27.91098059622379
94,41,94,0,3.1333333333333253,9.316698052547599,44.14095681753974,5.392011103169381,7.597833827193227,12.01947884339736,12.782404273695024,7.369063726311182,29.66517463702542,22.070478408769873,17.40149037841033,15.195667654386483,16.66621613706903,8.578199482314943,13.72511917170391,5.392011103169409,2.9410969653651193,5.397578488341872,5.902582878973862,5.882193930730267,19.117130274873304,20.34258734377545,27.722428381855725
95,41,95,0,3.1666666666666585,9.879059192114624,45.06394597565992,4.578100601223866,4.578100601223838,12.057267415482794,12.550372838464709,6.750975925185128,25.783060887226263,21.2052033685917,16.264304767505763,14.457159793338462,15.180017783005383,8.071914217947324,10.963346176615005,5.9033402489465345,3.2528609535011697,5.782863917335376,5.787881587621982,6.023816580557693,19.03526039456233,20.48097637389617,27.478113250559392
96,41,96,0,3.199999999999992,7.498063766587052,43.1706701712589,4.5499578762084445,5.457868858162169,11.133488623114147,11.817315332272575,6.366049599748108,23.867211379626074,18.409947704886175,14.655306452874726,13.860057265509425,13.860057265509425,7.49806376658708,9.99741835544944,4.317067017125908,3.1809967494611726,5.9119332781403475,5.925017617151183,6.021172418622953,18.17712428263532,19.76762265736592,25.679209222003394
97,41,97,0,3.233333333333325,7.498063766587052,43.1706701712589,4.5499578762084445,5.457868858162169,11.133488623114147,11.817315332272575,6.366049599748108,23.867211379626074,18.409947704886175,14.655306452874726,13.860057265509425,13.860057265509425,7.49806376658708,9.99741835544944,4.317067017125908,3.1809967494611726,5.9119332781403475,5.925017617151183,6.021172418622953,18.17712428263532,19.76762265736592,25.679209222003394
98,41,98,0,3.266666666666658,8.231263292454031,45.514044087686926,5.5682075213659346,7.762187585197646,12.59131854864195,13.315278855440326,6.336258142690989,27.86733996282041,20.10708767422301,15.978334626528408,14.767854730579273,14.767854730579273,8.47335927164383,13.073182876250513,4.841919583796482,2.905151750277895,6.541073160583981,6.576816995875067,6.657639427720156,18.883486376806275,21.304446168704516,27.867339962820395
99,41,99,0,3.2999999999999914,9.341441616353062,44.97144385260655,5.985027477171243,8.614874795959432,13.158713879888204,13.876230848430637,6.7362093469028395,30.664607458869366,22.054054569561565,17.342711060180733,14.591798271324478,14.591798271324478,7.893923654978806,16.02705711768425,6.6978746163456435,2.1528882695396874,6.2240534895065,6.260719806630779,6.4586648086190195,18.658365002677172,21.050463079943484,28.482043911217
100,41,100,0,3.3333333333333246,9.953163970144667,45.7248134659656,5.6908443903938535,8.542017956963596,13.50403825512835,14.696243380543965,7.170287025250198,31.329890443346535,22.788021259992377,17.76847138832676,14.688603014350122,14.925515966194496,7.699670934941622,16.465450153182815,7.225845031252902,2.487585994365759,6.164291082585066,6.200605335356415,6.278193223875462,18.479210243859853,20.848339762303425,27.971785601162416
101,41,101,0,3.366666666666658,14.692553163982755,47.085735401572904,5.12814940017131,8.637205585677991,13.987804346424822,15.158521040661682,7.285934626435714,35.71266728459806,27.075479373566598,19.69675565065799,14.685155100490562,14.685155100490562,7.4591264002491755,20.97879300070079,11.421787300381538,2.564074700085655,6.310880776084941,6.332368345153564,6.526735600218018,18.41471830061515,20.512597600685226,27.541062923840183
102,41,102,0,3.399999999999991,17.525719589618316,48.12247128298017,4.911016226343877,8.412599665846807,14.251101025757563,15.41892210284946,7.301423112814964,38.12152616436509,29.711368100009565,20.906593242602924,14.949966117615475,14.482779676440003,7.474983058807737,23.35932205877421,14.015593235264532,3.0367118676406335,6.077914252519753,6.113719653583995,6.19022034557517,19.154644088194843,21.256983073484534,28.280219653861263
103,41,103,0,3.433333333333324,17.56756386306275,48.00322826826048,4.9227417309551855,8.43268552417612,14.51924684121338,15.688113379758974,7.55114111356107,38.44641598120634,30.016105578717433,21.19066060997295,15.219811487825865,14.75150959589277,7.492830270929659,23.415094596655194,14.049056757993128,3.043962297565173,6.326410183732381,6.159549701394208,6.205000068113634,19.20037756925727,21.30773608295624,28.12249366245237
104,41,104,0,3.466666666666657,19.251951932617384,49.53272912578228,4.224781788402794,8.452822810707627,14.553918860349508,15.960286756188324,7.3700466151316695,39.24153521032444,30.790887889568207,21.12390894201397,14.552026160054055,13.613185762631218,6.806592881315595,25.113980631061054,15.72557665683263,3.0512312916242195,6.5760726980896855,6.87103543462042,6.806592881315623,19.246228147168267,21.123908942013955,28.4086495690074
105,41,105,0,3.4999999999999907,18.653794565284972,48.950915962069686,3.7295935971100675,8.391585593497638,13.752876389343385,15.158644586857136,7.5172362190763256,38.253909917512146,29.869510421471233,20.5127647841054,13.053577589885236,13.053577589885236,5.594390395665101,25.17475678049297,15.850772787717801,2.3309959981937993,6.54341758315426,6.332419955730567,6.526788794942618,19.347266785008486,21.445163183382903,28.453432292005242
106,41,106,0,3.533333333333324,15.629974549360902,46.227622969777364,3.1326808566158144,7.811799435561596,12.506847780587837,14.105454044974412,8.062844720046112,34.621021418222874,26.816770592587073,18.971512914935317,11.159713479373721,12.722073366486029,3.9058997177808124,22.65421836312865,13.503253310042197,1.0043742131436488,6.285207698040871,6.26536171323163,6.472633818036755,19.194707184522812,19.86428999328524,26.79168082823608
107,41,107,0,3.566666666666657,8.526625582440827,46.13059917794874,4.607304382281285,8.062782668992213,12.24407934682532,12.951771003804243,7.386070804862336,28.56621604705397,20.503798646931784,16.240747947541507,11.51826095570317,13.821913146843826,5.298400039623459,15.895200118870378,6.680591354307836,0.6910956573421743,6.029234769982608,6.466659858987999,6.565408744750812,19.81140884380946,20.272139282037585,27.64766544741679
108,41,108,0,3.5999999999999903,6.700993499914498,45.79494234232027,5.080492700681617,8.544464996600908,11.813674815054648,12.77658579829519,7.4042267150502905,27.71274056517641,19.168704473804958,15.818806818031419,11.54657431973095,14.086820670071774,5.426889930273546,14.895080872452922,5.195958443878936,0.11546574319731917,6.273520649477458,6.273520649477458,6.466081619049348,19.86010782993725,20.78383377551573,27.48957819715368
109,41,109,0,3.633333333333324,7.109418591256201,45.008338463110334,4.816057755367098,8.256099009200739,11.503439429906267,12.460359377817918,7.5715647502435175,27.750613767843717,19.494916094166918,15.938857809429209,11.69614026303438,13.989501098923483,5.274729922544907,14.90684543327913,5.504066006133854,0.45867216717780934,6.002299715658229,6.458162750664327,6.536078382283918,19.722903188646214,20.410911439412942,26.84799830020851
110,41,110,0,3.6666666666666567,6.470566416260925,44.62070891734166,4.855328355250719,8.775887909785638,11.814336387019484,12.754322396046193,7.855505742358719,27.945228959591788,19.169777931275256,15.93516488882122,12.240054189964155,14.318553958071249,5.427193838946351,14.66497058608914,4.734360582910682,0.3464166280178347,6.273871969913085,6.532094580992046,6.5819159323392,19.63027558767834,20.78499768107119,27.728722261632655
111,41,111,0,3.69999999999999,5.584728210861231,44.6687507917705,5.347391382215676,9.067315822017889,11.893673085277715,12.839971373210501,7.918503817180537,27.900402012021825,18.833552577851655,16.042174146647056,12.554744984332473,14.182211926745936,5.4636390209594765,14.530954842977422,4.301162633521329,0.11624763874382893,6.08498373268385,6.316002841346086,6.50986776965388,19.994593863936913,21.157070251375103,27.443307656606105
112,41,112,0,3.733333333333323,6.743292592079968,44.8928323711525,5.348128607511683,8.836038568932366,11.879393268519209,12.822780743451297,7.93664525331252,28.841826271793337,20.009513874035978,16.62570414943852,13.021530522637164,14.18416717644405,5.696919603653754,15.230540164870263,5.464392272892383,0.11626366538067145,6.295438614655165,6.316873605562041,6.394501595937896,19.764823114717146,20.69493243776266,26.98218931729535
113,41,113,0,3.766666666666656,10.722348552884341,45.68890707037672,4.900531936154169,7.9286412675757445,12.123156841846413,13.52751831260665,7.285835658979713,30.800247673090492,22.872976430744906,17.482090031876623,14.218766559259649,14.684955626776372,7.225930546509005,16.316617363084873,7.692119614025728,2.3309453375835574,2.8068298740507167,3.030228938858613,3.030228938858613,20.046129903218542,21.444697105768668,26.58197635603239
114,41,114,0,3.7999999999999896,7.960346610953536,45.423214875693496,5.390027687067005,7.9637889231624355,12.642903440926219,13.347340560412412,6.572281702564921,27.876948381745475,19.91325767312395,15.920693221907072,14.515926172915272,14.047670489918005,7.726218769454903,13.579414806920767,5.150812512969935,2.5754062564849676,2.341278414986334,2.341278414986334,2.341278414986334,19.432610844386588,20.837377893378388,26.7069989009716
115,41,115,0,3.833333333333323,7.707251653492989,45.07634957464654,5.143473054630604,8.177693606253033,12.611866342079452,13.314574136920333,6.789127333933432,27.80851318357178,19.63096653932973,15.764832927599286,14.246737904941597,14.013184824532715,7.35692203287968,13.662855203919406,5.254944309199772,2.4523073442932173,2.3471794090388802,2.3355308040887905,2.3355308040887905,19.618458754345824,21.019777236799086,26.867741726286066
116,41,116,0,3.866666666666656,6.071966095012073,45.08235065497374,5.376429120215367,7.710263827353882,12.143932190024088,12.84666655216274,6.788664472760456,25.939450528612007,18.22936660353793,15.17991523753011,14.479303765028732,13.545155135026874,7.239651882514352,11.910395032523638,3.9701316775078794,2.1018344175041648,2.8121597697041394,2.8121597697041394,2.8024458900055578,18.215898285036147,20.31773270254031,27.33981111688953
117,41,117,0,3.899999999999989,5.379529992131097,42.378620637659154,5.608158225053128,7.857945871129733,11.431501233278581,12.112241381098062,6.056120690549017,24.896475717108697,17.04107589498906,14.345413312349592,13.897119146338667,12.776383731311341,7.284780197677549,11.543574774781291,3.4742797865846455,1.9052502055464515,3.59335109733288,3.836780035683345,3.810500411092846,17.707619557431514,19.949090387486137,25.785684026722954
118,41,118,0,3.9333333333333225,7.549162524628646,42.340571177925746,5.541276093580763,7.760952328545812,11.747505318391234,12.414437319055507,6.000974316398619,26.84266436165887,19.08259732443515,15.293922018282899,13.742364712080303,13.077411580850594,7.425309965398213,13.409888146465477,5.208799527965937,1.8840338718174507,4.211369831121388,4.482614944841634,4.43302087486461,17.288781411971996,19.726942893147537,25.498541857076127
119,41,119,0,3.966666666666656,10.612586661406516,46.753530326255266,6.028476208722165,8.436564279136045,13.252050256250712,14.456782097728038,6.5233754073616,31.597064036599136,23.162203333882463,17.830031253864604,15.179621202614442,14.21583572943257,8.192176522045884,16.866245780682732,7.710283785454976,2.40946368295468,5.306293330703258,5.562678871408547,5.662239654943477,18.793816727046462,20.962334041705674,27.484789301735844
120,41,120,0,3.999999999999989,9.503915012465908,46.80180580702318,5.942840093591378,8.554150091036027,12.826277681141079,14.015908752786302,6.483134243495333,30.448458149258325,21.898599500530295,17.101703574854753,14.726466967236036,13.776372324188543,7.838280805141778,16.15160893180726,7.125709822856152,2.137712946856851,5.225520536761181,5.247069166477582,5.344282367142114,17.576750896378513,19.95198750399723,27.578327993085757
121,41,121,0,4.033333333333323,9.558437882257609,46.78338891780211,5.966570119327116,8.59517509383352,13.128623745099967,14.08919342339412,6.514226824014209,30.594486459196602,22.003623389076694,17.183721943662107,14.797093895931283,14.081105481612013,7.995203959898333,16.10973932218323,7.0405527408059925,2.5059594501173876,5.2505817050078605,5.272233680186404,5.369913107394396,17.661047553208277,19.809012796166044,27.47215190995349
122,41,122,0,4.066666666666656,10.45353344287457,47.27582271228411,5.705401463562177,8.079137175788288,12.59074599429466,13.77814772751478,6.522047771844576,30.69881011751628,22.62547419296545,17.338884863273165,14.251138243786187,13.301062360867093,7.363088092622888,16.863846921813632,8.075645004812145,1.9001517658381601,5.2308127290524045,5.2469655602820815,5.225417356054933,18.051441775462507,19.951593541300653,26.39133982847991
123,41,123,0,4.099999999999989,13.703675217672139,47.356978206547346,5.29378435289623,8.897247263592263,13.461188432874934,14.665050439344709,7.008173410673372,34.88469021695964,25.988670084402187,19.110080007384965,14.66308025723879,14.182323527493253,7.4517293110558,20.43216101418517,10.817026419274498,2.6441620136004644,5.05366571590524,5.3372658582236845,5.408513209637263,18.0283773654575,19.951404284439647,27.179767840279663
124,41,124,0,4.133333333333322,16.833011672412503,46.632459717922075,4.326723066611322,7.93596680919439,13.460916207235243,14.910909197312742,7.51335441675996,36.57549645495355,28.640782879154152,20.191374310852865,15.383904236840294,15.383904236840294,7.932325622120771,21.152868325655362,12.259048688732094,3.8459760592100736,5.528590585114472,5.549453265227274,5.648777336964784,18.268386281247828,20.191374310852865,27.8998989873063
125,41,125,0,4.166666666666655,9.794073893877567,42.60805547137707,5.243639853087273,7.292171155011107,11.852753451721064,12.75710646919451,5.712421479364394,28.030417059312473,20.738253840844024,15.829956642430005,15.032764581300427,16.17161038291411,9.907958474038907,12.413419237588982,4.44149862629331,4.44149862629331,5.0109215271001375,5.283066271781783,5.352575267584243,17.31045618452775,18.44930198614142,25.53555396821722
126,41,126,0,4.199999999999989,10.16503016043552,43.283723019407006,5.914627287415048,7.804650594464409,11.369150940822397,12.54904597422554,5.2221594359352235,29.092085469725987,21.287461042898236,16.193129441624023,15.602139316017315,17.02051561747342,11.110614361406249,12.765386713105102,4.255128904368377,4.964317055096416,5.4422457737850936,5.693170794100496,5.673505205824483,17.493307717958814,19.85726822038569,26.51432263013546
127,41,127,0,4.233333333333322,10.500714829576452,43.45837157264256,5.971086388577784,7.87915124108843,11.942172777155525,12.90711332286238,5.272008465054723,29.608316549824444,21.729185786321302,16.467030073654,15.989724854127786,17.421640512706404,11.455325268628883,12.887240927207444,4.295746975735796,5.250357414788255,5.017383792461825,5.509723343527498,5.48901002455132,17.89894573223259,20.285471829863596,27.232552989734348
128,41,128,0,4.266666666666655,11.325005302028814,44.593426473397855,5.787999203073803,7.232741632931078,12.069544678737744,12.807069967080789,6.028756215513317,30.369256919678357,23.136945127870412,17.46942307227846,16.626071613616773,17.83085941170495,11.204526522220021,13.132186999161064,4.93962997216147,5.180587531779167,5.306539794007924,5.5629372431441375,5.662502651014407,17.58990185208731,20.722350127116556,27.039904769543906
129,41,129,0,4.299999999999988,9.656990176851952,42.08066239265854,5.751175246647804,7.369974617040996,11.054961925561509,12.191420215865394,5.5215033672581635,28.296523153680887,20.928914320040217,16.090423496637044,15.630697111018833,16.780013075064346,10.688638465623171,12.067817622477776,4.022605874159268,4.71219545258657,4.84896936438407,5.306803895818449,5.286853434609313,15.860560303827938,19.078645003155344,24.893239265423883
130,41,130,0,4.3333333333333215,9.593971630359835,43.39982386293663,5.999152895085397,7.676525495445933,11.27194603224682,12.230843524792865,5.774531579414291,29.037458644487963,21.361461074215892,16.54443173503472,16.78420610800623,17.02398048097774,11.149508343175569,12.108605835061638,3.716502781058523,4.915374645916103,5.296789024280248,5.5356212582473905,5.514810578344907,16.784206108006245,20.620596075550523,26.463314341643738
131,41,131,0,4.366666666666655,9.501985327044386,42.74623771398155,6.17892642366144,7.840286598930734,10.926450899784614,12.113575085232876,5.936885842373471,29.45557057753755,21.615483076425633,16.860755792340626,17.09823122603555,16.860755792340626,11.042607666814632,12.46746026898424,4.155820089661404,4.630770957051311,5.229853925318611,5.704355668097986,5.699410408678517,16.860755792340626,21.135313598849507,26.23001897873709
132,41,132,0,4.399999999999988,9.740926653604312,42.99246671078698,6.1799023371369515,8.078932079612137,11.400621172641777,12.597145442162146,6.19357974745755,30.18751172557143,22.109125302407115,17.219688229511007,16.86341881786595,16.388392935672528,10.45056940825495,13.538237642512087,4.750258821934068,4.275232939740675,5.230679940158541,5.483412049209905,5.462797645224185,16.863418817865934,20.663625875413203,26.66922390605741
133,41,133,0,4.433333333333321,9.930116218006226,43.25725943102482,5.91383418057388,8.050279723453103,11.5818532145842,12.529540273806553,6.150016922789571,30.041527817279825,21.993318683584175,17.018233294899204,16.781868943581173,16.309140240945084,10.400031457993975,13.472768025128545,4.963651377678929,4.490922675042867,4.969275913622433,5.248140293568959,5.200015728996988,16.54550459226313,20.56369856466989,26.57811768206428
134,41,134,0,4.466666666666654,10.857373636270404,43.6300465373817,5.899891427917129,8.03129997941994,11.318740168568183,12.500000000000009,6.405971969055708,31.183648420696745,23.15236550484098,17.685531513387758,16.978110252852275,16.270688992316764,10.257608277764916,14.502135840977957,5.7772736277066485,4.362431106635654,4.9575600990034765,5.444029345623908,5.423562997438921,16.74230316600709,20.75102364237499,26.75033674581005
135,41,135,0,4.499999999999988,11.573608837379782,44.33754776029202,6.1341531276250745,8.264873680205627,11.787732807074974,12.968649134832512,5.736158354883423,31.67896994072114,23.41579048651768,17.5637218825417,16.738580586046453,15.55980730533895,10.49108219829671,15.441929977268217,6.483253043891239,4.361461138617727,5.191957730742058,5.442818888833925,5.54023441932523,16.738580586046467,20.746409740451952,26.724638705084434
136,41,136,0,4.533333333333321,11.958014483844535,44.955958603318585,5.856336029362552,8.22235836600593,11.93967396003833,12.875772164589051,5.893637909867577,31.918949541243727,23.697402993633094,17.672002856910723,16.384638410380802,15.214307095353604,9.947816177731198,16.033539015872663,7.13902102166594,4.3302258656006245,4.687173263963045,5.403839306402249,5.266490917622406,16.618704673386247,20.831897407484163,26.066617846392525
137,41,137,0,4.566666666666654,14.16166408920081,44.99930400435794,5.815475034220893,8.360486483336992,12.761728753373577,13.914622662488144,6.595293601593793,34.8928502053253,26.535617973144163,19.361827582629616,17.62274127281259,16.46335039960124,10.550456946223335,17.738680360133714,8.927309723727433,5.217258929451077,5.338236466660017,5.608384830512907,5.565076191414505,16.46335039960124,20.637157543162104,26.51636172152993
138,41,138,0,4.599999999999987,17.708918089341523,44.84212503652032,5.749884211265149,8.530933200359716,12.887902961171667,14.25017194353789,6.580802523870892,38.49464225971742,29.963765751913662,21.027760728153623,18.15511581993593,16.546434671334026,10.916050651227295,21.027760728153652,11.835297021856974,5.630384020106703,5.061075334162998,5.3056126138100685,5.285666631120591,17.00605785664885,20.91285493182494,26.50914325664337
139,41,139,0,4.63333333333332,17.668327171381723,44.73934162483382,5.736704802047718,8.495923723446676,13.077278346260469,14.217508877541734,6.565718552393455,38.38929393505731,29.895085285311133,20.97956263348246,18.342787001951876,16.73779313928108,11.120314619933339,20.750277795958056,11.578884294982117,5.61747851934777,5.2785333626730635,5.318222142276619,5.273551263061165,16.73779313928108,20.635635377195868,26.21980140407243
140,41,140,0,4.666666666666654,18.39261465946018,45.53593281522921,5.750491649012325,8.516341716744238,13.577834912873985,14.941099462553845,6.806402177655662,39.383166150055466,30.867393836211058,21.604571850743554,18.157033789454687,16.54818269418655,10.687367989995465,21.949325656872446,12.755890826768791,5.630978833438462,5.061610003746999,5.331003262681029,5.286225027309598,17.007854435691726,20.91506423848577,26.97023810541843
141,41,141,0,4.699999999999987,16.55281709574545,46.89564438062483,5.2906601765244226,8.285974810223593,14.25017194353789,15.399091624431149,7.079539981215706,37.102296964487,28.818227108600666,20.453231746510085,16.776246263991425,15.627188300704347,9.307369502625392,20.797949135496197,11.835297021856945,4.481326056819626,2.9875507045464076,3.477680448146446,3.447173889861247,18.15511581993593,20.4532317465101,26.923288756082727
142,41,142,0,4.73333333333332,13.860813084298174,48.26386824187704,5.54605564234439,8.094168802916073,13.860813084298174,15.240179978878611,6.611549321194854,34.03503323495795,25.942510982558215,18.93259602637883,15.238430948061023,14.314889678481563,8.311871426215106,19.163481343773697,10.389839282768861,3.232394443528108,2.539738491343499,2.770623808738378,2.6551811500409457,18.701710708983967,21.24144920032748,26.34623039215309
143,41,143,0,4.766666666666653,12.172828356677382,48.63296292695118,5.503414776953093,8.267851736854443,14.224549980021067,15.594694538763893,6.342372150380245,32.2021946214439,23.937262333303224,17.77144355057777,14.446463789501934,13.070610095263646,7.5671953183105245,18.344715923177063,9.40166691062825,2.5223984394368415,2.989822904228389,2.9898229042283875,2.98101633751628,17.886098025097624,20.40849646453448,27.093412737626497
144,41,144,0,4.7999999999999865,13.80592066992041,47.82069467902652,5.515478223778018,8.046688096030538,14.485424106311877,15.399091624431149,6.410054632930704,33.647587913293776,25.612396323172703,18.614739005250755,14.937753522732095,13.55888396678759,8.0434057430096,19.304173783223007,10.341521669583756,3.2173622972038345,3.684160095160473,3.6841600951604594,3.7918912788473733,17.695492634621104,20.91285493182494,27.152801309469872
145,41,145,0,4.83333333333332,13.577153583582746,48.04703008745164,5.515784104752612,8.047134354486701,14.4862274483728,15.629744756946756,6.410410125905005,33.42028361923365,25.384927804106546,18.50085918469108,14.478933274975617,13.329811586485476,7.699115312883862,19.420156535483187,10.457007365260182,2.872804221225323,3.447365065470393,3.455017383577689,3.562277234319396,17.69647400274799,20.68419039282233,26.708119548342047
146,41,146,0,4.866666666666653,15.374445461392364,47.47253702503301,5.506525329198208,8.026661896471092,14.220251138061146,15.360767126423431,6.340455403940892,35.16419650058736,27.14724023828243,19.37075033424236,15.817535775890207,14.442097882334537,8.940346308111856,19.943849456557246,11.00350314844539,4.12631368066701,3.9038105519492476,4.151706619911684,4.240933505129988,17.42221331837183,20.631568403335052,27.34109300484527
147,41,147,0,4.899999999999986,16.291693700494303,47.70506538729428,5.502141929839553,8.26593952204872,14.450398698565362,15.820319235801671,6.394555274710477,36.32675519844259,28.06302153030663,19.83063653879674,16.047913962032055,14.67237847957216,9.170236549732607,20.86228815064166,11.692051600909053,4.355862361123002,3.904087531808408,4.152001188282658,4.24123440425133,17.652705358235252,20.633032236898345,27.087146487743972
148,41,148,0,4.933333333333319,16.39389892639983,48.043649423332745,5.7748250876019736,8.78285977240754,14.548256531809042,15.932470403430358,6.110977390212669,37.00140622413238,28.21910350480001,19.964929243379515,16.849015430828956,15.002547986354557,9.924762514049945,21.00356718089637,11.540421527965037,4.846977041745333,4.39142988620377,4.439688806479757,4.269955965347066,17.310632291947556,19.849525028099862,27.721043785882152
149,41,149,0,4.966666666666653,16.30768887605258,48.2185546517159,5.59377628053247,7.931332941808413,14.439938998015057,15.835292841851967,6.668437923359328,36.41822529373429,28.487579296299792,20.25985995942824,16.766780656078538,15.602420888295313,9.664186072600842,20.14342398264992,11.527161701054013,4.541003094354608,2.108745227325889,2.3403341688917356,2.3287195355664636,18.396884330975084,20.9584758200982,27.968881402662394
150,41,150,0,4.999999999999986,15.89780209014428,48.16795654028314,5.613430081639927,8.209146212265491,14.02919662928188,15.191657390355568,6.235631006221695,35.8643964883978,27.655528840296657,19.62997276820286,16.59200079217146,14.95616972815455,9.69814130810019,19.980507996206484,11.333972372117131,4.323267812044662,2.3485569615051123,2.5811920950280407,2.6874367480277783,18.695212160193194,21.966874288227004,27.133228075066803
151,41,151,0,5.033333333333319,15.89780209014428,48.16795654028314,5.613430081639927,8.209146212265491,14.02919662928188,15.191657390355568,6.235631006221695,35.8643964883978,27.655528840296657,19.62997276820286,16.59200079217146,14.95616972815455,9.69814130810019,19.980507996206484,11.333972372117131,4.323267812044662,2.3485569615051123,2.5811920950280407,2.6874367480277783,18.695212160193194,21.966874288227004,27.133228075066803
152,41,152,0,5.066666666666652,15.080368797224544,48.27198731588485,5.653837061811122,7.781538361428307,13.894943111064597,15.071181852237114,6.231812683451381,34.696466229905454,26.915933316070863,19.30052996096353,16.476062161798126,15.063828262215452,9.65026498048178,18.829785327769287,10.356381930273102,4.472074015345214,2.3654625064561046,2.599772210266849,2.5890954825682826,18.123668377977936,21.8896254435318,26.86958244076858
153,41,153,0,5.099999999999985,14.496684748260687,47.520779174445416,5.701671412778951,7.865302835381285,13.548456420033592,14.961445718619562,6.333653137517208,34.3193745645575,26.454073729601404,19.107776778050777,16.8528217545541,14.716548574399354,9.613229310696369,18.395685717999157,10.08795668406404,4.391228203651451,2.3854755281435107,2.6538066940753744,2.729682396864405,17.56491281460569,21.837459174915182,27.09691284006718
154,41,154,0,5.133333333333319,14.672104099832112,45.45751667432348,5.692550499109369,7.8573126448448,13.270460682102833,14.672104099832097,6.0262837050236975,34.19780709753551,26.343360560103328,18.909623511607407,17.01866116044667,14.41858792760064,9.809367196646349,18.31869777686967,10.282107784436505,4.845591024849398,2.4105134820094736,2.4105134820094736,2.3637029389509223,17.49140174823684,21.50969674445342,26.761042565388212
155,41,155,0,5.166666666666652,10.362124151296115,40.74266877863103,6.141162244557988,8.961493535074966,11.071137681848684,12.248410965144462,6.845804134469897,32.29481371565175,23.33380211101822,18.133717264768165,18.133717264768165,17.898214443147822,11.186384026967374,14.247920708032126,5.063310664837871,5.063310664837871,3.56380437018845,4.265137501780973,4.239050789166583,17.19170597828672,21.66625958907366,27.148276615900386
156,41,156,0,5.199999999999985,5.993119054976802,41.472383860439464,6.956150061406088,9.840402192756754,11.02994445730972,11.98863511789875,8.154166516842299,30.939357403816874,21.101226660200116,18.099219546029957,18.21908192712948,18.21908192712948,10.068440012361009,12.705412396550827,2.6369723841897894,3.116421908587938,4.341600097722006,4.848133279837025,4.794495243981444,17.260182878333197,21.814953360115567,26.717214510034903
157,41,157,0,5.233333333333318,5.993119054976802,41.472383860439464,6.956150061406088,9.840402192756754,11.02994445730972,11.98863511789875,8.154166516842299,30.939357403816874,21.101226660200116,18.099219546029957,18.21908192712948,18.21908192712948,10.068440012361009,12.705412396550827,2.6369723841897894,3.116421908587938,4.341600097722006,4.848133279837025,4.794495243981444,17.260182878333197,21.814953360115567,26.717214510034903
158,41,158,0,5.266666666666652,6.874192564512528,41.22133648053957,6.8741925645125,9.478973604812234,11.371215376031373,12.321094334498254,8.321914084484556,31.539788005791603,22.06354825567897,18.59667514621799,18.004424345383,17.767524025049028,9.594462973526475,13.621768419204244,3.4350546448428076,2.961254004174833,4.7380064066797445,4.99741773214766,4.9749067270137175,17.530623704715026,20.61032786905686,25.655331260568936
159,41,159,0,5.299999999999985,9.027623369436917,42.510803786406015,6.666572666022741,9.511339648381998,11.399367263619723,12.589041595896257,7.6144066350676685,32.815316311609784,23.303980161871543,18.761458621374146,17.336537713421677,17.0990508954296,9.618216128679137,15.555386578481091,5.343453404821759,2.731098406908899,4.512249541849485,5.009789913798876,4.987223177833627,18.04899816739791,20.89883998330285,26.44754544575863
160,41,160,0,5.333333333333318,9.929644691321178,44.43501659683381,6.385909856975223,8.993849887078209,12.292635055148782,13.474201390907398,7.622159339667068,32.90745199230544,23.91375113686937,18.908250213845207,16.544718937114567,16.308365809441483,8.86324228773995,16.42654237327801,6.736064138682337,2.4817078405671964,4.732967693244587,5.221211245380715,5.199768808807434,17.253778320133762,20.562722107556667,27.24629813329886
161,41,161,0,5.366666666666651,10.104697676930483,45.77956016301836,6.342303852842511,8.46364211331918,12.441177443751357,13.616896892413497,6.639427121827702,31.52591986825738,23.06305144763506,17.957548574471303,14.319091020166667,13.614873429010942,7.394284707135256,17.488070180367487,8.33324149534289,1.2910655837855245,4.700648757742195,4.935109001795081,5.046892736616115,17.370700581841533,20.187570946464476,26.59192099657065
162,41,162,0,5.399999999999984,9.400753626032449,46.25047752822219,6.337591653069666,8.218749126357306,12.442671884924989,13.616109119600674,6.87148970043552,30.792923572242024,22.57762736825656,17.839146875307136,13.614085773260712,12.675183306139274,6.337591653069637,17.604421258526827,8.450122204092878,0.234725616780338,4.92923795238751,5.185258354641991,5.163963569167862,17.369695641746432,20.186403043110715,26.08096313261571
163,41,163,0,5.433333333333318,9.400753626032449,46.25047752822219,6.337591653069666,8.218749126357306,12.442671884924989,13.616109119600674,6.87148970043552,30.792923572242024,22.57762736825656,17.839146875307136,13.614085773260712,12.675183306139274,6.337591653069637,17.604421258526827,8.450122204092878,0.234725616780338,4.92923795238751,5.185258354641991,5.163963569167862,17.369695641746432,20.186403043110715,26.08096313261571
164,41,164,0,5.466666666666651,9.060038988785369,46.192406994877516,6.19040600486494,8.812640809395273,12.859201458597092,14.049477368759163,7.415349974974538,31.460665513055947,22.650097471963438,18.095032937297532,13.333182164324484,12.856997087027196,5.714220927567652,18.33312547594616,8.809423930000094,0.47618507729728776,5.238035850270322,5.259636089745936,5.357082119594665,18.809310553243463,21.42832847837863,27.655655199370585
165,41,165,0,5.499999999999984,8.750141212930261,45.86480862120401,5.914825613988425,8.513825926247511,13.00221873317274,14.186208514359162,7.579688110656549,30.755239757033554,22.242084222553682,17.84850026099167,12.529410779239186,12.056602825305646,4.728079539335539,18.439510203408645,9.219755101704322,0.7092119309003522,5.4424282606779055,5.457809624162669,5.437291470235863,18.43951020340863,20.330742019142846,27.675424959046893
166,41,166,0,5.533333333333317,8.35517308004162,43.797449246612004,5.417593420637758,8.12952470778719,12.866784374014685,13.769716610787654,7.226984112550511,29.127437980572587,20.99802841821654,16.817112909896395,11.738119078048499,11.060919900468775,4.176061595074941,17.72004514666935,9.142188897326236,0.7900657071763248,5.422294153340485,5.235839258309363,5.191860361444526,17.832911676265965,19.413043090618643,26.426198157218657
167,41,167,0,5.56666666666665,7.975897940427968,45.33017852200922,5.694746045478553,8.200434305489125,12.986018986470283,13.89704735539006,7.076165954436768,28.937380079005113,20.740136879450773,16.742553373706926,10.933912407318815,10.933912407318815,3.872427310925417,17.995397503712212,9.111593672765679,1.3667390509148447,5.6993000214526,5.735601662495184,5.694746045478553,18.223187345531343,19.362136554627057,26.880166528523514
168,41,168,0,5.599999999999984,7.797652410094429,45.41217468692583,5.504225230654924,8.026995128038436,13.074546546257013,13.997423208232036,7.113322370560126,28.439421779038906,20.412790298584746,16.512675691964716,10.779107743365842,11.23779317925377,3.8988262050472144,17.430046563740575,8.485680563926337,1.1467135897197807,5.2798658699987495,5.5470603142784904,5.618896589626885,18.347417435516363,19.26478830729218,26.8419174238384
169,41,169,0,5.633333333333317,7.797652410094429,45.41217468692583,5.504225230654924,8.026995128038436,13.074546546257013,13.997423208232036,7.113322370560126,28.439421779038906,20.412790298584746,16.512675691964716,10.779107743365842,11.23779317925377,3.8988262050472144,17.430046563740575,8.485680563926337,1.1467135897197807,5.2798658699987495,5.5470603142784904,5.618896589626885,18.347417435516363,19.26478830729218,26.8419174238384
170,41,170,0,5.66666666666665,7.839866590484968,47.49313605425647,5.699105088142403,8.78612034421954,13.781023233052823,14.730346240149407,7.602516233658664,29.924070724756405,21.139516935734694,17.216046620430205,10.923284752272963,11.160747464278899,3.443209324086041,18.878285604471728,8.904851700222508,2.018433052050426,5.4822524206007195,5.507906526181129,5.461642376136481,18.99701696047471,19.709405096492517,28.024624519416335
171,41,171,0,5.699999999999983,9.691654891882107,47.50391143102238,5.435165606355213,8.507215731686443,13.714216043133911,14.895127595174078,7.565661006198825,31.196704622050895,22.690831241001757,17.841521881731268,10.870331212710454,11.579265857017646,3.662828995587205,19.96832581465287,10.279552342454423,1.5360250626656011,5.440300388422806,5.481205478579106,5.553321380406416,18.668612300089663,19.37754694439687,28.125045566420457
172,41,172,0,5.7333333333333165,9.950818728266626,47.86397732243874,5.686182130438084,8.766197451092012,13.52337417089493,14.469847044594113,7.585277212055324,31.985651968919832,23.219785798379398,18.243167668488837,11.37236426087614,12.083137027180896,4.146174470111106,20.257023839685615,10.30620511141899,1.3030834048920497,5.469821185334807,5.495417119164319,5.5677200027206055,18.717016179358666,19.664713201098337,27.492403121268087
173,41,173,0,5.76666666666665,11.720341701219127,47.85965170952563,4.783812939273105,8.371672643727948,13.652737289941474,14.621965080936006,7.657837144701141,32.53080735254998,24.15943942642481,18.298084492719653,11.95953234818279,13.394676229964716,5.023003586236769,19.85282369798341,10.285197819437172,0.23919064696366377,5.267627579235531,5.0739998539319515,5.262194233200432,18.896061110128798,19.61363305101976,27.994503823408476
174,41,174,0,5.799999999999983,11.820580973098307,46.81506117470584,4.963651377678957,7.800023593495496,13.25538362987773,14.435651614008306,7.331106227861382,31.91268892991388,24.113797984187233,18.200055051489443,12.763674971174424,13.945496727764635,6.027290958610166,18.554601578466503,9.809120579698828,1.0636395809312091,2.8363722158165388,2.8462036914511266,2.9545543914755683,18.909148105443577,19.618241159397712,26.95486460724431
175,41,175,0,5.833333333333316,11.820580973098307,46.81506117470584,4.963651377678957,7.800023593495496,13.25538362987773,14.435651614008306,7.331106227861382,31.91268892991388,24.113797984187233,18.200055051489443,12.763674971174424,13.945496727764635,6.027290958610166,18.554601578466503,9.809120579698828,1.0636395809312091,2.8363722158165388,2.8462036914511266,2.9545543914755683,18.909148105443577,19.618241159397712,26.95486460724431
176,41,176,0,5.866666666666649,12.351230359617318,47.04467762164689,4.5191958544262,7.841878822685018,13.07243571253621,14.269222800243552,7.600757144379912,32.306710669794825,24.466090058782534,18.28932187866414,13.063801341902973,14.251419645712332,6.05685334942774,18.645607369806925,9.857231921617654,1.543903794952172,2.3752366076187172,3.0878075899043296,3.206569420285277,19.001892860949738,20.189511164759097,25.89988318939411
177,41,177,0,5.899999999999983,13.398651574936713,46.654102092677114,5.023693432914541,7.415928400969108,11.970739955628046,13.165988486732768,6.702528397381586,32.53791336795969,25.123023389381665,18.42020925402005,13.635739317910975,14.353409808327342,7.296316652566389,18.53982100242277,10.16699861423183,2.033399722846383,3.5883524520818213,3.59631772814716,3.707964200484554,19.137879744436418,20.573220725269152,25.601385234926678
178,41,178,0,5.933333333333316,13.121970469117201,45.33044343876852,5.492553569699701,7.64949779681827,11.931449637112806,13.601225688876388,6.207699718706958,32.46108541015879,24.817040928139615,18.251468016135732,14.792039437913928,14.792039437913928,8.588926125240334,17.655014812994068,9.304669969010376,3.1015566563367827,3.348647856959168,3.5866631114635545,3.4594285782218037,18.609339938020753,20.279408906817494,24.592395572911787
179,41,179,0,5.966666666666649,11.489099299668117,43.991528634592626,6.114726164261924,8.068691208056013,11.252726844213866,12.46646988665881,6.129360551760718,31.79465997876996,23.726327765521802,17.96293032221601,16.1299782485205,16.374371858346592,10.14233480778185,15.51899422395536,6.7208242702168945,3.788100952304063,2.4561253813487447,2.688329708086755,2.566132903173724,18.818307956607285,20.284669615563686,26.160392468193038
180,41,180,0,5.999999999999982,10.206900426637816,43.01548115087771,5.594773671162696,8.03442255003938,11.181627406916004,12.15350190788802,6.821936873757186,30.64480106585362,22.612749846225856,17.49754358852195,16.282436394874566,16.525457833604037,9.599346829814095,14.216754165674104,5.711003810142614,3.7668323003067883,2.2006527245196255,2.6732358260241824,2.551725106659447,18.46962934343982,20.170779414546118,25.278902685060892
181,41,181,0,6.033333333333316,10.206900426637816,43.01548115087771,5.594773671162696,8.03442255003938,11.181627406916004,12.15350190788802,6.821936873757186,30.64480106585362,22.612749846225856,17.49754358852195,16.282436394874566,16.525457833604037,9.599346829814095,14.216754165674104,5.711003810142614,3.7668323003067883,2.2006527245196255,2.6732358260241824,2.551725106659447,18.46962934343982,20.170779414546118,25.278902685060892
182,41,182,0,6.066666666666649,8.68855533814173,40.33116338922764,5.8667754977153015,7.98622051095888,10.317274355383816,11.25765065925923,6.565538226153336,29.09958285165545,21.11523664741793,16.76557082749872,16.179362057306435,16.179362057306435,9.613823831153098,12.89659294422978,4.220703145384306,3.7517361292304656,1.4830039185390067,1.6580487863758933,1.641384556538327,17.58626310576787,18.7586806461524,25.094117850788745
183,41,183,0,6.099999999999982,8.17867894305975,40.82565298786712,6.248107597968626,8.178678943059722,10.565908417424396,11.528946673693994,6.7280466476683864,29.331790680732553,21.153635959747263,17.049534037207565,16.569265472779193,16.088996908350794,9.605371288567653,12.967251239566309,4.322417079855427,3.3618799509986843,2.4133196686197653,2.641477104356113,2.641477104356113,18.010071166064336,19.210742577135292,24.504288655222915
184,41,184,0,6.133333333333315,6.709849557842791,40.6477897570034,6.448446929276205,8.952947781113258,10.656859772428376,11.650831798258555,7.686848676476076,29.790630243036468,20.841641516257777,17.47229334781862,17.844044270112633,17.348376373720626,9.913357927840337,12.14386346160444,2.9740073783520984,3.4696752747441053,1.752450653776325,1.4870036891760492,1.6109206632740438,18.339712166504654,19.826715855680703,25.78545196683428
185,41,185,0,6.166666666666648,5.340584213870638,39.21267379967992,6.739072621474881,8.449341974916306,9.873366552563736,10.834436575556118,7.711908451487915,28.224891309652765,19.77600922662215,17.077474942726127,17.077474942726127,16.35589149444195,9.019793103552558,11.425071264499849,2.766069885089422,2.5255420689947243,3.8783944979821983,3.4015769964915483,3.6079172414210205,16.115363678347194,18.039586207105074,25.514095090905755
186,41,186,0,6.1999999999999815,5.429556933634215,37.159218534892446,6.354219558269153,8.027193825239591,9.418960354481385,10.358614046085131,8.314876315471745,28.105757921084162,20.078661680183203,17.28574595654861,17.63851628219247,17.403336065096553,9.289618575288017,10.46551966076754,2.2342120624110464,3.1749329307946255,4.944380917250128,4.727063860723988,4.938784559013868,15.757074545425255,17.873696499288343,24.4768266784685
187,41,187,0,6.233333333333315,5.416853968510436,36.899609919309945,6.539040410012973,8.203771769973297,9.119917543400785,10.052954097606493,7.995024440859481,28.121597697041423,19.917858293790644,17.16498107628405,17.515286812534754,17.281749655034304,9.45825487876877,10.625940666271077,2.21860299625439,3.152751626256247,4.909837567431452,4.461721129305319,4.670743150009258,15.64698955253104,17.748823970035218,24.064528139250957
188,41,188,0,6.266666666666648,6.3299432075742015,39.41427912678116,6.086850649683124,8.042953542791656,10.220633941943671,10.958383695709028,9.295695885908206,29.74383914595661,21.70102055014772,18.489240494469584,18.245961014279175,17.759402053898413,8.758061286854002,11.677415049138688,3.162633242475067,2.9193537622846577,5.600714231712264,4.889857034168717,5.230508824093377,16.056445692565674,18.245961014279175,26.52750508769122
189,41,189,0,6.299999999999981,5.418703422793082,38.02955526174171,5.872444809699721,8.2449752657377,9.868994515529717,10.806864539165975,9.668802705870364,29.198540109490867,20.953710435012525,18.190032700067547,18.07267765038972,17.368547352322594,8.097498427772024,11.383439818751953,2.933876241946365,2.699166142590684,6.3371726826041765,5.67687995140351,5.985107533570627,15.725576656832615,17.837967551034012,24.203607708037286
190,41,190,0,6.333333333333314,6.10133081421362,37.06899112077113,6.06559796920159,8.189113061901875,9.802129089556628,10.500749803077131,8.886118378208275,29.233082646652775,21.044152786506302,17.950229787269933,17.717109919902782,17.25087018516851,8.625435092584269,11.655993368357088,3.030558275772819,3.0305582757728757,6.997480273477568,6.3629340762064475,6.6439162199635575,16.318390715699934,18.882709256738494,24.997146731367696
191,41,191,0,6.366666666666648,5.072606776209124,36.517051263866115,6.433630503806947,9.21084148996849,8.958362098743649,9.884597650200341,8.06638351005354,28.7775676199129,19.566786436761546,16.992332837983795,16.992332837983795,16.303454479687176,8.610979478708003,12.055371270191216,2.6407003734704517,2.181448134606029,7.118409702398623,6.949747457897698,7.348035821830834,16.533080599119373,19.058967912873726,24.608593154065833
192,41,192,0,6.399999999999981,6.274322156238805,37.31204733377603,6.493063571289461,9.29593008240788,9.269895062948493,10.428631945817045,7.933752211607789,29.985101601852673,20.68921378385174,17.4969269313153,16.685811113307295,16.917558489881003,8.922273998087917,13.09372677641474,3.5920843368925546,2.4333474540239877,7.651173945100838,7.2437275679152675,7.531789738645642,17.38105324302842,19.46677963219183,24.343404544546296
193,41,193,0,6.433333333333314,6.442223622587865,37.747061311560515,6.1767918509826245,9.17650328420312,9.15080274219649,10.525909490986171,8.059073063006338,29.827967623231178,20.651488566897054,17.386525210173318,16.471444935953684,16.471444935953684,8.464492536531765,13.26866397618491,3.66032109687859,2.28770068554914,7.5528776801041175,7.377613031142529,7.7781823308670255,17.15775514161841,19.445455827167535,24.495495667913914
194,41,194,0,6.466666666666647,8.310962936151576,38.65326142830443,5.7561652893316495,8.08171757657847,9.432568036084504,10.812943846243215,8.396498255763454,30.515187374638256,22.434351153528002,18.174948167089667,16.104384451851615,16.5645097219045,8.052192225925808,14.033820736613507,5.291440605608358,2.5306889852909933,7.595551953511504,7.165260047915553,7.592066955872895,16.794572356930942,18.63507343714255,25.546277648914394
195,41,195,0,6.4999999999999805,9.603498887109224,39.07653732296246,5.614883884366151,7.985323234699493,9.358139807276956,10.764403450767446,8.171644280532721,31.26410114745311,23.279254488181294,18.365349371781036,16.14279116755276,16.84465165309851,8.539302574140208,14.622093448870231,5.965814127139055,3.158372184955965,7.968168922223764,7.75230244655139,7.954418836185425,17.312558643462367,18.950233109735834,26.440885401151384
196,41,196,0,6.533333333333314,6.028705133078339,39.62374511587018,5.3341797122644685,7.891484413913482,9.49978038016205,10.6608083847074,7.999591977526279,27.20796713202838,19.320387080510805,16.21913723442303,15.292329392455983,15.755733313439507,7.6461646962279985,11.585098024587865,3.4755294073763707,2.3170196049175615,7.649674526431756,7.216316549379754,7.6461646962279985,16.9142431158983,18.304454878848844,24.33863390993458
197,41,197,0,6.566666666666647,6.101514977046464,39.63332070342774,5.628006482763681,7.518650625693073,10.083511614951632,11.021512695412241,6.864892775437715,26.081237692680027,18.56258872847337,15.477017827600179,15.24251755748503,15.711518097715327,8.676509994260698,10.552512155181944,2.5795029712666917,3.283003781612166,7.284621712905718,7.070095643329659,7.504008643684941,16.64951917817595,17.82202052875172,24.622528362091202
198,41,198,0,6.59999999999998,7.460240771136069,39.698749897435675,5.772667586273599,7.711908451487915,9.864573289825499,11.064279540357774,6.751937550693017,27.686830834852792,19.97684514419019,16.235627586394557,15.634308046157727,16.59641931053666,9.380584827694605,11.545335172547254,3.3673894253263086,3.6079172414210063,8.18148215635802,7.730640343186793,8.057681839173597,17.799058391010334,18.52064183929454,23.823184367189793
199,41,199,0,6.633333333333313,7.460240771136069,39.698749897435675,5.772667586273599,7.711908451487915,9.864573289825499,11.064279540357774,6.751937550693017,27.686830834852792,19.97684514419019,16.235627586394557,15.634308046157727,16.59641931053666,9.380584827694605,11.545335172547254,3.3673894253263086,3.6079172414210063,8.18148215635802,7.730640343186793,8.057681839173597,17.799058391010334,18.52064183929454,23.823184367189793
200,41,200,0,6.666666666666647,8.95921421910448,39.43812724699806,5.561122839510006,7.511009459825458,9.683599832790405,10.883143930659958,6.532750657846542,28.556579689894967,21.048054168102002,16.562474543758043,15.474428770810448,16.925156468073908,9.671517981756523,12.33118542673958,4.352183091790437,3.868607192702626,8.235000822816817,7.53044289323746,7.9790023349491435,17.650520316705666,17.89230826624957,24.667111338069475
201,41,201,0,6.69999999999998,9.596608141986133,38.30166301457107,5.642867883386401,7.609560639935226,9.580914577696253,10.806197761470598,6.421216780632034,29.246175729845735,21.640228625939606,16.80593260921607,15.947235322613764,17.419287813931973,10.304367439227349,12.512446176204662,4.41615747395457,4.416157473954598,8.100005153537039,7.376600462169544,7.728275579420526,17.41928781393196,17.41928781393196,25.026094980775934
202,41,202,0,6.733333333333313,11.451798196560947,39.86102628042526,5.729954746834004,7.470946953452539,9.719595227631423,10.976731979595122,6.266973903092944,30.89888140335329,23.429047105828705,17.671426389623605,16.178066413035708,17.92031971905493,10.82685983026235,13.8135797834382,5.6000999122046835,4.853419923910707,7.96847455108517,7.504041011134255,7.840139877086543,17.67142638962362,17.67142638962362,24.6416966186555
203,41,203,0,6.766666666666646,11.641731044204999,36.65600797495815,5.944492196637645,7.934570294787881,9.159824194573815,10.393842823700112,5.713345125323008,31.229611041636836,23.295295455003693,17.446807596925197,17.570543821016855,19.055378510116896,12.621094857350158,12.868567305533475,4.701976515483381,6.434283652766766,7.424173445500088,6.968887414760998,7.300437221408416,15.838236683733498,17.323071372833525,25.738324354953452
204,41,204,0,6.799999999999979,9.685485552825728,36.214298417007406,6.205455168924813,8.218407016184901,8.932159382080778,10.168814676715385,6.034583892006921,30.112717433635343,21.8946906755341,16.989361106219604,17.857430651792868,18.353470392120443,12.152973638025713,11.904953767861883,3.472278182293053,5.704457013767183,7.94051021005355,7.20966076293978,7.564606039995596,15.87327169048254,17.857430651792853,25.061054840525056
205,41,205,0,6.833333333333313,9.94408226610117,36.01002818787324,5.964175757203198,7.980179998891104,8.693762296952869,9.934778585037769,6.086950395141209,29.91994488916474,21.939788106673333,16.88384821614578,17.380431987208894,18.125307643803566,11.793864562748908,12.042156448280423,3.848524225739112,5.586567424460014,7.701052118043621,7.485907701977157,7.69704845147821,16.138972559551107,17.877015758271995,25.078709576315045
206,41,206,0,6.866666666666646,9.004316179840265,35.712949243512526,5.998835694275631,8.02655565042255,8.740717915704963,9.74285830816463,6.4206617333165905,29.372252219553154,21.346117432683595,16.73223143863524,17.980905426593097,18.23064022418467,11.862402885599593,11.113198492824893,2.8719501723030874,5.8687677434018894,7.492043927747119,7.063566755009975,7.242309130155547,15.483557450677381,17.731170629001525,25.22815931558006
207,41,207,0,6.899999999999979,8.751045520753502,35.126299326477536,5.983981878481022,8.254742553245018,8.722632960297458,9.728307393914518,6.351247564955819,29.299523102408344,21.045546679340557,16.566242272407663,18.18549903587609,17.936382610727094,11.833030194576907,11.085680919129942,2.615722464064362,5.854235991001218,7.224376329320634,6.767535521880196,7.09981811674615,15.6943347843862,18.185499035876077,24.916624345268495
208,41,208,0,6.933333333333312,8.055329852666452,35.17702588679849,6.301037933551621,8.074895900078463,8.545814290683557,9.550380943873533,6.405358619141021,28.799467254234607,20.725300501333248,16.58176313059188,18.34043497777587,17.837957307151882,11.808225259663914,10.552031083103913,2.2611495178079792,5.527254376863965,7.541351210784788,7.074949839296456,7.4115456417039525,16.079285459967892,18.591673813087866,24.884062022491356
209,41,209,0,6.9666666666666455,7.062983172010463,37.49724341659807,6.3103055043833285,7.836297762733208,9.061394758836437,10.328208945696048,6.370214811588305,27.564611382344136,19.728405786382044,16.102934883839765,16.60615159895977,15.851326526279792,9.93853012361987,11.196571911419824,3.1451044694999553,3.8999295421799616,7.045034011679888,6.335336564589189,6.6676214753398995,15.851326526279777,18.11580174431974,23.433371177931154
210,41,210,0,6.999999999999979,7.6221838324276385,37.520345808832786,6.089520688099928,8.147893887821429,9.129882572304075,10.397003721040086,6.418362154836899,28.2535799765446,20.105761493766302,16.224644050028616,16.478154113310296,16.224644050028587,10.013647499627012,11.78821794259892,3.4223858543029166,3.929405980866278,7.351791835169209,6.668808567659019,6.971526740246674,16.478154113310296,18.252724556282175,25.109016805437296
211,41,211,0,7.033333333333312,7.80484234846778,36.933274440986665,6.035154395449336,8.102464708350519,8.7936367716635,10.304180890485975,6.301236806724107,28.230344100766327,20.138960236871235,16.205416336351306,16.331039718803623,16.331039718803623,10.04987059618685,11.808597950519555,3.5174547086654115,4.01994823847474,7.286156182235473,6.857702091219925,7.160532799783141,16.331039718803623,18.341013838040993,24.8937242152012
212,41,212,0,7.066666666666645,8.989135933800275,37.89897384685661,5.739634092013183,7.7648333426689025,9.726432964663035,10.732081977443482,6.277560409674069,28.75875170758841,20.99571336870971,16.454709039035123,16.20539526571642,15.706767719078982,9.723237159429857,12.715002439254391,4.736961693055548,4.238334146418168,6.980785652923984,6.277560409674055,6.482158106286562,15.706767719078982,17.451964132309982,24.43783729175143
213,41,213,0,7.099999999999978,11.257271774199433,38.98992631400266,4.7549550168113495,7.068660459328958,9.749884112714168,11.257271774199447,7.068660459328942,30.115521645179953,23.058627001294006,17.369084662821066,16.49438255749915,15.994552783029476,9.246850827688917,13.745318797915957,6.247872180870871,4.748382857461877,6.74770195534056,6.327339567486949,6.497787068105723,15.244808121324965,17.244127219203648,24.50313194537723
214,41,214,0,7.133333333333312,11.488877092657606,39.92671338552634,4.996683477281231,7.274767464437191,10.482913634761246,11.738169052394129,7.09714884793323,30.813751424818264,23.539902313469682,17.7160950489626,17.46657258348428,16.96752765252758,10.230421084612203,13.474213135830723,5.98853917148034,5.489494240523612,6.741725770767207,6.282815143986101,6.487584102437026,15.470392859657508,17.71609504896263,23.46705393919067
215,41,215,0,7.166666666666645,11.862858713103137,41.50237928549548,5.931429356551583,7.936364695292804,10.620802181592438,12.122159025053094,6.008032995395925,31.703175049067635,23.768083666223465,17.77886172252471,18.766576262664984,17.531933087489648,12.222967434235741,13.457610609411063,5.555894288288954,6.296680193394167,6.6716443313627485,6.25173370058097,6.420144510911712,15.80343264224419,17.77886172252471,24.457156321836592
216,41,216,0,7.199999999999978,11.68042902497632,41.33875826429734,6.326087970439697,8.05641932668298,10.454646389807365,11.923353855423315,5.722631418898886,31.720018243423112,23.663809540382367,17.74858573153344,18.477979665706044,17.74858573153344,12.521262536629749,13.493787782193237,5.470454506294544,5.9567171290762815,6.807676718944322,6.121889995978368,6.321414096162599,16.046666551797358,18.234848354315176,25.043705294532796
217,41,217,0,7.233333333333311,11.68042902497632,41.33875826429734,6.326087970439697,8.05641932668298,10.454646389807365,11.923353855423315,5.722631418898886,31.720018243423112,23.663809540382367,17.74858573153344,18.477979665706044,17.74858573153344,12.521262536629749,13.493787782193237,5.470454506294544,5.9567171290762815,6.807676718944322,6.121889995978368,6.321414096162599,16.046666551797358,17.991717042924307,25.043705294532796
218,41,218,0,7.266666666666644,11.858028919310405,41.6007174274234,6.2914289896256905,8.012280313097017,10.64191474029071,12.099631032112832,5.608491973074048,31.750369599462328,23.7406979053588,17.77224550337658,18.134944391200605,17.167747357003236,12.089962927467084,14.024356995861751,5.803182205184157,5.803182205184214,7.01217849793089,6.599835351664709,6.770379239381555,15.716951805707168,17.89314513265124,25.39352743016886
219,41,219,0,7.299999999999978,11.919544164060676,42.08577260359279,6.084996211641477,7.574587951426679,10.703799265847985,12.182136915301236,6.157467954998523,31.692374306474346,24.121509457855634,18.118799464502004,17.997196783532203,17.024375335773712,11.430652011162366,14.105910992498195,6.566544772369838,5.593723324611375,7.057147446394098,6.638214505178103,6.809750134309482,15.56514316413596,17.753991421592588,25.298034235574654
220,41,220,0,7.333333333333311,12.099141886813669,41.29033131795607,5.935694770437254,7.624907059324999,10.915529875903061,12.120056581571395,5.973502125741199,31.59633566455609,23.979829469587592,17.911474754008466,17.555617639690425,16.606665334842305,11.15018958196552,14.471522648934013,6.6426661339369275,5.456475752876742,6.883993306622983,6.710106097807168,6.998523248254969,15.657713029994156,18.267331868326522,25.3944494969519
221,41,221,0,7.366666666666644,15.100046284274326,41.06518438887196,5.425916830469276,7.788584669660748,10.626403924364531,12.052178360275326,6.643269793391197,34.934514357637426,27.14599028229241,19.580482475171763,17.929116483289803,16.74956934623127,10.73387894723271,17.575252342172234,9.554331810174176,5.543871544175147,7.313192249762949,6.439074247636946,6.841373394939538,16.041841063996145,18.400935338113214,25.01641232380535
222,41,222,0,7.399999999999977,14.955716946631316,40.821955980543244,6.406365588717108,8.554992451662008,10.450782743784131,11.873127097758262,5.93656354887911,35.847829143867784,27.295654960681617,19.81227876510654,18.270005567822793,17.320914369494332,11.863639979105727,18.032732768240663,9.253639183702461,5.694547189970734,7.3592827726291254,6.982434984376764,7.118183987463425,15.897277572001656,18.032732768240678,25.872528966106906
223,41,223,0,7.4333333333333105,14.950069372531036,40.821955980543244,6.410758023644336,8.554992451662008,10.213760364043337,11.884975346488067,5.93656354887911,35.847829143867784,27.295654960681617,19.81227876510654,18.270005567822793,17.320914369494332,11.863639979105727,18.032732768240663,9.253639183702461,5.694547189970734,7.3592827726291254,6.982434984376764,7.118183987463425,15.897277572001656,18.032732768240678,25.872528966106906
224,41,224,0,7.466666666666644,9.947552700484437,39.79091569597038,6.872630640234476,8.539621744518271,9.950371902099883,11.141859180613299,6.648597883249019,31.996199252591005,23.458566073332896,18.474026443756784,17.526640472282068,17.289793979413403,10.776515425524792,14.5660593114236,5.802739075282574,3.9079671323331695,7.815934264666325,7.121167046946004,7.579087771797646,16.816100993676045,18.474026443756784,25.82604393785552
225,41,225,0,7.499999999999977,4.888026002202605,40.764824629237474,7.570923487959796,7.826324997212439,10.010927516923491,10.987048502075554,6.852111635533015,27.11228390567281,19.289791903758594,16.842649537574772,17.08674590768456,17.330842277794346,10.37409572966564,9.885902989446066,1.8307227758233466,2.8071082562624667,7.5669874734031595,7.359414477511128,7.5669874734031595,16.354456797355226,18.06313138812368,26.855038461170107
226,41,226,0,7.53333333333331,2.722605950870391,41.90383736011455,7.657174259961461,7.657174259961432,10.109225165849187,11.094930717241029,6.901808506371793,24.926297166395134,17.270359985302395,15.898808880749328,17.00802810498766,17.00802810498766,10.106219598615866,7.8877811501392046,0.24649316094186702,2.4649316094184996,7.8877811501392046,7.657174259961461,7.887781150139219,16.76153494404582,18.486987070638776,25.636473773836006
227,41,227,0,7.566666666666643,2.874019611316471,40.16199748188912,6.396035372689944,7.122636996559639,10.16942925054327,10.8774425960243,6.681959870379353,23.062443519448475,15.94071123886558,14.410820364682962,15.82827810547144,15.592035148673347,9.095353836726119,7.205410182341467,0.11812147839904696,2.9530369599760036,6.85511769148433,6.652662066188479,6.851045747144354,14.647063321481028,17.481978803058,24.833618699970714
228,41,228,0,7.599999999999976,4.6241125861118535,41.64163976965304,5.829025619658567,6.606327564723088,10.4188473961358,11.398894607504861,7.167732086695713,24.200080654159333,17.593950745325028,15.127319677008998,16.21648669375365,15.248338234425077,8.713336133957199,8.229261904292912,1.6942598038250196,3.388519607650011,6.777039215300036,6.311555764648095,6.656020657883957,14.038152660264373,17.18463515308224,25.674194625887186
229,41,229,0,7.63333333333331,4.458234016194516,41.55061232119743,5.640327855437138,6.910122364666475,10.516675026975747,11.524066403923324,7.47444015166064,24.462711560533844,17.552934997837816,15.147202586941944,16.36875118266306,15.147202586941944,8.428685310475771,8.428685310475743,1.5880131744374637,3.0538714893028214,6.845033419322292,6.127256584163871,6.596362416894067,14.902892867797704,17.59029977838418,25.90719979222707
230,41,230,0,7.666666666666643,6.739093753271637,41.4751083830364,4.9861346212811375,6.525688881996704,10.92632671050136,11.930568366111542,7.346375349056896,25.575228399611767,19.049732483484068,15.504341823651046,17.612932311667592,15.628376558240276,9.426639828779827,8.682431421244615,2.232625222605776,4.713319914389899,6.945945136995675,6.22155063530727,6.573840933228041,14.636098681526605,17.861001780846024,24.826784543497194
231,41,231,0,7.699999999999976,8.020931090867782,42.577384398611386,5.477457101327497,7.034821935554702,11.203381866662326,11.94884748557004,6.45710820086901,26.90876863771299,19.874150140973885,15.669266429472358,17.659014547500604,15.669266429472358,10.446177619648239,9.948740590141199,2.984622177042354,5.223088809824105,6.968558399787088,6.262572181977778,6.591040640968544,14.425673855704716,17.907733062254138,24.634435753464874
232,41,232,0,7.733333333333309,9.460226251921453,41.63044391232679,4.730113125960754,6.757767278881967,11.152343018657833,11.907289471819853,7.386183596474673,28.291985537691883,21.53424061876966,16.588224256795016,18.321322313475108,16.588224256795016,10.274795621746179,10.522381058414766,3.837574268363028,5.818257761711692,6.936811986319274,6.703121363523362,6.932392226720324,13.86478445344062,17.82615144013795,24.27473885036526
233,41,233,0,7.766666666666643,12.287782304403697,37.79020914975049,4.436649415513359,6.20222054088443,10.070743681384517,11.048254365699933,7.514723436653709,30.285636448255698,24.083473227128305,17.638054762111807,19.84281160737578,17.638054762111807,11.636216683337636,11.14627071772344,5.021946147545748,7.47167597561679,6.388113834903073,6.1438911522018484,6.369297552984818,12.493622123162538,16.65816283088337,23.28403445855315
234,41,234,0,7.799999999999976,9.875507519253098,37.438341988057175,4.693374160865553,6.745659549070147,9.364218805874664,10.344109604035603,7.30406918605741,28.476716023124528,21.731060400254126,16.459382900207487,19.652994507710446,16.950707762900265,11.423303057606702,9.703666038182007,3.070780391829743,6.75571686202548,6.6374333915875265,6.185621967996395,6.510054430679077,12.774446430011778,16.95070776290025,23.604056400876093
235,41,235,0,7.833333333333309,10.298066999587071,37.48373454705524,4.429332337585925,6.71563398415916,9.566367500048072,10.54202884186723,7.271558087347932,28.547599854057818,21.83248943386723,16.386120639331438,19.320948216525125,17.11982753362983,11.372456861625537,9.905043073028708,3.301681024342912,6.970215495835006,6.621453485461556,5.890000640537604,6.236508601536585,11.983879273540893,16.630689604097554,23.02198218498599
236,41,236,0,7.866666666666642,7.871707249627129,37.70400499116359,4.906174005744454,6.223130995720325,9.326714708030654,10.277953118449817,7.487676561256279,26.376544813550534,20.153427231382736,15.86593319141106,19.77139366929684,16.842298310882498,11.228198873921656,7.566829675903733,1.7086389590750457,6.590464556432281,6.608520657546609,6.36512183521423,6.590464556432281,12.204563993393094,16.59820703101461,21.989901486762545
237,41,237,0,7.899999999999975,6.977267646962696,37.75953613228869,5.226714697641784,6.5600597965745235,9.713723179951897,10.453429395283557,8.150090279509518,26.77407214003748,20.214148216195074,16.352822570991208,20.069373155307403,17.343902726808864,11.025766733471372,7.556986188109562,1.1149651752948273,6.318135993337535,6.484762498301509,5.96709271572121,6.194250973860306,12.140731908766199,16.600592609945622,22.828483169393124
238,41,238,0,7.933333333333309,6.453225712723065,37.31288187171529,6.675496263443353,7.218084813737709,9.152846492176595,10.382117450099528,6.707295336800398,26.956905090327997,19.74061072783178,16.273295300846968,20.464901666216633,17.999250863057995,12.821384176424885,7.396952409475887,0.493130160631722,6.410692088212443,6.921411633399676,6.208350088305313,6.533974628370373,13.067949256740746,17.259555622110426,23.435359118237805
239,41,239,0,7.966666666666642,6.0285052363297,37.265305763333245,5.9670927157212255,7.007994988780818,9.713723179951897,10.725896018016613,7.760385451226307,26.682198927068463,19.68017938972351,16.352822570991208,20.317143194261803,17.591672765763263,11.521306811380157,7.309216149155191,0.6194250973860562,6.070365954383078,6.708119280777903,6.461052135555035,6.689791051769134,13.379582103538269,17.591672765763278,24.54049354670869
240,41,240,0,7.999999999999975,5.915599476145277,35.77645227377027,6.377864453868906,7.402332101976044,8.81845503754866,9.831991784546855,7.1222752719024225,26.739869814085182,19.340381792740693,16.142275841114284,20.055554832899546,17.854335400020332,12.106706880835702,7.459688078090693,0.3668699054798594,5.992208456171198,6.865686004629923,5.915599476145265,6.236788393157781,13.451896534261891,17.1205955890606,24.477552273313922
241,41,241,0,8.033333333333308,6.133757968338155,35.61933906733753,6.352379895515165,7.131360927245965,9.042876820061732,9.792705285095675,7.093816209924713,26.633023113661068,19.503431125732835,16.199576144262508,19.975417200444,18.02659601015678,12.180132439295122,7.308079463577087,0.4872052975718191,6.090066219647554,6.595291472953054,6.133757968338169,6.455470192826411,13.154543034438746,17.052185415013184,23.640755384857993
242,41,242,0,8.066666666666642,7.3259973223095685,35.64174705097534,6.59681838285443,7.374460898107979,9.028545872711108,10.279986433198994,6.861501048061486,28.04937921539263,20.675155688456904,16.812474207804826,20.71101895164361,18.51808753323428,13.035758987210968,8.162578057412503,1.096465709204665,6.456964731982993,7.082896486695298,6.596818382854416,6.8224533017179,13.888565649925724,17.78711039376452,24.87232591369518
243,41,243,0,8.099999999999975,7.023204580697447,35.93278377678556,5.561468233604373,7.529621373414751,9.407208683835968,10.64304168380382,8.306475409574803,28.316054217477426,20.79236990250927,16.98302204745964,19.51240830984726,17.826150801588838,10.719779873928417,9.274416295421247,1.8067044731340047,5.420113419402014,6.762214850778506,6.304797498161136,6.624583068158017,14.212741855320829,18.067044731340047,23.638311412402356
244,41,244,0,8.133333333333308,7.665351245455561,36.47887639351904,5.436959575372612,8.25510219801816,9.872433453938818,10.8544043461307,9.371954988017315,30.670293920301894,22.417158611474665,18.335909878136718,20.427926441414044,18.458969675976547,10.337023018546859,10.829262209906261,2.7073155524765866,5.414631104953116,6.418013840490093,5.952838851829991,6.152989891992178,14.521056145101554,18.95120886733592,24.901903431260095
245,41,245,0,8.166666666666641,9.519716382329873,37.67568907358976,6.816323360209907,9.306748413798244,9.230410158715227,10.452610940415706,6.667649298651781,32.28703811421357,22.980970388562792,18.09019918640405,18.69725285037734,16.99750259125213,11.291198149903181,14.205055736974998,4.735018578991657,4.492197113402341,3.1938177308846507,3.4340140987172347,3.520911251045092,16.511859660073483,20.39700310950255,25.75739498137214
246,41,246,0,8.199999999999974,7.613339422380522,36.393802325505305,6.627071119104392,8.81434224615029,8.738136127922663,9.92658013480145,6.648062844527322,29.69446381991398,20.883375410560102,16.997733622665464,17.94205215725799,16.28949472172107,10.505543697341864,12.394180766526887,3.423154687897892,3.895313955194183,3.784644436380126,4.075366344291506,4.1313935888423,16.761653989017333,19.83068922644304,25.97841570928424
247,41,247,0,8.233333333333308,7.595559298183564,36.30880856791127,6.363624116211278,9.027219172384408,8.482289230005902,9.903397689115529,6.89498776577225,29.859191961079286,20.83460456404302,16.958037268922283,17.900150450529082,16.25145238271719,10.245480849973887,12.600763803990844,3.41516028332461,3.8862168741280243,3.7758058119097178,4.06584877050036,4.239509317230585,16.722508973520576,19.784376813742654,25.68230600326078
248,41,248,0,8.26666666666664,5.095603148204633,36.269463632870696,6.678398434748292,9.107809223862303,9.07030264355811,10.036721304881366,7.898391693682773,28.74613297107782,19.638504566877018,17.042901697812454,18.353894136105737,16.685358305550665,9.653671591068587,11.0838451601158,2.026079222816861,3.4562527918640455,5.011279569962726,5.056427144735214,5.243969753173062,16.923720567058524,20.022429966660795,24.331638571007222
249,41,249,0,8.299999999999974,5.989163183950874,37.36296194072436,5.965499862718928,8.379293604819196,10.001442619805065,10.951899448155006,9.088619989451855,29.419741038609704,21.040869870612553,17.958434249935465,18.315224334371266,17.125924052918577,8.68189205460456,11.536212730090966,2.9732507036316917,3.211110759922235,5.713594619888228,5.7530672455173,5.827571379118126,16.65020394033749,19.742384672114454,24.51805340503103
250,41,250,0,8.333333333333307,7.286968515612775,38.04823495946839,6.264602083806024,8.697699762578985,9.88323470147304,10.84526528660486,7.978115628140015,30.21233418097161,21.514765482436434,17.8168480433759,18.298384476980658,17.576079826573533,9.991880997298637,12.15879494852004,3.2503709268320904,3.9726755772392153,6.7415100704665605,6.333622919132456,6.621125962065378,16.853775176166394,19.742993777794908,25.79031098814983
251,41,251,0,8.36666666666664,5.266162103018605,38.68587243564202,5.460201860182498,7.884095982096729,9.972680237923097,10.69661188254847,8.890146667432688,27.476613322737506,19.592518831744034,16.83949690842053,16.839496908420557,15.416440831652608,7.352456396634324,11.147272601348845,3.083288166330533,2.371760127946544,6.640928358250363,6.239126785316849,6.522340351853032,16.127968870036597,19.211257036367115,24.221001553199358
252,41,252,0,8.399999999999974,5.535450898804868,39.38640500076118,5.221864772324804,7.646653680682734,9.747609082871831,10.94834191328588,9.087944152756545,27.46927453516089,19.822675514819434,16.953555543550962,17.072111876023357,15.649435886354738,7.350492613287827,10.907182587459374,3.3195773092267586,2.608239314392449,6.88035421825148,6.237460363563795,6.520598285981137,16.59788654613382,19.68035119041582,25.64765614560831
253,41,253,0,8.433333333333307,5.940741949799449,38.46062638030689,5.903141939464276,7.8429094019103935,9.676293992773612,10.405330092519259,8.108135690447028,27.774505645431358,19.932139022112406,16.86949574419684,16.98746424590452,16.51559023907383,8.729669126367611,10.853102157105639,2.8312440409840747,3.0671810443994616,7.082041294155942,6.439826926055916,6.842173099044871,16.51559023907383,19.34683428005792,25.991649575013266
254,41,254,0,8.46666666666664,8.055199576567269,38.71059445178332,6.1405557218566935,7.845027699519409,10.150775120149055,11.33786403512092,7.220233898483052,29.215517532205272,21.370774833575513,17.228053131397786,17.936055314879894,17.228053131397786,10.502032388317843,11.446035299627283,3.1860098256694585,4.602014192633646,7.316022562648371,6.908818018267332,7.080021834821025,16.284050220088318,19.588060409671456,25.515378883747033
255,41,255,0,8.499999999999973,11.301463837542112,40.51631413997745,4.080080116676988,7.013908613466448,11.270946777776581,12.479425391117875,8.786801878912685,31.14400741369389,24.130944029310193,18.328677394407663,18.448472671495324,17.01092934644373,9.10444105866003,13.177480479639513,5.750173300206342,5.510582746031076,7.18771662525792,6.578931506871583,6.828330793995008,15.812976575567404,18.92765377984584,25.18551472240763
256,41,256,0,8.533333333333307,12.510478806895591,39.626834741849784,4.713390615779417,7.809165144945942,10.851040079810915,12.03992248344593,8.002360107297406,32.92380101304143,25.11511956509924,18.735727697723192,19.796240586273584,18.146553870750793,11.194302712476116,13.786667551154807,5.773903504329809,6.716581627485681,7.309555587591266,6.665740933597344,7.07008592366914,15.31851950128312,19.08923199390665,25.714990976077555
257,41,257,0,8.56666666666664,5.937154255567516,40.62396558411652,5.632967226767142,7.070192842139683,10.328807485428776,10.827867135348576,6.816754795976795,25.434712080632096,18.364782965641794,15.359978856749919,18.76027951969455,16.6497480737289,10.90441247082245,7.621363554875899,0.5862587349904516,5.510832108910279,6.804643288401191,6.6699653638831995,6.683349578891182,16.180741085736543,19.46379000168308,24.89715986585649
258,41,258,0,8.599999999999973,5.697119984146109,40.03529559694628,5.918730095507679,6.92519138656104,10.18307819957235,11.140947819233496,6.191368524269599,24.715712385450104,17.79868621555987,14.90328198033393,18.68824248327587,16.559202200371033,11.473161524542775,6.978520927299229,0.11828001571694813,5.795720770129861,7.573616354410507,6.925191386561038,7.333360974450031,15.84952210606943,19.871042640445253,26.090330162980695
259,41,259,0,8.633333333333306,5.408983286968696,39.87321958490823,5.861910747080385,7.0908740575892235,10.077154085395442,10.566411242087044,6.364733383603992,24.711667103096943,17.627820212665394,14.877356169597647,18.50883680942067,16.634524221124906,11.245875529774594,7.028672206109121,0.0,5.388648691350312,7.278061007545446,7.125623988844832,7.38010581641457,15.697367926977023,19.445993103568554,24.671651782867023
260,41,260,0,8.66666666666664,5.424536770766315,39.3239799694365,6.085073859200682,7.078141761277533,10.059059657155467,10.780799938246119,6.614796883522148,25.180795009150234,18.104796950561646,15.318379323970703,18.709470930040567,17.072392223662007,11.34261675133709,7.13298579207796,0.11693419331277255,5.495907085699429,7.264992600382951,7.078141761277533,7.249919985390719,15.90305029053448,19.64494447654259,24.64622189405208
261,41,261,0,8.699999999999973,1.963272337783191,40.04305584341393,7.395878157275557,8.417460704481144,10.24858248346101,10.755920745566655,8.150605945663635,25.898435132200404,17.484020268325764,16.42764018284734,19.046539342431686,17.14188540818853,9.999433154776625,7.618615736972686,0.4761634835607822,2.85698090136475,7.395878157275557,6.969738790958626,7.38053399519228,15.71339495750614,20.23694805133367,25.5147660700449
262,41,262,0,8.733333333333306,2.4382922760640238,40.929831442062145,6.234814684795572,7.271767079543669,10.306042951592929,11.021699357651032,10.087396562168228,26.008573054386208,18.74718316947941,17.453878699442242,18.41025561448015,16.497501784404307,7.411921091543974,8.368298006581881,1.4345653725568752,1.9127538300758715,7.176810660293935,7.03603577988312,7.292373977164203,12.432899895493094,19.84482098703704,21.978469564791695
263,41,263,0,8.766666666666639,12.109637160886328,39.31370418907234,6.397069851480811,8.951239933070225,10.968927520535347,12.363124637075506,9.00929008705789,36.42421140137113,27.47549600527106,21.348033489754087,20.548909241474504,18.72233953112122,10.73109704832558,16.667448606973778,7.30627884141316,4.566424275883207,6.853440710932258,6.7190088104472885,7.077957627619014,11.416060689708061,15.982484965591297,19.87575180951481
264,41,264,0,8.799999999999972,16.876255132932243,41.123176866816344,5.7054759428447746,8.713269357415763,11.410951885689522,12.80258937434634,8.28812172337399,39.53001235398585,30.826308628479204,22.347594765653994,20.979374677960877,18.47097118385686,11.515852404750262,19.725172930908883,10.831742360903718,6.042972053977849,7.069137119747694,6.9765809260367515,7.1831554603887895,12.542017470520094,16.646677733599404,20.543561242655073
265,41,265,0,8.833333333333306,16.790484832249405,41.2353864492898,5.99783940289966,8.788541433087467,11.509528665379525,13.142620555636357,8.359721039307807,39.87150370001891,31.092610534294533,22.65565419145979,21.160611021464987,18.860544606088368,11.730338718420825,19.780571172239007,10.810312152270143,5.980172679979233,7.360212529205214,7.222355043842334,7.475215849974035,12.420358643033794,16.79048483224939,21.4215102264884
266,41,266,0,8.866666666666639,16.17997287235033,41.97716386604119,5.928853276080212,9.125959780409007,10.946978640567336,12.338385961559549,7.867096840253671,39.03137259549559,29.905838505587134,21.76104464951291,20.279926427294754,18.229147350377303,11.507149264925687,19.710265572595432,10.367827555527072,5.810540717932781,7.295218451683485,6.705564039515183,7.063794598271201,16.861961299099008,20.279926427294754,25.302178005903084
267,41,267,0,8.899999999999972,14.643071544602218,42.81913274334817,5.719251713872779,8.036311867082311,10.990491243222804,12.372633186992223,7.377613031142529,35.7350270757629,27.70480148664193,20.360536101387154,18.759145621502782,16.928985073063487,10.523423153525925,17.844065347283163,9.379572810751426,5.03294150820804,7.095561005620881,6.9577700052978715,7.091872125202286,16.700215004508593,20.360536101387183,25.003009124198755
268,41,268,0,8.933333333333305,11.3539137744095,41.31080379848136,5.903679382986674,7.744464478476252,10.893411119739458,11.818254181012833,6.642305410579209,31.620171679649093,23.877051109188994,18.151746445815206,17.69795278466981,16.56346863180636,10.55070262163008,14.4079487413658,6.466559671321676,4.878281857312828,7.264242976183435,7.348795693064595,7.48759540889877,16.336571801233674,19.740024259824025,24.79827698132206
269,41,269,0,8.966666666666638,6.8313434751992235,40.52036581890037,5.694176085165041,7.541277056364762,10.471385672631756,11.3997166599061,7.524086979174028,27.583833603244766,20.04816311017069,16.613708514008607,16.613708514008607,15.703368321460204,8.648231829209948,11.379252406855215,3.641360770193671,3.1861906739194694,7.055136492250227,6.635187338367536,6.941343968181684,16.38612346587152,19.117144043516774,24.60551196156372
270,41,270,0,8.999999999999972,3.9714968435746516,40.28461776483384,5.981628510687756,8.081717576578498,10.133207937692262,11.064553831478316,8.310962936151547,26.308746212881427,18.22729212619544,16.219415769364815,16.334447086878043,14.954071276719333,7.362004320846438,10.582881211216772,2.530688985290965,1.8405010802115953,5.2964396058783265,4.880365479745479,5.0613779705819155,16.334447086878043,18.63507343714255,24.847829664820612
271,41,271,0,9.033333333333305,3.9714968435746516,40.28461776483384,5.981628510687756,8.081717576578498,10.133207937692262,11.064553831478316,8.310962936151547,26.308746212881427,18.22729212619544,16.219415769364815,16.334447086878043,14.954071276719333,7.362004320846438,10.582881211216772,2.530688985290965,1.8405010802115953,5.2964396058783265,4.880365479745479,5.0613779705819155,16.334447086878043,18.63507343714255,24.847829664820612
272,41,272,0,9.066666666666638,4.487589395203724,39.11506967213087,6.702555762935646,8.601363955317773,9.949016419486892,10.884869055297612,7.6584980833916845,27.390711254209414,18.790709031971964,16.525266794824063,17.1030733261116,15.022969813476408,8.43597535679831,11.209446706978554,2.6579100439227545,1.9645422063777005,2.8588288316044093,2.5840293636046585,2.6579100439227403,15.947460263536499,18.720931613716758,23.823573596703426
273,41,273,0,9.099999999999971,6.278712811368076,39.12804123686684,6.244589119510674,8.601363955317773,10.654226005839607,11.613767545022426,8.663245069381071,29.76012157605288,21.15876710383096,17.912002469914185,17.565318551141658,15.25409242599143,7.858168825510717,13.173988913356254,4.391329637785418,2.0801035126351906,2.6352032297433787,2.4129909157969895,2.426787431407732,15.25409242599143,18.720931613716758,23.592626776268723
274,41,274,0,9.133333333333304,8.107838253061155,40.10675378354364,6.017602119849481,8.377145376833436,10.892057005569077,12.106104436178953,8.440754075901918,30.906195257916725,22.53005443052871,18.386381343776947,18.03946848823398,15.264165643890294,8.325908533031082,14.107789458747078,5.781880925716024,2.7753028443436847,3.7648880919096728,3.814288923435394,3.931679029486901,13.413963747661171,18.27074372526262,23.369101010344764
