,video_id,frame_seq,gap,time_seconds,m1,m3,m4,m5,m6,m7,m8,m9,m10,m11,m12,m13,m14,m15,m16,m17,e1,e2,e3,b1,b2,b3,m_0_16,m_1_15,m_2_14,m_3_13
0,25,0,0,0.0,1.0,106.30145812734649,12.041594578792296,14.035668847618199,27.073972741361768,28.071337695236398,18.027756377319946,43.104524124504614,29.068883707497267,29.5,19.0,27.0,5.0,20.0,4.0,7.0,10.198039027185569,10.04987562112089,10.5,41.0,30.0,46.17358552246078,224.50167037240502,223.503914954526,217.45114393812693,208.34586628968668
1,25,1,0,0.0333333333333333,1.0,102.39628899525607,12.041594578792296,15.132745950421556,26.1725046566048,28.071337695236398,17.11724276862369,43.289721643826724,28.160255680657446,28.5,19.0,28.0,6.5,19.5,2.5,5.5,9.219544457292887,10.04987562112089,10.0,43.0,30.0,44.28317965096906,224.72205054244233,224.64416306683776,217.45114393812693,207.40781084616847
2,25,2,0,0.0666666666666666,1.4142135623730951,103.39245620450265,11.045361017187261,14.035668847618199,26.076809620810597,28.071337695236398,18.027756377319946,42.190046219457976,28.160255680657446,28.5,18.0,27.0,4.5,19.5,3.5,6.5,10.198039027185569,10.04987562112089,10.0,41.0,29.0,43.104524124504614,219.91134577370036,220.7351353998724,214.67417171145672,205.62344224333955
3,25,3,0,0.0999999999999999,0.0,102.39628899525607,10.04987562112089,14.142135623730951,25.179356624028344,27.16615541441225,18.110770276274835,42.2965719651132,28.160255680657446,28.0,18.0,27.0,4.5,19.5,2.5,6.5,9.219544457292887,9.219544457292887,9.0,41.0,29.0,46.2709412050371,220.7351353998724,219.58369702689677,212.52999788265186,204.47982785595258
4,25,4,0,0.1333333333333332,1.0,101.49384217774002,11.0,14.142135623730951,25.179356624028344,27.16615541441225,17.11724276862369,42.2965719651132,28.160255680657446,28.0,17.0,27.0,5.0,20.0,4.0,6.0,8.246211251235321,10.198039027185569,9.5,42.0,29.0,46.2709412050371,219.73848092675985,218.66183937761065,212.60291625469299,203.55343278854326
5,25,5,0,0.1666666666666665,1.4142135623730951,101.40019723846694,11.0,14.142135623730951,25.179356624028344,27.073972741361768,17.11724276862369,41.30375285612676,27.16615541441225,27.5,17.0,26.0,4.5,19.5,3.5,6.5,9.486832980505138,9.055385138137417,9.5,42.0,29.0,46.2709412050371,216.6679487141557,217.5890622251036,210.6086417980041,201.48697228356974
6,25,6,0,0.1999999999999998,3.1622776601683795,102.39628899525607,11.045361017187261,15.033296378372908,25.179356624028344,26.076809620810597,18.110770276274835,41.30375285612676,26.30589287593181,27.5,17.0,26.0,3.5,19.5,3.5,7.5,10.198039027185569,9.055385138137417,9.0,41.0,30.0,45.27692569068709,215.83790213954546,216.74870241826133,210.6086417980041,202.5561650505854
7,25,7,0,0.2333333333333331,1.0,100.31948963187563,10.0,14.035668847618199,25.079872407968907,26.076809620810597,17.029386365926403,41.10960958218893,27.073972741361768,27.0,17.0,25.0,4.0,20.0,4.0,7.0,9.219544457292887,10.04987562112089,10.0,42.0,30.0,43.18564576337837,218.38727069131113,217.27862297059966,210.23796041628637,200.24984394500785
8,25,8,0,0.2666666666666664,0.0,100.31948963187563,10.04987562112089,13.038404810405298,25.079872407968907,26.076809620810597,18.027756377319946,41.10960958218893,28.071337695236398,28.0,18.0,26.0,4.0,19.0,4.0,6.0,9.219544457292887,9.0,9.0,41.0,29.0,42.190046219457976,214.3361845326169,214.3361845326169,208.290662296705,199.25109786397664
9,25,9,0,0.2999999999999997,1.4142135623730951,100.31948963187563,10.0,13.038404810405298,25.079872407968907,26.076809620810597,18.110770276274835,40.19950248448356,27.16615541441225,27.5,18.0,26.0,4.0,18.0,4.0,6.0,10.198039027185569,9.055385138137417,9.0,40.0,29.0,44.181444068749045,212.3982109152523,213.3377603707323,207.2920644887305,198.25236442474022
10,25,10,0,0.333333333333333,2.23606797749979,101.24228365658294,10.0,13.038404810405298,25.079872407968907,26.076809620810597,18.027756377319946,39.11521443121589,26.076809620810597,27.0,18.0,25.0,3.5,17.5,3.5,6.5,10.04987562112089,9.055385138137417,9.0,40.0,29.0,43.289721643826724,215.39266468475662,215.2812114421507,208.24024587000469,198.25236442474022
11,25,11,0,0.3666666666666663,0.0,100.24470060806208,9.055385138137417,13.038404810405298,24.020824298928627,25.079872407968907,18.027756377319946,40.11234224026316,27.073972741361768,27.0,18.0,25.0,3.5,18.5,3.5,5.5,9.219544457292887,9.055385138137417,9.0,39.0,29.0,42.190046219457976,215.3346233191495,215.23243250030885,208.19462048765814,200.15993605114886
12,25,12,0,0.3999999999999997,1.0,100.17983829094555,10.04987562112089,14.035668847618199,24.08318915758459,26.076809620810597,18.027756377319946,41.10960958218893,27.073972741361768,27.5,19.0,25.0,4.0,19.0,4.0,6.0,9.219544457292887,9.055385138137417,9.0,40.0,30.0,42.1070065428546,212.2851855405836,214.28252378577213,208.19462048765814,200.15993605114886
13,25,13,0,0.433333333333333,1.0,99.18165152889924,10.04987562112089,14.035668847618199,25.079872407968907,26.076809620810597,18.027756377319946,41.10960958218893,27.073972741361768,27.5,19.0,25.0,4.0,19.0,4.0,6.0,8.246211251235321,9.055385138137417,9.0,39.0,30.0,41.19465984809196,211.3409567499873,213.283848427395,207.1955597979841,199.2034136253694
14,25,14,0,0.4666666666666663,2.0,101.31633629380802,11.045361017187261,14.035668847618199,24.020824298928627,25.079872407968907,18.027756377319946,41.10960958218893,27.073972741361768,28.0,18.0,26.0,4.0,19.0,4.0,6.0,10.198039027185569,10.04987562112089,9.5,39.0,29.0,44.181444068749045,213.3377603707323,214.3361845326169,209.2390976849212,199.25109786397664
15,25,15,0,0.4999999999999996,1.4142135623730951,99.24716620639605,10.0,13.038404810405298,24.020824298928627,25.079872407968907,18.110770276274835,40.19950248448356,27.16615541441225,27.5,18.0,25.0,3.5,18.5,4.5,6.5,9.219544457292887,10.04987562112089,10.0,40.0,30.0,43.18564576337837,213.3377603707323,214.28252378577213,208.19462048765814,200.2023975880409
16,25,16,0,0.533333333333333,2.0,100.17983829094555,11.045361017187261,14.035668847618199,25.019992006393608,26.076809620810597,18.110770276274835,41.19465984809196,27.16615541441225,28.0,19.0,25.0,4.0,19.0,4.0,6.0,9.219544457292887,9.055385138137417,9.0,39.0,30.0,43.18564576337837,214.39449619801343,214.3361845326169,209.28927349484493,201.20139164528658
17,25,17,0,0.5666666666666663,1.4142135623730951,100.17983829094555,11.0,14.035668847618199,25.019992006393608,26.076809620810597,17.029386365926403,41.10960958218893,27.073972741361768,27.5,19.0,25.0,5.0,19.0,3.0,6.0,8.246211251235321,8.06225774829855,8.5,40.0,30.0,43.104524124504614,216.390850083824,216.27991122617004,210.28789789238942,201.20139164528658
18,25,18,0,0.5999999999999996,1.4142135623730951,97.18538984847466,10.0,14.035668847618199,24.020824298928627,25.019992006393608,19.026297590440446,42.1070065428546,28.071337695236398,28.5,22.0,28.0,6.0,17.0,2.0,4.0,8.246211251235321,9.0,8.5,40.0,30.0,41.19465984809196,215.45533179756774,215.3346233191495,208.290662296705,199.25109786397664
19,25,19,0,0.633333333333333,1.0,97.18538984847466,10.04987562112089,14.035668847618199,24.08318915758459,25.019992006393608,19.0,43.104524124504614,29.068883707497267,29.0,22.0,28.0,6.0,18.0,2.0,4.0,9.219544457292887,9.0,9.0,40.0,31.0,44.181444068749045,216.27991122617004,215.23243250030885,208.19462048765814,200.2023975880409
20,25,20,0,0.6666666666666663,0.0,96.18731725128839,10.04987562112089,15.033296378372908,24.020824298928627,25.019992006393608,19.0,44.04543109109048,29.017236257093817,29.0,23.0,29.0,7.0,18.0,2.0,3.0,9.055385138137417,8.06225774829855,8.5,39.0,30.0,45.09988913511872,217.23029254687293,216.18741869035765,209.11719202399405,199.12307751739877
21,25,21,0,0.6999999999999996,1.0,95.04735661763561,10.04987562112089,15.033296378372908,23.08679276123039,24.08318915758459,19.0,45.044422518220834,30.01666203960727,29.5,26.0,29.0,8.5,17.5,1.5,1.5,8.06225774829855,9.0,9.0,37.0,32.0,44.01136216933077,219.0091322296858,217.00921639414304,211.00947846009194,201.02238681301145
22,25,22,0,0.733333333333333,0.0,92.02173656261873,10.0,15.0,22.02271554554524,24.020824298928627,19.026297590440446,44.01136216933077,29.017236257093817,29.0,27.0,29.0,9.0,16.0,1.0,1.0,10.04987562112089,9.0,9.0,39.0,34.0,43.01162633521314,222.00225224082752,221.00226243185838,214.0023364358436,204.0
23,25,23,0,0.7666666666666663,1.0,93.00537618869137,11.0,15.0,23.021728866442675,24.020824298928627,20.024984394500787,47.01063709417264,32.01562118716424,31.5,30.0,31.0,10.5,16.5,0.5,0.5,8.06225774829855,8.0,8.5,36.0,35.0,43.01162633521314,222.03603311174518,222.05629916757596,215.03720608304042,206.03883129157958
24,25,24,0,0.7999999999999996,0.0,93.00537618869137,12.0,16.0,23.0,25.0,19.026297590440446,47.01063709417264,31.016124838541646,31.0,30.0,31.0,11.5,16.5,0.5,0.5,8.06225774829855,8.06225774829855,8.5,36.0,36.0,41.0,224.1428116179504,223.14345161801185,215.14878572745886,205.15603817582362
25,25,25,0,0.8333333333333329,1.0,93.00537618869137,12.0,17.029386365926403,24.020824298928627,25.019992006393608,20.0,50.00999900019995,33.0,32.5,33.0,32.0,12.5,17.5,0.5,0.5,8.06225774829855,9.0,9.0,37.0,38.0,41.0,227.26636354727023,225.26872841120226,218.27734651126764,207.2920644887305
26,25,26,0,0.8666666666666663,2.0,90.00555538409837,12.0,17.0,24.020824298928627,25.0,20.024984394500787,51.0098029794274,34.0147027033899,33.0,35.0,34.0,14.5,16.5,0.5,2.5,9.055385138137417,9.0,8.5,35.0,38.0,43.04648650006177,230.31283073246266,228.31557108528537,220.38375620721234,210.34257771549724
27,25,27,0,0.8999999999999996,1.0,94.08506789071261,13.038404810405298,19.026297590440446,24.0,25.019992006393608,21.0,54.037024344425184,35.014282800023196,34.5,37.0,33.0,14.0,19.0,0.0,1.0,7.0,7.0,7.5,35.0,41.0,45.044422518220834,229.78685776170926,229.87170334775874,222.89908030317218,212.8497122384712
28,25,28,0,0.9333333333333328,3.0,93.26306878931231,12.041594578792296,18.110770276274835,23.08679276123039,26.1725046566048,22.090722034374522,55.226805085936306,37.12142238654117,35.5,39.0,32.0,13.5,19.5,2.5,2.5,5.385164807134504,5.0,4.5,36.0,43.0,48.041648597857254,228.63289352147035,231.70023737579555,224.89108474992955,213.84573879317773
29,25,29,0,0.9666666666666662,5.0990195135927845,95.33624704172071,12.0,18.110770276274835,25.079872407968907,27.073972741361768,23.194827009486403,58.309518948453004,40.19950248448356,37.5,41.0,33.0,14.0,21.0,3.0,3.0,4.123105625617661,4.0,3.5,35.0,43.0,50.08991914547278,232.86047324524614,234.0363219673391,227.27076362788065,216.22673285234646
30,25,30,0,0.9999999999999996,4.123105625617661,93.34345183246653,14.0,18.027756377319946,24.08318915758459,26.076809620810597,22.20360331117452,58.215118311311535,40.19950248448356,38.0,42.0,34.0,16.0,20.0,2.0,4.0,5.385164807134504,4.0,4.0,34.0,45.0,49.09175083453431,237.32045845227924,237.42788378789885,230.471256342304,219.31712199461307
31,25,31,0,1.0333333333333328,2.8284271247461903,94.42986815621421,14.0,19.026297590440446,24.08318915758459,26.1725046566048,23.08679276123039,58.215118311311535,39.20459156782532,38.0,44.0,35.0,16.5,18.5,0.5,4.5,4.123105625617661,5.0,5.0,33.0,44.0,50.15974481593781,238.42189496772312,239.4159560263267,233.5658365429328,221.53103620034824
32,25,32,0,1.066666666666666,4.47213595499958,97.51410154434076,13.038404810405298,19.026297590440446,25.079872407968907,27.073972741361768,24.08318915758459,60.29925372672534,41.30375285612676,39.0,46.0,36.0,17.0,19.0,0.0,6.0,7.0710678118654755,7.0710678118654755,7.0,32.0,45.0,52.15361924162119,240.87548650703334,243.85241438214223,234.92339176846565,223.8861317723811
33,25,33,0,1.0999999999999992,4.47213595499958,99.40824915468535,14.035668847618199,19.1049731745428,25.019992006393608,27.16615541441225,22.20360331117452,59.53990258641679,40.44749683231337,38.0,46.0,37.0,19.5,17.5,1.5,6.5,7.0710678118654755,8.06225774829855,8.0,31.0,46.0,52.23983154643591,246.22144504490262,246.22144504490262,238.29603437741048,226.27416997969522
34,25,34,0,1.1333333333333324,4.47213595499958,102.48902380255166,14.035668847618199,19.1049731745428,26.019223662515376,27.16615541441225,22.090722034374522,59.413803110051795,40.311288741492746,38.0,45.0,35.0,18.0,19.0,1.0,5.0,7.280109889280518,7.0710678118654755,7.0,32.0,46.0,53.23532661682466,246.9534369066363,247.08095839218367,240.14162487998618,228.25424421026653
35,25,35,0,1.1666666666666656,2.8284271247461903,101.40019723846694,15.033296378372908,20.09975124224178,27.073972741361768,28.160255680657446,24.08318915758459,61.40032573203501,41.30375285612676,40.0,48.0,39.0,19.5,17.5,1.5,6.5,7.0710678118654755,8.246211251235321,8.0,31.0,46.0,52.3450093132096,246.82990094394967,246.9534369066363,239.0188277102873,228.11619846034608
36,25,36,0,1.1999999999999988,4.47213595499958,98.73196037757987,15.033296378372908,21.095023109728988,24.186773244895647,27.294688127912362,23.08679276123039,63.387695966961914,42.2965719651132,40.0,50.0,38.0,21.0,19.0,1.0,8.0,9.055385138137417,10.04987562112089,9.5,31.0,47.0,52.3450093132096,249.57563983690395,249.57563983690395,240.75298544358697,228.60008748904713
37,25,37,0,1.233333333333332,7.615773105863909,100.71742649611338,15.033296378372908,21.095023109728988,27.16615541441225,29.154759474226502,23.08679276123039,66.48308055437865,45.39823785126467,41.5,50.0,38.0,21.0,22.0,1.0,8.0,8.06225774829855,9.055385138137417,9.0,32.0,47.0,55.14526271584895,250.56935167733502,249.57563983690395,239.64139876073165,227.6071176391459
38,25,38,0,1.2666666666666653,8.06225774829855,100.60318086422517,15.033296378372908,21.095023109728988,27.073972741361768,29.154759474226502,22.090722034374522,66.27216610312357,45.17742799230607,41.0,50.0,39.0,22.5,21.5,1.5,9.5,8.06225774829855,10.198039027185569,9.5,31.0,48.0,52.3450093132096,253.6631624812716,251.56311335328954,242.7385424690525,230.58620947489467
39,25,39,0,1.2999999999999985,10.04987562112089,101.59724405711013,15.033296378372908,21.095023109728988,27.16615541441225,29.154759474226502,22.090722034374522,68.26419266350405,47.16990566028302,42.0,51.0,40.0,23.5,22.5,2.5,9.5,9.055385138137417,10.198039027185569,10.0,33.0,48.0,54.230987451824994,251.45377308761942,251.67637950352037,243.73140954747709,230.82894099310857
40,25,40,0,1.3333333333333317,8.06225774829855,99.50376877284599,14.035668847618199,20.09975124224178,26.1725046566048,28.160255680657446,23.08679276123039,65.27633568147036,45.17742799230607,41.0,49.0,39.0,21.0,21.0,2.0,9.0,9.0,10.04987562112089,10.0,32.0,47.0,54.230987451824994,255.53864678361276,252.6697449240807,243.61444948935193,231.82105167564055
41,25,41,0,1.366666666666665,7.280109889280518,100.4987562112089,14.0,21.095023109728988,27.073972741361768,29.154759474226502,23.021728866442675,65.19202405202648,44.10215414239989,40.5,49.0,39.0,21.0,21.0,1.0,8.0,10.04987562112089,11.180339887498949,11.0,35.0,49.0,53.23532661682466,255.43100829773977,253.55078386784766,243.85241438214223,232.93990641364996
42,25,42,0,1.399999999999998,9.219544457292887,100.4987562112089,14.035668847618199,20.09975124224178,27.073972741361768,28.160255680657446,23.021728866442675,66.27216610312357,46.17358552246078,41.5,49.0,39.0,21.0,22.0,2.0,8.0,10.04987562112089,11.180339887498949,10.5,35.0,49.0,51.24451190127583,252.3430205097815,252.4480144505003,243.50154003619772,231.46490014686893
43,25,43,0,1.4333333333333311,8.06225774829855,102.48902380255166,14.035668847618199,21.095023109728988,27.073972741361768,29.068883707497267,23.021728866442675,66.18912297349165,45.09988913511872,41.0,49.0,39.0,21.0,22.0,2.0,8.0,11.045361017187261,11.180339887498949,11.0,38.0,49.0,49.36598018878993,257.21780653757236,255.32724100651697,246.37572932413616,233.34309503390068
44,25,44,0,1.4666666666666646,7.280109889280518,101.49384217774002,16.0312195418814,21.095023109728988,27.16615541441225,29.154759474226502,22.0,66.18912297349165,45.09988913511872,41.5,50.0,40.0,23.0,21.0,1.0,9.0,10.04987562112089,10.04987562112089,10.5,36.0,48.0,51.35172830587107,256.2225595063791,254.33245958783948,243.39268682522078,230.471256342304
45,25,45,0,1.4999999999999978,5.0990195135927845,100.31948963187563,14.035668847618199,20.09975124224178,26.076809620810597,28.071337695236398,23.021728866442675,62.20128616033595,42.1070065428546,39.5,48.0,40.0,21.0,18.0,1.0,8.0,9.055385138137417,10.04987562112089,10.0,37.0,49.0,48.25971404805462,259.40894356209077,256.64372191814863,246.71035649116962,231.82105167564055
46,25,46,0,1.533333333333331,2.23606797749979,101.31633629380802,15.033296378372908,20.09975124224178,27.018512172212592,28.160255680657446,24.020824298928627,61.204574992397426,41.10960958218893,40.0,47.0,39.0,19.0,18.0,2.0,5.0,10.0,11.045361017187261,11.0,36.0,49.0,49.36598018878993,253.87004549572208,253.04742638485774,244.1823089414956,233.13729860320507
47,25,47,0,1.5666666666666642,1.4142135623730951,101.17806086301516,16.0312195418814,20.09975124224178,26.019223662515376,28.071337695236398,24.0,59.135437767890075,39.05124837953327,39.5,46.0,40.0,19.0,16.0,4.0,4.0,11.0,11.045361017187261,11.0,39.0,49.0,48.16637831516918,256.12692166189794,254.23217734976035,245.27739398485136,234.23279018958897
48,25,48,0,1.5999999999999974,0.0,101.1236866416568,15.033296378372908,19.1049731745428,27.018512172212592,28.071337695236398,24.020824298928627,58.137767414994535,39.05124837953327,39.0,45.0,40.0,18.5,15.5,3.5,4.5,10.04987562112089,10.0,10.5,38.0,48.0,45.17742799230607,251.3483638299641,251.3483638299641,242.29321080046796,232.24340679554285
49,25,49,0,1.6333333333333306,1.0,103.1746092796091,15.0,20.024984394500787,26.019223662515376,28.071337695236398,24.020824298928627,59.07622195096772,39.05124837953327,39.0,45.0,39.0,18.0,17.0,3.0,4.0,10.04987562112089,11.045361017187261,10.5,37.0,46.0,48.16637831516918,252.79240494919938,250.88044961694405,243.9938523815713,231.95258136093247
50,25,50,0,1.666666666666664,1.0,99.12618221237011,14.035668847618199,18.110770276274835,26.0,27.018512172212592,26.0,57.07889277132134,39.01281840626232,39.5,45.0,40.0,16.5,14.5,3.5,3.5,11.0,11.045361017187261,11.0,38.0,45.0,47.095647357266465,253.71243564319033,251.87695408671274,242.99794237811975,232.04525420701884
51,25,51,0,1.699999999999997,2.0,98.04590761474952,15.033296378372908,19.026297590440446,26.0,28.0178514522438,25.019992006393608,57.0087712549569,38.0,39.0,44.0,41.0,17.5,14.5,4.5,3.5,11.0,11.045361017187261,11.0,39.0,45.0,51.03920062069938,254.33245958783948,253.38705570727168,243.46252278328177,232.55106965997814
52,25,52,0,1.7333333333333305,1.0,97.082439194738,15.033296378372908,19.026297590440446,25.0,27.018512172212592,22.0,56.08029957123981,37.05401462729781,37.0,42.0,38.0,18.0,16.0,3.0,4.0,10.0,10.04987562112089,10.0,39.0,42.0,61.00819617067857,251.09759058979438,251.127457678367,242.20652344641752,230.21728866442677
53,25,53,0,1.7666666666666635,1.0,99.02019995940222,15.0,19.0,26.0,28.0,23.0,57.0087712549569,38.01315561749642,38.0,43.0,41.0,19.0,15.0,5.0,4.0,11.0,11.0,11.5,38.0,43.0,52.009614495783374,250.39169315294788,249.51352668743232,241.59884105682295,230.62740513651016
54,25,54,0,1.7999999999999967,2.23606797749979,100.04498987955368,15.033296378372908,20.0,27.0,28.0,23.0,56.0357029044876,36.05551275463989,37.0,43.0,40.0,18.5,14.5,5.5,4.5,11.045361017187261,11.0,11.0,40.0,43.0,54.00925846556311,249.39326374222702,248.45321491178174,241.59884105682295,230.70327262524907
55,25,55,0,1.83333333333333,1.0,99.02019995940222,16.0312195418814,19.026297590440446,26.0,27.0,21.0,55.036351623268054,36.013886210738214,36.5,43.0,41.0,21.0,13.0,6.0,6.0,10.0,11.0,11.0,40.0,41.0,59.00847396772772,250.2418829852429,250.28783430282823,242.2973379961076,229.31419493786248
56,25,56,0,1.8666666666666631,1.4142135623730951,100.07996802557443,15.033296378372908,19.026297590440446,27.0,27.018512172212592,23.08679276123039,56.00892785976178,37.0,37.5,45.0,41.0,20.0,13.0,6.0,6.0,10.04987562112089,10.0,10.0,39.0,41.0,56.00892785976178,247.24481794367298,247.34186867572583,241.3503677229434,230.3670983452281
57,25,57,0,1.8999999999999964,0.0,99.08077512817509,15.033296378372908,18.027756377319946,26.0,27.018512172212592,23.021728866442675,56.00892785976178,38.0,38.0,45.0,41.0,20.0,13.0,6.0,6.0,10.04987562112089,12.0,12.0,38.0,38.0,59.033888572581766,248.12899870833317,248.12899870833317,241.16799124261908,230.21728866442677
58,25,58,0,1.9333333333333296,1.4142135623730951,98.02040603874276,15.0,19.026297590440446,27.0,27.0,22.0,55.036351623268054,36.013886210738214,36.5,44.0,42.0,21.0,12.0,7.0,7.0,11.045361017187261,11.045361017187261,11.0,41.0,41.0,62.03224967708329,249.20072231034965,249.24285345822858,241.29857024027308,230.3670983452281
59,25,59,0,1.9666666666666628,2.0,100.04498987955368,15.0,19.026297590440446,26.019223662515376,27.018512172212592,23.0,57.07889277132134,38.05259518088089,38.0,45.0,42.0,20.5,13.5,5.5,6.5,11.045361017187261,11.0,11.0,41.0,44.0,57.0,250.1619475459847,251.24092023394596,242.3489220112192,230.4256930118688
60,25,60,0,1.999999999999996,1.4142135623730951,100.00499987500625,15.0,19.026297590440446,27.018512172212592,27.0,22.0,55.036351623268054,36.013886210738214,36.5,43.0,42.0,20.5,12.5,6.5,5.5,11.0,12.0,11.5,42.0,44.0,48.010415536631214,250.44959572736389,249.51352668743232,241.59884105682295,230.62740513651016
61,25,61,0,2.033333333333329,0.0,100.04498987955368,15.0,19.026297590440446,26.019223662515376,28.0,21.02379604162864,55.036351623268054,36.013886210738214,36.0,43.0,40.0,20.5,13.5,6.5,5.5,9.0,10.0,9.5,40.0,44.0,49.01020301937138,250.3377718203947,250.3377718203947,242.46443038103547,231.36551169091732
62,25,62,0,2.0666666666666624,1.0,100.0199980003999,15.0,19.0,26.0,28.0178514522438,21.02379604162864,55.036351623268054,36.05551275463989,36.0,43.0,41.0,21.0,13.0,7.0,7.0,11.0,12.0,11.5,41.0,44.0,53.009433122794285,253.50542400508908,251.57503850740042,243.6657546722559,232.6972281742952
63,25,63,0,2.099999999999996,1.0,97.02061636580135,15.0,19.026297590440446,26.0,27.0,23.021728866442675,57.0087712549569,38.0,38.0,45.0,43.0,21.0,13.0,7.0,7.0,11.045361017187261,11.0,11.0,40.0,43.0,56.0,254.3855341799136,252.38858928247924,243.46252278328177,231.48650068632512
64,25,64,0,2.133333333333329,1.0,101.01980003939822,15.0,19.026297590440446,27.0,28.0,22.02271554554524,56.08029957123981,37.05401462729781,37.0,44.0,42.0,21.0,13.0,7.0,7.0,11.045361017187261,11.0,10.5,41.0,44.0,51.03920062069938,257.5616431070434,254.6369965264278,244.59149617270018,233.6193485137736
65,25,65,0,2.166666666666662,1.0,99.02019995940222,15.0,20.024984394500787,26.0,27.0,21.02379604162864,56.00892785976178,36.0,36.0,43.0,41.0,21.0,14.0,7.0,7.0,11.045361017187261,11.045361017187261,11.0,39.0,43.0,57.0,253.4442739538615,251.5094431626773,243.52617929085162,231.48650068632512
66,25,66,0,2.199999999999996,1.0,97.0051545022222,14.0,19.0,26.019223662515376,27.018512172212592,23.0,56.00892785976178,37.013511046643494,37.0,44.0,43.0,20.5,12.5,7.5,6.5,9.0,10.0,10.0,39.0,42.0,50.00999900019995,250.39169315294788,249.39326374222702,241.40629652103112,231.42385356743154
67,25,67,0,2.2333333333333285,2.0,95.00526301210897,14.0,18.0,25.0,27.0,24.020824298928627,56.00892785976178,38.01315561749642,38.0,44.0,43.0,19.5,12.5,6.5,5.5,10.0,11.0,11.0,40.0,42.0,54.0,254.2833065696606,252.28555249954366,242.2973379961076,229.2640399190418
68,25,68,0,2.2666666666666617,2.8284271247461903,96.02083107326243,15.0,19.0,25.0,27.0,22.02271554554524,58.008620049092706,39.01281840626232,38.0,45.0,43.0,22.0,14.0,6.0,7.0,11.045361017187261,11.0,11.0,40.0,43.0,59.00847396772772,253.38705570727168,252.44603383693712,243.46252278328177,231.62469643800938
69,25,69,0,2.299999999999995,1.0,97.04638066409278,14.0,19.026297590440446,25.0,26.0,24.0,57.0350769263968,38.01315561749642,38.0,45.0,42.0,19.5,13.5,6.5,5.5,11.0,11.045361017187261,11.0,40.0,42.0,58.0,249.28898892650673,249.33912649241395,242.404620418011,229.36869882353173
70,25,70,0,2.333333333333328,1.4142135623730951,97.02061636580135,14.0,20.024984394500787,25.019992006393608,26.0,23.0,58.034472514187634,38.01315561749642,37.5,43.0,41.0,19.0,16.0,5.0,5.0,10.04987562112089,11.0,11.0,40.0,41.0,56.00892785976178,250.39169315294788,248.45321491178174,240.6013300046365,227.63567382991621
71,25,71,0,2.3666666666666614,2.23606797749979,99.12618221237011,14.0,19.026297590440446,26.0,28.0,23.021728866442675,58.008620049092706,39.0,38.0,43.0,38.0,17.5,17.5,1.5,4.5,3.1622776601683795,3.1622776601683795,3.0,36.0,44.0,49.09175083453431,246.73264883269908,245.66033460858105,238.67970169245646,226.63847863944022
72,25,72,0,2.3999999999999946,3.1622776601683795,101.17806086301516,13.0,19.026297590440446,27.018512172212592,29.068883707497267,21.02379604162864,56.08029957123981,37.05401462729781,35.5,41.0,35.0,17.0,18.0,1.0,5.0,3.1622776601683795,3.0,3.0,36.0,45.0,57.07889277132134,245.81497106563708,245.98577194626523,239.10876186371758,228.06358762415363
73,25,73,0,2.433333333333328,2.23606797749979,102.39628899525607,14.0,19.1049731745428,27.018512172212592,28.071337695236398,22.02271554554524,57.14017850864661,38.05259518088089,37.0,42.0,33.0,15.5,19.5,0.5,2.5,3.605551275463989,4.0,4.0,37.0,48.0,50.15974481593781,249.92999019725505,248.93774322107123,240.87548650703334,228.72035327010144
74,25,74,0,2.466666666666661,1.4142135623730951,104.6900186264192,14.035668847618199,18.110770276274835,26.076809620810597,28.160255680657446,22.02271554554524,55.226805085936306,37.12142238654117,36.5,42.0,30.0,14.0,19.0,1.0,2.0,3.605551275463989,4.0,3.5,34.0,48.0,50.15974481593781,250.185930859431,250.45758123881976,241.54916683772686,228.39658491317246
75,25,75,0,2.4999999999999942,2.0,107.05606008068857,14.035668847618199,19.1049731745428,26.1725046566048,29.274562336608895,21.095023109728988,54.45181356024793,35.35533905932738,35.0,43.0,28.0,14.5,18.5,1.5,2.5,5.385164807134504,5.0990195135927845,5.0,32.0,51.0,48.373546489791295,250.54540506662659,251.70021851400924,243.64728605096343,229.5125268912353
76,25,76,0,2.5333333333333274,2.23606797749979,106.36728820459794,14.035668847618199,19.235384061671343,27.16615541441225,28.284271247461902,22.20360331117452,54.74486277268398,35.510561809129406,35.5,44.0,27.0,13.5,18.5,1.5,1.5,7.280109889280518,8.54400374531753,7.5,31.0,52.0,49.64876634922564,251.0657284457598,251.24689052802225,242.5963726027246,230.63390904201404
77,25,77,0,2.5666666666666607,2.0,105.54619841567009,14.035668847618199,20.223748416156685,26.30589287593181,28.284271247461902,21.587033144922902,56.089214649520635,35.90264614203248,35.0,45.0,27.0,15.0,19.0,1.0,3.0,9.219544457292887,9.486832980505138,9.0,28.0,51.0,49.8196748283246,247.52373623553763,247.95160818191923,241.12444919584576,229.95651762887695
78,25,78,0,2.599999999999994,2.23606797749979,108.67382389517726,15.132745950421556,19.4164878389476,27.294688127912362,28.442925306655784,20.223748416156685,54.12947441089743,34.713109915419565,34.5,45.0,26.0,15.5,17.5,0.5,3.5,9.219544457292887,9.486832980505138,9.0,28.0,52.0,49.64876634922564,253.60007886434104,252.83393759541065,245.0244885720609,232.65854809140367
79,25,79,0,2.633333333333327,2.8284271247461903,107.68936809174804,15.132745950421556,19.4164878389476,28.284271247461902,29.427877939124322,21.37755832643195,54.3415126767741,34.92849839314596,35.0,46.0,27.0,15.5,16.5,1.5,3.5,8.246211251235321,10.44030650891055,9.5,29.0,53.0,47.853944456021594,252.62224763468478,251.6445906432324,244.59149617270018,234.39496581624786
80,25,80,0,2.6666666666666603,2.0,107.8702924812944,14.142135623730951,18.439088914585774,27.294688127912362,28.284271247461902,20.396078054371138,53.36665625650534,34.92849839314596,34.0,46.0,26.0,16.0,16.0,0.0,4.0,8.246211251235321,9.219544457292887,8.5,26.0,51.0,52.773099207835045,252.00992043965255,252.00992043965255,244.1741182025646,234.95531490051465
81,25,81,0,2.699999999999993,3.1622776601683795,108.67382389517726,14.035668847618199,19.235384061671343,26.30589287593181,28.284271247461902,20.396078054371138,55.10898293381942,35.90264614203248,34.5,46.0,27.0,16.5,17.5,0.5,4.5,8.246211251235321,9.486832980505138,9.0,28.0,51.0,50.635955604688654,251.81342299408902,251.81342299408902,244.95101551126504,233.77339455121918
82,25,82,0,2.7333333333333267,2.23606797749979,106.70520137275409,13.152946437965905,17.46424919657298,27.294688127912362,28.284271247461902,22.20360331117452,54.12947441089743,36.6742416417845,35.5,47.0,28.0,15.5,15.5,0.5,5.5,9.219544457292887,9.486832980505138,9.0,26.0,50.0,50.635955604688654,249.46743274423616,248.4854120466632,240.44126101815388,230.24334952393303
83,25,83,0,2.76666666666666,5.385164807134504,106.21205204683694,13.038404810405298,18.439088914585774,28.284271247461902,29.274562336608895,21.213203435596427,57.87054518492115,39.45883931389772,36.5,47.0,31.0,18.0,18.0,1.0,7.0,8.246211251235321,9.486832980505138,9.0,28.0,51.0,49.64876634922564,249.85195616604645,248.67649667791284,241.61539686038222,230.24334952393303
84,25,84,0,2.799999999999993,11.180339887498949,106.53168542738823,13.152946437965905,20.223748416156685,27.294688127912362,29.427877939124322,20.09975124224178,64.6297145282261,44.40720662234904,38.5,49.0,31.0,20.0,24.0,6.0,9.0,9.219544457292887,10.44030650891055,9.5,29.0,52.0,50.635955604688654,250.83261350948763,249.27294277558485,242.6375898330677,230.4886114323222
85,25,85,0,2.8333333333333264,22.090722034374522,107.5174404457249,14.142135623730951,20.396078054371138,28.284271247461902,31.25699921617557,18.110770276274835,74.67261881037788,54.3323108288245,43.0,50.0,32.0,23.0,33.0,14.0,11.0,8.246211251235321,10.44030650891055,9.5,28.0,52.0,50.635955604688654,251.0298786997277,249.07027120874943,240.26027553467927,227.89910048089263
86,25,86,0,2.86666666666666,29.068883707497267,109.17875251164945,14.142135623730951,22.20360331117452,29.274562336608895,32.2490309931942,17.11724276862369,82.49242389456137,60.29925372672534,45.5,48.0,32.0,23.0,42.0,21.0,11.0,9.219544457292887,10.198039027185569,9.5,30.0,51.0,57.3149195236284,248.4854120466632,248.67649667791284,241.81191037663964,228.47538160598398
87,25,87,0,2.899999999999993,34.132096331752024,113.28283188550682,13.038404810405298,21.213203435596427,30.14962686336267,34.23448553724738,14.317821063276353,82.60750571225353,61.40032573203501,44.0,44.0,27.0,21.5,46.5,27.5,10.5,7.280109889280518,9.486832980505138,8.5,30.0,52.0,51.62363799656123,251.87298386289865,251.43189932862538,242.5963726027246,229.4558781116753
88,25,88,0,2.933333333333326,41.048751503547585,110.8873302050329,11.045361017187261,20.09975124224178,31.144823004794873,34.058772731852805,19.1049731745428,91.26883367283708,71.17583859709698,50.5,48.0,34.0,22.0,50.0,30.0,14.0,8.06225774829855,9.486832980505138,9.0,28.0,48.0,52.61178575186362,249.07227866625382,248.4069242191127,241.3379373409825,228.35498680782078
89,25,89,0,2.9666666666666592,41.012193308819754,113.7453295744489,11.045361017187261,21.095023109728988,33.06055050963308,36.05551275463989,11.045361017187261,84.1486779456457,63.071388124885914,42.5,37.0,24.0,19.5,53.5,32.5,11.5,7.280109889280518,7.0710678118654755,7.5,28.0,40.0,66.06814663663572,251.04780421266383,249.46743274423616,241.54916683772686,230.37577997697588
90,25,90,0,2.9999999999999925,49.01020301937138,117.34564329364768,10.04987562112089,20.09975124224178,34.058772731852805,38.118237105091836,9.055385138137417,88.14193099768123,68.06614430096654,43.5,32.0,23.0,18.5,60.5,39.5,11.5,7.0,7.0710678118654755,7.0,28.0,38.0,63.071388124885914,248.81519246219673,248.07257002740147,241.8677324489565,230.58620947489467
91,25,91,0,3.0333333333333257,47.042533945356304,113.07077429645558,9.055385138137417,19.026297590440446,33.015148038438355,38.0,15.0,90.08884503644167,71.06335201775947,47.5,34.0,30.0,17.0,58.0,38.0,10.0,8.0,9.055385138137417,9.5,34.0,43.0,63.071388124885914,250.64716236175505,250.72096043211067,244.59149617270018,230.4886114323222
92,25,92,0,3.066666666666659,49.01020301937138,117.27318534089538,11.045361017187261,20.024984394500787,35.014282800023196,38.01315561749642,12.041594578792296,92.0869154657707,72.06247289678588,47.5,35.0,27.0,19.0,61.0,40.0,10.0,8.0,9.0,9.0,32.0,45.0,60.13318551349163,250.9661331733826,249.06424873915566,241.91320757660174,229.63013739489858
93,25,93,0,3.099999999999992,46.010868281309364,108.07404868885037,9.055385138137417,19.1049731745428,32.01562118716424,36.013886210738214,16.0312195418814,90.0499861188218,71.00704190430693,48.0,36.0,32.0,18.0,56.0,36.0,11.0,7.0,8.06225774829855,8.5,36.0,48.0,61.07372593840988,253.23704310388715,251.24689052802225,245.08161905781512,231.70023737579555
94,25,94,0,3.1333333333333253,40.049968789001575,110.2905254316979,8.06225774829855,20.09975124224178,32.0624390837628,36.124783736376884,16.0,84.1486779456457,64.07027391856539,44.0,34.0,26.0,14.0,54.0,33.0,8.0,7.0710678118654755,8.06225774829855,8.5,35.0,51.0,55.226805085936306,251.45377308761942,251.24689052802225,244.90202122481554,231.5534495532295
95,25,95,0,3.1666666666666585,44.01136216933077,108.29589096544707,8.06225774829855,19.1049731745428,34.058772731852805,37.0,16.0312195418814,87.14355971613737,68.06614430096654,46.0,37.0,29.0,17.0,54.0,34.0,11.0,8.06225774829855,8.06225774829855,8.5,32.0,51.0,59.21148537234985,254.15152960389594,250.80071770232237,244.38698819699874,228.79029699705362
96,25,96,0,3.199999999999992,48.041648597857254,112.00892821556681,11.180339887498949,20.223748416156685,33.13608305156178,37.12142238654117,14.142135623730951,93.43446901438462,73.24616030891995,49.0,43.0,28.0,21.5,57.5,36.5,13.5,8.246211251235321,9.219544457292887,9.0,25.0,53.0,59.033888572581766,252.23005372080465,251.87298386289865,245.44856895080892,231.36551169091732
97,25,97,0,3.233333333333325,44.01136216933077,108.04628637764465,8.246211251235321,19.4164878389476,33.24154027718932,37.21558813185679,13.152946437965905,84.48076704197234,65.19202405202648,43.0,36.0,21.0,15.5,55.5,35.5,11.5,8.246211251235321,9.219544457292887,9.0,19.0,44.0,59.53990258641679,246.14832926509982,244.63237725207185,239.87079855622275,225.00888871331284
98,25,98,0,3.266666666666658,46.04345773288535,111.46299834474219,10.44030650891055,19.4164878389476,33.37663853655727,37.21558813185679,15.297058540778355,90.79647570252934,71.449282711585,48.0,41.0,23.0,17.0,58.0,39.0,11.0,7.280109889280518,8.54400374531753,8.5,21.0,56.0,55.90169943749474,248.35659846277488,247.88101984621574,241.66091947189145,227.49505489130968
99,25,99,0,3.2999999999999914,45.17742799230607,107.48953437428223,10.198039027185569,18.681541692269406,29.614185789921695,33.54101966249684,22.80350850198276,96.5090669315583,77.92945527847606,54.5,53.0,30.0,19.5,53.5,36.5,14.5,8.54400374531753,9.486832980505138,9.5,20.0,60.0,50.695167422546305,247.25088473046966,247.1639132235934,240.60756430336932,226.71568097509268
100,25,100,0,3.3333333333333246,56.32051136131489,109.38464243210744,11.40175425099138,21.587033144922902,29.832867780352597,34.52535300326414,17.08800749063506,105.90561835898981,84.34453153583817,55.0,56.0,29.0,26.5,61.5,41.5,20.5,8.94427190999916,8.94427190999916,8.5,19.0,61.0,47.43416490252569,246.07722365143832,245.60130292814003,238.91839611047115,223.14345161801185
101,25,101,0,3.366666666666658,55.226805085936306,110.86027241532469,10.44030650891055,18.027756377319946,29.120439557122072,33.734255586866,17.08800749063506,100.0199980003999,82.20097323024831,53.5,56.0,27.0,25.5,56.5,40.5,20.5,9.848857801796104,10.295630140987,9.0,17.0,63.0,45.5411901469428,248.2438317461282,246.07722365143832,239.28226010300054,222.17335573826128
102,25,102,0,3.399999999999991,52.23983154643591,111.40017953306898,10.44030650891055,19.313207915827967,31.04834939252005,35.6931365951495,18.384776310850235,99.46356116689167,80.4114419718985,53.0,57.0,26.0,24.5,55.5,39.5,19.5,9.848857801796104,10.295630140987,9.5,16.0,65.0,46.8187996428785,246.73872821265817,246.02845363900494,238.79907872519107,222.25210910135362
103,25,103,0,3.433333333333324,56.43580423808985,113.22543883774529,9.848857801796104,18.027756377319946,30.364452901377952,34.92849839314596,17.88854381999832,101.13851887386922,83.19855767980596,53.0,56.0,22.0,23.0,59.0,44.0,20.0,8.06225774829855,10.295630140987,9.0,14.0,65.0,48.46648326421054,248.12899870833317,246.4000811688178,239.06902768865731,223.6537502480117
104,25,104,0,3.466666666666657,54.45181356024793,115.7410903698423,10.770329614269007,18.384776310850235,32.28002478313795,36.138621999185304,16.64331697709324,98.76234100101111,80.52328855678958,51.0,56.0,20.0,24.0,57.0,42.0,19.0,8.94427190999916,10.770329614269007,10.0,16.0,67.0,45.31004303683677,247.7175811281872,246.48935068274247,238.75719884434898,223.28905033610582
105,25,105,0,3.4999999999999907,51.35172830587107,115.43396380615195,10.44030650891055,20.248456731316587,31.622776601683793,35.17101079013795,18.788294228055936,99.92497185388645,79.83107164506812,52.5,59.0,21.0,23.0,57.0,42.0,19.0,9.433981132056603,10.295630140987,8.5,13.0,63.0,59.20304046246274,248.84734276258607,246.9817807045694,239.47651241823277,225.48835890129672
106,25,106,0,3.533333333333324,50.35871324805669,115.43396380615195,9.848857801796104,20.615528128088304,31.32091952673165,35.17101079013795,18.35755975068582,97.8008179924892,77.3692445355388,50.0,57.0,19.0,22.0,56.0,39.0,18.0,7.810249675906654,8.94427190999916,8.5,13.0,66.0,50.32891812864648,249.77189593707294,247.91329129354884,241.3565826738521,224.52171387195494
107,25,107,0,3.566666666666657,48.373546489791295,116.05602095539895,9.848857801796104,20.615528128088304,31.32091952673165,35.17101079013795,17.4928556845359,94.92101980067429,74.46475676452586,48.0,54.0,17.0,20.5,55.5,39.5,16.5,8.06225774829855,11.180339887498949,9.5,12.0,65.0,48.46648326421054,248.46730167166865,246.26002517664128,239.1359446005556,225.78751072634643
108,25,108,0,3.5999999999999903,47.51841748206689,114.49017425089369,10.770329614269007,18.384776310850235,30.675723300355934,34.20526275297414,17.4928556845359,93.00537618869137,74.72616676907762,48.5,54.0,16.0,20.0,54.0,39.0,16.0,9.848857801796104,11.180339887498949,10.0,13.0,63.0,49.9799959983992,247.7175811281872,247.5520147362974,239.47651241823277,226.73552875542023
109,25,109,0,3.633333333333324,36.345563690772494,114.16216536138407,10.770329614269007,18.973665961010276,29.410882339705484,33.24154027718932,17.88854381999832,83.24061508662703,64.28841264178172,44.0,53.0,16.0,18.5,45.5,30.5,13.5,8.94427190999916,10.295630140987,9.0,12.0,61.0,48.104053883222775,249.41932563456265,248.02016047087784,239.70398411373975,227.1079038695043
110,25,110,0,3.6666666666666567,23.53720459187964,110.67971810589327,10.44030650891055,18.384776310850235,29.410882339705484,31.622776601683793,19.313207915827967,71.47027354082255,53.16013544000805,39.5,50.0,15.0,14.5,35.5,22.5,9.5,8.54400374531753,9.848857801796104,9.5,13.0,61.0,47.16990566028302,250.2418829852429,249.19069003476034,242.5633937757303,230.6447484769597
111,25,111,0,3.69999999999999,13.0,109.73149046650191,10.44030650891055,16.15549442140351,29.410882339705484,30.675723300355934,20.615528128088304,60.08327554319921,43.965895873961216,36.0,48.0,13.0,10.5,26.5,14.5,5.5,8.06225774829855,9.848857801796104,8.5,13.0,61.0,46.8187996428785,246.73872821265817,246.6779276708802,240.96887765850593,230.26940743398808
112,25,112,0,3.733333333333323,5.0,111.6288493177279,12.36931687685298,15.231546211727817,28.460498941515414,31.622776601683793,20.615528128088304,52.20153254455275,37.0,33.5,47.0,12.0,9.5,19.5,9.5,3.5,8.94427190999916,8.94427190999916,8.5,13.0,60.0,48.703182647543684,247.34186867572583,247.92337525937324,240.05207768315609,231.0411218809327
113,25,113,0,3.766666666666656,5.0,110.3675676999362,12.36931687685298,15.231546211727817,28.460498941515414,30.675723300355934,19.6468827043885,51.264022471905186,36.05551275463989,32.5,46.0,12.0,10.0,19.0,9.0,3.0,8.54400374531753,9.848857801796104,9.0,13.0,60.0,48.703182647543684,247.08095839218367,247.62269685955687,240.6595105122588,231.32012450281968
114,25,114,0,3.7999999999999896,8.602325267042627,111.31936040060597,11.40175425099138,13.92838827718412,29.410882339705484,31.622776601683793,19.6468827043885,53.14132102234569,39.21734310225516,33.5,46.0,12.0,10.0,21.0,12.0,5.0,8.94427190999916,9.848857801796104,9.0,13.0,59.0,49.64876634922564,248.62019226120793,247.62269685955687,241.2819926973416,231.22499864850255
115,25,115,0,3.833333333333323,13.601470508735444,111.97321108193691,11.40175425099138,14.866068747318506,29.120439557122072,30.364452901377952,17.72004514666935,57.56735185849702,42.720018726587654,34.5,46.0,13.0,12.5,25.5,15.5,6.5,8.94427190999916,8.94427190999916,8.5,14.0,58.0,49.33558553417604,249.51352668743232,248.55582873873627,243.21389762922678,233.2402195162747
116,25,116,0,3.866666666666656,18.439088914585774,113.3225485064645,11.40175425099138,15.811388300841896,28.861739379323623,32.01562118716424,16.492422502470642,62.0966987850401,46.32493928760188,36.0,46.0,15.0,14.5,29.5,16.5,8.5,7.615773105863909,8.06225774829855,7.5,18.0,59.0,51.92301994298868,248.8875247978492,249.23884127479008,244.92039523077696,235.3146829248018
117,25,117,0,3.899999999999989,25.317977802344327,119.81652640600127,10.44030650891055,14.866068747318506,30.805843601498726,33.95585369269929,16.492422502470642,66.94027188471824,52.172789842982326,38.5,47.0,17.0,16.0,33.0,22.0,10.0,7.615773105863909,8.94427190999916,8.0,17.0,57.0,54.120236510939236,250.68306683938587,250.83859352181037,245.69289774024807,236.71924298628534
118,25,118,0,3.9333333333333225,28.284271247461902,120.61923561356207,10.198039027185569,13.601470508735444,31.575306807693888,34.713109915419565,17.46424919657298,69.42621983083913,55.90169943749474,41.0,46.0,21.0,16.5,34.5,23.5,10.5,8.246211251235321,9.486832980505138,8.5,22.0,56.0,53.36665625650534,252.0039682227246,251.54323684011064,247.7357463104588,236.7129062810053
119,25,119,0,3.966666666666656,28.160255680657446,124.61540835707277,11.180339887498949,14.560219778561036,33.37663853655727,35.35533905932738,16.1245154965971,69.87131027825369,55.44366510251645,41.0,45.0,25.0,19.0,34.0,21.0,11.0,7.280109889280518,8.246211251235321,8.0,24.0,51.0,50.80354318352215,252.41434190631878,251.0657284457598,246.60291969074495,237.8949347926517
120,25,120,0,3.999999999999989,28.0178514522438,120.93386622447825,11.180339887498949,14.317821063276353,32.14031735997639,34.132096331752024,16.0312195418814,69.35416353759881,55.14526271584895,41.0,42.0,27.0,18.5,34.5,21.5,9.5,7.280109889280518,8.246211251235321,8.5,27.0,48.0,55.57877292636101,253.56853117056934,253.4284909002932,249.19470299346253,239.88330496305906
121,25,121,0,4.033333333333323,26.019223662515376,123.3288287465668,10.04987562112089,14.142135623730951,33.015148038438355,35.05709628591621,17.029386365926403,67.1863081289633,53.08483775994799,40.0,39.0,30.0,17.5,32.5,18.5,8.5,6.082762530298219,8.06225774829855,8.0,30.0,44.0,53.33854141237835,257.0311265197272,254.95097567963924,249.80192152983932,240.67405344157896
122,25,122,0,4.066666666666656,26.019223662515376,123.10158406779338,10.0,14.0,34.0,36.0,16.0,66.007575322837,52.009614495783374,39.0,36.0,31.0,17.5,32.5,18.5,8.5,6.082762530298219,7.0,6.5,30.0,40.0,53.150729063673246,256.632032295269,254.568261965234,250.51147678300092,240.40798655618744
123,25,123,0,4.099999999999989,24.0,124.00403219250575,10.0,14.0,34.0147027033899,36.013886210738214,17.029386365926403,65.00769185258002,51.0098029794274,39.0,35.0,34.0,17.5,30.5,16.5,7.5,6.0,7.0,7.0,34.0,39.0,53.0,256.236219141635,254.23807739990482,249.24285345822858,240.13329631685815
124,25,124,0,4.133333333333322,24.020824298928627,126.01587201618692,10.0,14.0,34.0147027033899,36.013886210738214,18.0,66.007575322837,52.009614495783374,40.0,34.0,36.0,17.0,31.0,16.0,7.0,7.0,8.06225774829855,8.5,37.0,37.0,49.01020301937138,256.00781238079435,254.00787389370433,247.00809703327542,239.0083680543424
125,25,125,0,4.166666666666655,24.020824298928627,125.14391715141412,10.0,14.0,33.06055050963308,36.05551275463989,17.11724276862369,65.06919393998976,51.088159097779204,39.0,31.0,37.0,17.0,31.0,15.0,7.0,6.082762530298219,7.0710678118654755,7.5,41.0,37.0,48.041648597857254,257.0175091311874,258.0310058888272,252.01785651020842,242.05164738129753
126,25,126,0,4.199999999999989,25.079872407968907,125.25573839150046,11.0,15.0,33.06055050963308,36.124783736376884,17.029386365926403,68.06614430096654,53.08483775994799,40.5,30.0,38.0,17.0,34.0,16.0,6.0,7.0710678118654755,7.280109889280518,7.5,45.0,35.0,50.15974481593781,258.3273117577776,257.2353008434107,251.19912420229494,240.16869071550522
127,25,127,0,4.233333333333322,24.020824298928627,124.57929201917949,11.045361017187261,15.132745950421556,32.14031735997639,36.22154055254967,16.1245154965971,66.27216610312357,51.15662224971465,39.0,25.0,37.0,15.0,35.0,18.0,4.0,8.246211251235321,9.219544457292887,9.0,48.0,34.0,51.088159097779204,255.86324472264477,256.7041098229633,251.6445906432324,241.59884105682295
128,25,128,0,4.266666666666655,24.08318915758459,123.9112585683803,11.045361017187261,14.035668847618199,34.36568055487916,36.345563690772494,18.439088914585774,67.47592163134935,53.46026561849464,41.0,26.0,41.0,15.5,33.5,15.5,3.5,8.246211251235321,9.219544457292887,9.0,49.0,33.0,54.147945482723536,258.21309029559285,258.02713035648014,250.9661331733826,240.8318915758459
129,25,129,0,4.299999999999988,25.019992006393608,126.01983970788092,10.04987562112089,15.297058540778355,33.37663853655727,36.345563690772494,17.46424919657298,67.60177512462228,52.3450093132096,39.5,23.0,39.0,14.0,36.0,18.0,3.0,8.54400374531753,9.219544457292887,9.0,50.0,32.0,51.35172830587107,255.6501515743732,256.3220630378899,252.05158202241066,240.8318915758459
130,25,130,0,4.3333333333333215,24.08318915758459,123.17873193047572,11.045361017187261,15.297058540778355,32.38826948140329,34.52535300326414,17.46424919657298,67.7421582177598,52.46903848937962,40.0,21.0,38.0,12.5,37.5,18.5,0.5,9.486832980505138,10.198039027185569,10.0,52.0,31.0,50.48762224545735,258.5188581129044,257.12642804659345,251.67637950352037,240.4100663449848
131,25,131,0,4.366666666666655,25.079872407968907,121.49485585818027,12.165525060596439,15.297058540778355,32.55764119219941,35.510561809129406,15.524174696260024,67.89698078707183,52.61178575186362,39.5,22.0,41.0,16.5,35.5,16.5,2.5,9.486832980505138,10.04987562112089,10.0,52.0,30.0,49.49747468305833,257.6703320136022,258.11818998280614,252.6697449240807,241.19701490690136
132,25,132,0,4.399999999999988,29.154759474226502,123.17873193047572,10.04987562112089,15.132745950421556,33.37663853655727,35.510561809129406,16.492422502470642,70.71067811865476,55.57877292636101,40.5,21.0,38.0,13.5,40.5,21.5,2.5,10.44030650891055,10.04987562112089,10.0,52.0,31.0,52.3450093132096,255.69122002915938,254.15152960389594,248.58197842965205,237.32045845227924
133,25,133,0,4.433333333333321,30.066592756745816,121.19818480488888,10.04987562112089,15.297058540778355,32.38826948140329,34.52535300326414,17.72004514666935,72.83543093852057,57.55866572463264,42.0,23.0,40.0,14.5,40.5,21.5,3.5,9.219544457292887,11.045361017187261,10.5,51.0,30.0,49.36598018878993,254.70178640912593,255.27436220662662,250.68306683938587,238.3149177034455
134,25,134,0,4.466666666666654,28.071337695236398,119.07980517283357,10.04987562112089,15.297058540778355,33.37663853655727,35.35533905932738,18.439088914585774,71.7007670809734,56.43580423808985,42.0,23.0,39.0,13.0,40.0,21.0,2.0,11.40175425099138,11.045361017187261,11.5,53.0,32.0,54.45181356024793,256.40007800310826,256.64372191814863,250.15395259719563,236.8459414893994
135,25,135,0,4.499999999999988,23.194827009486403,116.2497311824849,10.04987562112089,16.278820596099706,31.400636936215164,33.37663853655727,19.6468827043885,69.05070600652827,52.773099207835045,40.5,24.0,41.0,13.5,35.5,16.5,1.5,10.198039027185569,11.180339887498949,10.5,50.0,30.0,50.35871324805669,254.70178640912593,254.15152960389594,248.69660230891776,235.2275494069519
136,25,136,0,4.533333333333321,14.142135623730951,118.94956914591998,12.041594578792296,16.278820596099706,31.400636936215164,33.54101966249684,19.4164878389476,61.814237842102365,45.5411901469428,38.0,23.0,38.0,11.5,30.5,11.5,1.5,10.198039027185569,11.045361017187261,11.0,50.0,31.0,51.478150704935004,253.44230112591703,253.23704310388715,246.9817807045694,234.85314560380067
137,25,137,0,4.566666666666654,4.47213595499958,117.38824472663352,12.041594578792296,15.132745950421556,29.427877939124322,31.400636936215164,21.37755832643195,52.773099207835045,37.656340767525464,35.0,21.0,39.0,9.0,22.0,4.0,4.0,10.44030650891055,11.180339887498949,10.5,52.0,31.0,48.662100242385755,253.4284909002932,254.15152960389594,247.70345173210646,235.44001359157284
138,25,138,0,4.599999999999987,2.0,116.40017182117903,12.041594578792296,16.1245154965971,31.25699921617557,32.55764119219941,22.20360331117452,50.635955604688654,34.52535300326414,34.0,23.0,41.0,10.0,18.0,1.0,3.0,9.486832980505138,10.198039027185569,10.0,50.0,29.0,49.64876634922564,248.62019226120793,249.19470299346253,242.86004199950224,232.34887561595818
139,25,139,0,4.63333333333332,2.0,116.2497311824849,12.041594578792296,15.132745950421556,31.400636936215164,32.38826948140329,23.194827009486403,50.635955604688654,35.510561809129406,35.0,23.0,40.0,8.5,18.5,0.5,4.5,10.44030650891055,10.04987562112089,10.0,51.0,30.0,51.478150704935004,250.185930859431,249.92999019725505,243.85241438214223,231.46490014686893
140,25,140,0,4.666666666666654,7.280109889280518,116.1077086157504,11.045361017187261,14.142135623730951,30.265491900843113,32.38826948140329,21.213203435596427,53.600373133029585,39.45883931389772,35.5,22.0,38.0,9.0,23.0,6.0,3.0,10.198039027185569,11.180339887498949,10.5,51.0,30.0,50.48762224545735,249.92999019725505,248.69660230891776,242.3984323381651,231.14713928578047
141,25,141,0,4.699999999999987,12.165525060596439,113.99122773266372,12.041594578792296,15.132745950421556,28.442925306655784,31.25699921617557,20.396078054371138,59.682493245507096,44.553338819890925,38.0,24.0,39.0,11.5,27.5,9.5,2.5,10.198039027185569,10.04987562112089,9.5,50.0,31.0,50.35871324805669,251.17722826721374,250.80071770232237,243.39268682522078,231.04977818643323
142,25,142,0,4.73333333333332,15.033296378372908,115.97413504743201,11.045361017187261,14.142135623730951,30.4138126514911,31.25699921617557,20.396078054371138,60.530983801686226,46.389654018972806,38.5,23.0,38.0,10.5,29.5,11.5,1.5,9.219544457292887,9.055385138137417,9.0,50.0,31.0,50.48762224545735,250.3197954617253,249.80792621532248,243.39268682522078,232.24340679554285
143,25,143,0,4.766666666666653,16.0312195418814,117.957619508025,11.045361017187261,15.132745950421556,31.25699921617557,33.37663853655727,20.396078054371138,62.51399843235114,47.38143096192854,39.0,23.0,38.0,10.5,31.5,12.5,1.5,8.246211251235321,9.055385138137417,9.0,50.0,31.0,50.48762224545735,253.03161857759991,250.68306683938587,243.39268682522078,231.14713928578047
144,25,144,0,4.7999999999999865,15.132745950421556,118.94956914591998,11.045361017187261,15.033296378372908,31.25699921617557,34.36568055487916,19.235384061671343,60.40695324215582,45.39823785126467,37.5,22.0,37.0,10.5,30.5,12.5,1.5,9.486832980505138,10.04987562112089,10.0,50.0,32.0,48.507731342539614,253.16002844051033,252.6697449240807,246.48326515201796,234.23279018958897
145,25,145,0,4.83333333333332,16.1245154965971,117.957619508025,11.045361017187261,15.132745950421556,31.400636936215164,33.37663853655727,20.223748416156685,62.51399843235114,47.38143096192854,39.0,23.0,38.0,10.5,31.5,12.5,1.5,9.219544457292887,10.198039027185569,9.5,51.0,31.0,49.49747468305833,252.16859439668534,252.90709756746645,246.48326515201796,234.23279018958897
146,25,146,0,4.866666666666653,16.1245154965971,119.94165248152953,11.045361017187261,17.11724276862369,32.38826948140329,34.36568055487916,19.4164878389476,63.63961030678928,46.52956049652737,38.0,24.0,39.0,12.5,31.5,11.5,0.5,9.219544457292887,9.219544457292887,8.5,50.0,32.0,50.35871324805669,251.79356624028344,252.3430205097815,244.08605040026356,232.94849216082082
147,25,147,0,4.899999999999986,20.09975124224178,115.84903970253703,11.045361017187261,17.11724276862369,31.25699921617557,33.24154027718932,19.235384061671343,67.47592163134935,50.35871324805669,40.0,26.0,40.0,14.0,34.0,14.0,2.0,9.486832980505138,9.219544457292887,9.5,49.0,31.0,50.35871324805669,255.43100829773977,255.22734963165684,248.9738942138312,233.77339455121918
148,25,148,0,4.933333333333319,23.08679276123039,115.84903970253703,10.04987562112089,16.0312195418814,32.2490309931942,34.23448553724738,20.396078054371138,69.46221994724903,53.46026561849464,41.5,28.0,42.0,15.0,34.0,14.0,4.0,9.219544457292887,10.198039027185569,10.0,50.0,33.0,49.49747468305833,255.53864678361276,255.22734963165684,247.80839372386077,233.6193485137736
149,25,149,0,4.966666666666653,24.08318915758459,117.61377470347595,11.045361017187261,16.0312195418814,32.2490309931942,35.35533905932738,17.26267650163207,68.3593446428504,52.3450093132096,40.0,28.0,40.0,17.0,34.0,15.0,5.0,9.219544457292887,9.219544457292887,9.0,48.0,33.0,53.23532661682466,253.95472037353431,252.6420392571276,244.4606307772276,232.36393868240398
150,25,150,0,4.999999999999986,24.08318915758459,118.3427226321923,11.045361017187261,15.033296378372908,32.14031735997639,35.12833614050059,17.26267650163207,67.36467917239716,52.3450093132096,40.0,29.0,38.0,16.5,33.5,16.5,4.5,7.0710678118654755,7.280109889280518,7.0,47.0,35.0,53.08483775994799,252.79240494919938,251.57503850740042,244.3460660620506,233.25951213187426
151,25,151,0,5.033333333333319,22.02271554554524,116.21101496846157,11.045361017187261,15.033296378372908,31.064449134018133,32.14031735997639,17.029386365926403,65.12296062065974,50.08991914547278,39.0,31.0,38.0,17.5,30.5,13.5,6.5,6.082762530298219,6.324555320336759,6.0,43.0,35.0,53.08483775994799,253.28442510347926,250.1619475459847,242.0743687382041,232.0538730553748
152,25,152,0,5.066666666666652,22.02271554554524,116.03878661895772,11.045361017187261,17.0,32.0624390837628,34.058772731852805,15.033296378372908,65.00769185258002,48.010415536631214,37.0,33.0,36.0,19.5,30.5,12.5,7.5,4.123105625617661,4.123105625617661,4.0,43.0,37.0,50.039984012787215,253.03161857759991,250.00199999200007,244.0,234.00213674238105
153,25,153,0,5.099999999999985,20.024984394500787,116.01724009818541,12.0,17.0,31.016124838541646,33.015148038438355,15.033296378372908,64.0,47.0,37.0,33.0,35.0,19.0,30.0,12.0,7.0,3.0,3.605551275463989,3.0,40.0,37.0,48.010415536631214,253.0,250.01799935204664,243.0514348857048,234.05341270744162
154,25,154,0,5.133333333333319,21.02379604162864,116.00431026474836,12.0,16.0,31.0,33.0,15.033296378372908,64.0,48.0,37.5,35.0,34.0,19.5,29.5,12.5,8.5,3.0,3.0,3.0,39.0,39.0,51.0,254.23807739990482,251.3901350490906,245.45875417267155,233.36237914453991
155,25,155,0,5.166666666666652,21.02379604162864,114.03946685248927,11.045361017187261,14.035668847618199,31.0,33.0,15.0,61.00819617067857,47.0,36.5,33.0,30.0,16.5,29.5,14.5,6.5,3.0,4.0,4.0,35.0,39.0,49.040799340956916,248.39484696748443,249.64975465639858,243.90571949013415,234.0363219673391
156,25,156,0,5.199999999999985,21.02379604162864,113.07077429645558,10.0,14.035668847618199,30.01666203960727,33.0,16.1245154965971,61.1310068623117,47.095647357266465,36.5,34.0,30.0,16.0,29.0,14.0,7.0,4.0,5.0990195135927845,4.5,36.0,42.0,48.041648597857254,245.66033460858105,246.07722365143832,241.40422531513403,232.57256931977167
157,25,157,0,5.233333333333318,20.024984394500787,112.44554237496477,10.04987562112089,14.142135623730951,30.066592756745816,31.144823004794873,17.0,61.1310068623117,47.042533945356304,37.0,37.0,27.0,15.0,29.0,16.0,7.0,6.0,6.082762530298219,6.5,34.0,41.0,54.08326913195984,242.99794237811975,245.48930730278255,241.8677324489565,232.2154172315008
158,25,158,0,5.266666666666652,20.0,112.53888216967503,10.04987562112089,14.317821063276353,29.068883707497267,32.0624390837628,17.029386365926403,61.204574992397426,47.042533945356304,37.0,38.0,27.0,15.5,28.5,14.5,7.5,4.0,5.0990195135927845,5.0,36.0,44.0,47.095647357266465,242.3984323381651,244.9693858423946,240.7072911234722,232.13142829009604
159,25,159,0,5.299999999999985,19.1049731745428,111.87939935484101,10.04987562112089,13.152946437965905,28.160255680657446,31.25699921617557,17.029386365926403,59.30430001273095,46.17358552246078,36.5,39.0,25.0,15.0,27.0,15.0,7.0,7.0710678118654755,8.06225774829855,7.5,35.0,45.0,44.04543109109048,241.99380157351138,244.13520843991347,240.06665740997852,231.0411218809327
160,25,160,0,5.333333333333318,19.026297590440446,111.01801655587259,10.04987562112089,14.317821063276353,28.160255680657446,30.265491900843113,17.26267650163207,60.530983801686226,46.2709412050371,36.5,38.0,23.0,13.5,29.5,16.5,6.5,8.06225774829855,8.246211251235321,8.0,33.0,46.0,44.10215414239989,240.55976388415417,243.82165613415063,241.81191037663964,229.73245308401684
161,25,161,0,5.366666666666651,21.02379604162864,108.34205093129813,11.045361017187261,17.26267650163207,26.30589287593181,29.427877939124322,17.11724276862369,66.37017402418047,49.16299421312742,38.5,41.0,24.0,15.5,33.5,17.5,7.5,9.055385138137417,9.219544457292887,9.0,33.0,46.0,42.1070065428546,245.6175889467202,250.04999500099976,245.246814454337,231.38712150852302
162,25,162,0,5.399999999999984,29.068883707497267,109.04127658827184,9.055385138137417,16.278820596099706,28.442925306655784,30.59411708155671,18.110770276274835,72.44308110509934,56.22277118748239,41.5,45.0,24.0,16.5,37.5,22.5,10.5,9.219544457292887,10.44030650891055,9.5,32.0,48.0,42.190046219457976,243.97130978867168,246.9088900789115,241.36694056974744,229.01964981197574
163,25,163,0,5.433333333333318,35.05709628591621,108.06016842481785,9.055385138137417,16.278820596099706,28.442925306655784,30.4138126514911,17.26267650163207,77.52418977325722,61.29437168288782,43.5,45.0,24.0,17.5,42.5,28.5,11.5,10.198039027185569,9.486832980505138,9.0,30.0,48.0,44.28317965096906,241.04978738841484,247.42069436488129,243.29817097545143,230.9328906847182
164,25,164,0,5.466666666666651,32.0624390837628,110.21796586763884,9.055385138137417,17.26267650163207,28.442925306655784,31.78049716414141,17.26267650163207,75.53806987208503,58.309518948453004,42.0,44.0,22.0,16.0,42.0,28.0,11.0,10.04987562112089,10.770329614269007,10.0,28.0,47.0,46.2709412050371,238.8723508487326,242.55308697272852,240.14162487998618,226.24102192131292
165,25,165,0,5.499999999999984,29.017236257093817,107.28000745712129,9.055385138137417,15.297058540778355,26.476404589747453,29.614185789921695,19.1049731745428,72.3394774656273,57.14017850864661,42.5,48.0,26.0,18.0,35.0,22.0,12.0,10.198039027185569,9.486832980505138,9.0,29.0,48.0,49.25444142409901,244.55878638887626,248.62220335279792,244.97550897997945,232.28000344411913
166,25,166,0,5.533333333333317,26.076809620810597,107.07940978544848,9.055385138137417,16.278820596099706,27.294688127912362,29.832867780352597,19.235384061671343,70.57619995437555,54.3323108288245,41.0,46.0,25.0,16.5,34.5,20.5,10.5,9.055385138137417,9.486832980505138,9.0,29.0,49.0,48.25971404805462,248.8714527622644,250.79872407968904,245.48930730278255,231.89006015782564
167,25,167,0,5.56666666666665,26.076809620810597,108.25894882179486,9.055385138137417,17.26267650163207,27.459060435491963,30.59411708155671,18.110770276274835,70.45565981523414,53.23532661682466,40.0,46.0,24.0,17.0,35.0,21.0,11.0,9.055385138137417,8.54400374531753,8.0,29.0,48.0,45.27692569068709,244.1741182025646,248.35659846277488,244.09219569662608,231.22499864850255
168,25,168,0,5.599999999999984,26.076809620810597,109.4440496326776,9.055385138137417,17.26267650163207,28.442925306655784,31.575306807693888,18.110770276274835,70.45565981523414,53.23532661682466,40.0,46.0,23.0,16.5,35.5,21.5,10.5,9.055385138137417,8.54400374531753,8.0,29.0,48.0,41.30375285612676,240.4703723954367,246.661711661944,243.6801181877586,229.91520175925731
169,25,169,0,5.633333333333317,20.09975124224178,113.35784048754634,10.04987562112089,19.235384061671343,28.442925306655784,31.575306807693888,18.681541692269406,67.89698078707183,48.662100242385755,38.0,45.0,22.0,15.5,33.5,16.5,8.5,9.219544457292887,8.54400374531753,8.0,30.0,50.0,43.18564576337837,246.4467488119898,249.6116984438029,247.1214276423637,234.33522995913356
170,25,170,0,5.66666666666665,21.095023109728988,112.58774356030055,11.045361017187261,19.235384061671343,30.4138126514911,32.55764119219941,18.681541692269406,69.87131027825369,50.635955604688654,39.5,46.0,22.0,16.0,35.0,18.0,9.0,9.219544457292887,9.848857801796104,8.5,30.0,50.0,42.190046219457976,241.81397809059757,247.94555854057964,245.78242410717655,234.64441182350797
171,25,171,0,5.699999999999983,23.08679276123039,112.58774356030055,11.180339887498949,19.4164878389476,28.442925306655784,31.78049716414141,17.46424919657298,71.02112361825881,51.62363799656123,39.5,46.0,22.0,17.0,36.0,19.0,9.0,10.198039027185569,8.94427190999916,8.0,29.0,49.0,39.319206502675,245.56872765073325,251.75384803414624,250.0,239.0983061420553
172,25,172,0,5.7333333333333165,30.066592756745816,110.85576214162258,10.04987562112089,16.492422502470642,28.442925306655784,31.78049716414141,17.26267650163207,73.68174807915459,57.3149195236284,42.0,46.0,21.0,16.5,39.5,25.5,9.5,8.246211251235321,8.54400374531753,7.5,30.0,51.0,39.20459156782532,247.64894508154077,250.4096643502403,247.63077353188558,234.97446669797975
173,25,173,0,5.76666666666665,29.154759474226502,113.50770898930169,10.04987562112089,17.46424919657298,27.65863337187866,31.04834939252005,17.46424919657298,73.97972695272672,56.568542494923804,41.5,48.0,20.0,17.0,39.0,24.0,11.0,7.280109889280518,8.06225774829855,6.5,29.0,49.0,41.43669871020132,241.0808992848666,247.52373623553763,245.72545655670274,234.6955474652214
174,25,174,0,5.799999999999983,30.066592756745816,114.47707194019246,11.180339887498949,17.72004514666935,29.832867780352597,33.24154027718932,17.46424919657298,76.11832893594026,58.54912467321779,43.0,47.0,19.0,16.0,42.0,26.0,10.0,5.0,3.605551275463989,2.5,26.0,51.0,44.721359549995796,246.19707553096563,250.85653270345583,245.3935614477283,231.1990484409484
175,25,175,0,5.833333333333316,35.12833614050059,114.47707194019246,10.04987562112089,16.492422502470642,29.614185789921695,33.734255586866,17.46424919657298,78.91767862779544,62.51399843235114,44.5,50.0,22.0,19.0,42.0,29.0,13.0,2.8284271247461903,4.242640687119285,2.5,26.0,52.0,42.579337712087536,239.87079855622275,245.75190741884384,243.28789530101986,229.2705825002414
176,25,176,0,5.866666666666649,29.154759474226502,115.69356075426151,10.44030650891055,17.72004514666935,28.861739379323623,32.984845004941285,17.26267650163207,74.33034373659252,56.71860364994893,41.5,51.0,22.0,19.5,36.5,22.5,13.5,5.0,4.242640687119285,3.0,28.0,53.0,46.52956049652737,245.88005205790893,250.79274311670184,249.19069003476034,235.63743335896356
177,25,177,0,5.899999999999983,33.24154027718932,116.21101496846157,9.219544457292887,16.76305461424021,29.614185789921695,32.7566787083184,17.72004514666935,76.68767828015137,60.01666435249463,42.5,52.0,21.0,19.5,38.5,25.5,13.5,4.242640687119285,4.242640687119285,3.0,27.0,52.0,48.373546489791295,246.73872821265817,249.19470299346253,244.13520843991347,230.59271454232893
178,25,178,0,5.933333333333316,29.274562336608895,113.6001760562016,10.44030650891055,18.681541692269406,30.805843601498726,34.92849839314596,17.72004514666935,75.92759709091287,57.271284253105414,41.5,55.0,23.0,22.0,35.0,20.0,16.0,3.605551275463989,2.8284271247461903,2.5,25.0,54.0,50.80354318352215,251.14935795259362,251.09759058979438,243.81345327934633,229.92390045404153
179,25,179,0,5.966666666666649,31.25699921617557,115.52056094046635,10.44030650891055,18.973665961010276,32.01562118716424,34.92849839314596,17.46424919657298,77.62087348130012,58.69412236331676,41.5,54.0,22.0,22.0,37.0,22.0,16.0,5.830951894845301,5.385164807134504,5.0,22.0,51.0,47.51841748206689,244.1679749680535,247.63077353188558,242.54690268069803,230.21728866442677
180,25,180,0,5.999999999999982,31.25699921617557,115.24755962709145,10.198039027185569,18.027756377319946,31.78049716414141,34.92849839314596,18.384776310850235,77.3692445355388,59.43904440685432,42.5,53.0,22.0,20.5,37.5,23.5,14.5,7.211102550927978,7.211102550927978,5.5,21.0,49.0,45.5411901469428,246.37572932413616,248.58398983039916,242.26019070412704,229.91520175925731
181,25,181,0,6.033333333333316,29.154759474226502,114.0175425099138,10.44030650891055,18.027756377319946,30.805843601498726,33.95585369269929,19.313207915827967,76.40026177965623,58.463663928973865,42.5,52.0,22.0,19.0,37.0,22.0,13.0,7.211102550927978,8.602325267042627,6.5,19.0,48.0,42.42640687119285,248.28411145298847,248.2438317461282,241.91940806805889,228.31995094603536
182,25,182,0,6.066666666666649,30.14962686336267,112.53888216967503,10.44030650891055,18.973665961010276,29.614185789921695,32.55764119219941,18.384776310850235,77.3692445355388,58.463663928973865,42.0,51.0,23.0,20.0,38.0,22.0,13.0,8.54400374531753,9.433981132056603,8.0,18.0,48.0,44.553338819890925,247.1214276423637,247.40654801358835,239.841614404173,227.6071176391459
183,25,183,0,6.099999999999982,38.3275357934736,114.72575996697516,10.44030650891055,18.973665961010276,30.59411708155671,33.734255586866,17.46424919657298,84.64632301523794,65.73431371817918,45.0,52.0,23.0,21.5,44.5,28.5,14.5,10.44030650891055,11.704699910719626,10.5,20.0,50.0,44.40720662234904,248.65236777477105,249.23884127479008,242.91562321102361,230.26940743398808
184,25,184,0,6.133333333333315,36.345563690772494,112.79184367674819,10.198039027185569,17.72004514666935,30.805843601498726,33.734255586866,18.027756377319946,82.0,64.32728814430156,45.0,53.0,24.0,21.5,41.5,27.5,15.5,7.615773105863909,7.615773105863909,7.0,20.0,50.0,42.42640687119285,244.24577785501228,244.09219569662608,236.7298037848213,222.40728405337808
185,25,185,0,6.166666666666648,45.17742799230607,112.05802068571441,9.486832980505138,18.681541692269406,30.805843601498726,35.6931365951495,18.384776310850235,91.00549433962765,72.3671196055225,48.5,51.0,25.0,21.0,51.0,35.0,16.0,6.4031242374328485,5.830951894845301,5.0,19.0,51.0,45.5411901469428,246.6779276708802,247.0323865407125,240.80074750714542,227.3367546174617
186,25,186,0,6.1999999999999815,41.30375285612676,111.12605455067681,10.44030650891055,19.924858845171276,30.59411708155671,33.734255586866,19.235384061671343,89.98888820293314,70.09279563550022,47.5,54.0,24.0,22.0,48.0,31.0,16.0,5.656854249492381,5.0,4.0,19.0,51.0,46.52956049652737,246.34325645326686,245.3935614477283,238.75719884434898,225.49722836434154
187,25,187,0,6.233333333333315,35.35533905932738,114.28473213863697,10.44030650891055,19.924858845171276,31.78049716414141,34.92849839314596,18.384776310850235,83.67795408588812,63.788713735268246,44.5,53.0,22.0,20.5,43.5,26.5,14.5,6.4031242374328485,5.830951894845301,5.0,16.0,52.0,43.73785545725808,247.34186867572583,246.4000811688178,239.0815760362977,225.78751072634643
188,25,188,0,6.266666666666648,38.47076812334269,111.01801655587259,9.486832980505138,20.248456731316587,29.120439557122072,32.984845004941285,17.88854381999832,85.44003745317531,65.25335240430181,44.0,52.0,19.0,19.5,46.5,29.5,15.5,7.211102550927978,6.708203932499369,6.0,15.0,53.0,43.73785545725808,244.26624818013642,244.26624818013642,237.94537188186703,225.55043781824057
189,25,189,0,6.299999999999981,34.23448553724738,107.5174404457249,10.770329614269007,19.313207915827967,30.083217912982647,32.984845004941285,18.681541692269406,82.46211251235322,63.34824385884742,45.0,57.0,23.0,22.0,40.0,25.0,17.0,7.810249675906654,7.0710678118654755,5.0,14.0,54.0,45.60701700396552,243.2385660210979,242.90327292978165,236.57979626333267,224.8399430706208
190,25,190,0,6.333333333333314,39.319206502675,110.72488428533127,10.44030650891055,20.615528128088304,29.410882339705484,32.57299494980466,18.788294228055936,88.32326986700618,67.91170738539859,46.5,57.0,19.0,21.0,47.0,31.0,16.0,9.433981132056603,8.94427190999916,7.5,14.0,56.0,46.84015371452148,244.39312592624205,244.39312592624205,236.07202290826416,222.73302404448245
191,25,191,0,6.366666666666648,41.43669871020132,108.84851859350222,11.704699910719626,21.18962010041709,28.460498941515414,33.24154027718932,17.0,90.52071586106685,69.3757882838098,46.5,57.0,19.0,23.0,49.0,32.0,17.0,8.06225774829855,10.295630140987,8.5,15.0,57.0,46.84015371452148,242.7055829600959,243.6329205998237,236.01906702637396,222.28360263411244
192,25,192,0,6.399999999999981,22.561028345356956,104.75208828467335,12.36931687685298,20.248456731316587,28.160255680657446,31.32091952673165,17.88854381999832,72.73238618387272,52.49761899362675,39.0,55.0,18.0,20.5,32.5,17.5,13.5,8.94427190999916,10.295630140987,9.5,13.0,55.0,40.80441152620633,242.15697388264496,243.08229059312404,236.39373934180236,222.64994947226015
193,25,193,0,6.433333333333314,9.433981132056603,101.01980003939822,12.649110640673518,16.15549442140351,25.632011235952593,27.85677655436824,19.924858845171276,57.9396237474839,41.78516483155236,35.0,53.0,16.0,15.5,19.5,9.5,8.5,9.848857801796104,10.295630140987,9.5,15.0,58.0,41.7612260356422,243.08229059312404,243.6329205998237,236.57768280207665,226.59214461229675
194,25,194,0,6.466666666666647,5.0990195135927845,101.59232254457027,13.341664064126334,16.15549442140351,26.570660511172846,27.51363298439521,20.248456731316587,50.566787519082126,34.438350715445125,31.5,50.0,14.0,13.0,14.0,4.0,5.0,9.848857801796104,9.433981132056603,8.5,16.0,57.0,41.48493702538308,240.66574330386118,242.52834885843757,236.4254639415983,225.55043781824057
195,25,195,0,6.4999999999999805,4.0,101.84301645179212,12.36931687685298,16.15549442140351,26.248809496813376,27.51363298439521,19.924858845171276,49.76946855251722,33.61547262794322,31.0,47.0,13.0,11.0,16.0,5.0,4.0,9.486832980505138,8.94427190999916,8.5,14.0,56.0,42.44997055358225,240.10414407085938,240.66574330386118,233.98504225697846,224.3680012836055
196,25,196,0,6.533333333333314,5.0,103.12128781197411,12.36931687685298,17.08800749063506,26.248809496813376,28.460498941515414,20.8806130178211,54.42425929675111,37.33630940518894,33.5,50.0,15.0,12.5,18.5,6.5,4.5,8.54400374531753,8.06225774829855,7.5,14.0,56.0,43.68065933568311,242.89298054904756,243.46046907044274,237.71621736852538,226.24102192131292
197,25,197,0,6.566666666666647,9.848857801796104,107.83784122468327,12.649110640673518,17.08800749063506,28.460498941515414,31.622776601683793,18.681541692269406,58.18934610390462,41.10960958218893,34.5,48.0,13.0,12.5,24.5,12.5,5.5,8.06225774829855,8.06225774829855,7.5,14.0,57.0,46.17358552246078,242.52834885843757,243.46046907044274,237.36048533822978,227.17834403833479
198,25,198,0,6.59999999999998,13.92838827718412,111.0,12.36931687685298,18.027756377319946,28.460498941515414,30.675723300355934,18.027756377319946,62.297672508690084,44.27188724235731,35.5,49.0,13.0,14.0,28.0,16.0,7.0,7.211102550927978,8.06225774829855,7.5,13.0,57.0,45.5411901469428,247.34793308212625,247.91329129354884,241.2343259156955,230.68810112357335
199,25,199,0,6.633333333333313,19.6468827043885,112.89375536317321,10.44030650891055,17.08800749063506,30.364452901377952,31.622776601683793,18.027756377319946,65.14598989960932,48.08326112068523,36.5,49.0,13.0,14.0,31.0,18.0,9.0,6.708203932499369,7.211102550927978,6.5,14.0,57.0,45.880278987817846,244.39312592624205,244.9693858423946,240.87548650703334,230.68810112357335
200,25,200,0,6.666666666666647,22.80350850198276,112.57886124845996,10.44030650891055,17.08800749063506,29.410882339705484,32.28002478313795,16.76305461424021,67.05221845696084,50.0,37.0,47.0,12.0,13.5,34.5,22.5,8.5,7.615773105863909,8.06225774829855,7.5,16.0,56.0,45.60701700396552,239.9416595758227,241.2343259156955,236.78260071213003,227.17834403833479
201,25,201,0,6.69999999999998,19.4164878389476,113.52973178863765,11.704699910719626,18.384776310850235,30.364452901377952,32.57299494980466,16.76305461424021,66.09841147864296,47.80167361086848,36.5,48.0,13.0,14.5,32.5,19.5,8.5,8.06225774829855,8.06225774829855,7.0,14.0,55.0,44.9221548904324,241.1057859114957,242.0433845408711,236.6600938054407,228.0372776543344
202,25,202,0,6.733333333333313,23.53720459187964,115.7410903698423,10.44030650891055,17.08800749063506,30.364452901377952,32.28002478313795,17.72004514666935,68.6804193347711,51.66236541235796,38.5,49.0,13.0,14.0,35.0,23.0,10.0,7.615773105863909,8.06225774829855,8.0,15.0,56.0,47.80167361086848,243.92006887503126,242.6375898330677,237.25513693068902,228.0372776543344
203,25,203,0,6.766666666666646,27.459060435491963,115.24755962709145,11.40175425099138,16.76305461424021,29.832867780352597,32.984845004941285,16.15549442140351,71.56814934033156,54.817880294662984,39.5,49.0,18.0,18.5,35.5,22.5,11.5,6.708203932499369,8.06225774829855,7.0,17.0,55.0,48.507731342539614,244.78970566590417,244.51789300580847,238.19529802244207,228.37250272307304
204,25,204,0,6.799999999999979,26.30589287593181,114.47707194019246,11.40175425099138,18.027756377319946,30.805843601498726,32.7566787083184,15.524174696260024,71.06335201775947,53.150729063673246,39.0,48.0,20.0,19.0,35.0,21.0,12.0,8.246211251235321,8.94427190999916,8.0,20.0,53.0,49.24428900898052,241.20530674095875,240.80074750714542,236.96624232155938,227.2003521124032
205,25,205,0,6.833333333333313,27.294688127912362,112.17842929904127,10.198039027185569,15.524174696260024,29.427877939124322,31.575306807693888,16.278820596099706,69.2314957226839,53.75872022286245,39.5,45.0,23.0,18.0,34.0,21.0,11.0,6.708203932499369,8.94427190999916,7.5,21.0,50.0,50.00999900019995,245.70307283385773,246.9088900789115,240.60756430336932,229.95651762887695
206,25,206,0,6.866666666666646,32.14031735997639,114.27160627207444,9.055385138137417,14.317821063276353,32.2490309931942,34.23448553724738,16.278820596099706,71.7007670809734,57.42821606144492,41.0,42.0,25.0,17.5,37.5,23.5,11.5,6.324555320336759,6.324555320336759,6.5,25.0,46.0,56.32051136131489,243.19950657844683,244.36857408431223,238.28764130772709,227.1079038695043
207,25,207,0,6.899999999999979,31.016124838541646,114.6298390472568,10.04987562112089,14.317821063276353,30.14962686336267,33.06055050963308,16.1245154965971,71.34423592694787,57.14017850864661,41.5,42.0,30.0,20.0,35.0,22.0,12.0,7.280109889280518,8.06225774829855,7.5,28.0,44.0,46.2709412050371,236.1778990506944,236.1778990506944,232.2154172315008,225.1443981093023
208,25,208,0,6.933333333333312,33.015148038438355,117.27318534089538,10.0,14.142135623730951,32.0,35.014282800023196,16.0312195418814,73.10950690573696,59.033888572581766,42.5,40.0,32.0,20.0,37.0,22.0,11.0,7.0710678118654755,9.055385138137417,8.5,34.0,43.0,47.16990566028302,244.08605040026356,243.18717071424635,237.11811402758752,228.06358762415363
209,25,209,0,6.9666666666666455,33.0,115.03912377969506,9.0,13.038404810405298,32.0,35.0,16.0312195418814,71.02816342831905,58.008620049092706,41.5,37.0,34.0,19.5,35.5,20.5,11.5,7.0,8.06225774829855,8.5,36.0,41.0,47.01063709417264,244.29490375363952,242.3489220112192,235.35929979501554,227.31695933211847
210,25,210,0,6.999999999999979,34.0147027033899,116.03878661895772,10.0,14.0,32.01562118716424,35.05709628591621,14.035668847618199,72.02777242147643,58.034472514187634,41.0,32.0,35.0,19.5,38.5,22.5,9.5,8.06225774829855,9.055385138137417,9.0,40.0,38.0,52.009614495783374,244.0184419260151,243.01851781294363,237.00843866833097,227.01982292302142
211,25,211,0,7.033333333333312,34.058772731852805,115.35163631262454,9.0,14.035668847618199,33.13608305156178,36.22154055254967,15.297058540778355,72.24956747275377,58.215118311311535,41.0,30.0,39.0,19.5,37.5,20.5,10.5,7.0710678118654755,8.06225774829855,8.5,43.0,36.0,49.01020301937138,244.59149617270018,243.5939243905726,237.60892239139505,226.79726629745784
212,25,212,0,7.066666666666645,33.015148038438355,117.72000679578642,10.04987562112089,16.1245154965971,32.2490309931942,35.35533905932738,13.601470508735444,72.44308110509934,56.32051136131489,39.5,25.0,38.0,18.5,40.5,20.5,7.5,9.219544457292887,9.219544457292887,9.0,47.0,33.0,48.25971404805462,249.35917869611296,248.26195842295292,240.30397416605493,226.38462845343543
213,25,213,0,7.099999999999978,37.05401462729781,116.55899793666725,10.04987562112089,16.278820596099706,33.54101966249684,36.49657518178932,14.866068747318506,77.78174593052023,61.5223536610881,42.5,24.0,43.0,19.5,43.5,22.5,8.5,8.54400374531753,8.54400374531753,8.0,49.0,30.0,45.5411901469428,248.4069242191127,247.09714688761585,241.84705910967782,227.705950734714
214,25,214,0,7.133333333333312,40.11234224026316,120.22063050907694,11.180339887498949,16.278820596099706,34.713109915419565,37.8549864614954,12.649110640673518,79.90619500389191,63.63961030678928,43.0,22.0,45.0,21.5,45.5,23.5,9.5,8.54400374531753,8.54400374531753,8.0,51.0,27.0,45.70557952810576,245.16525039246488,246.14832926509982,240.25195108468944,227.1079038695043
215,25,215,0,7.166666666666645,43.04648650006177,116.49892703368559,11.180339887498949,16.492422502470642,33.54101966249684,36.87817782917155,13.0,83.02409288875127,66.61080993352356,44.5,22.0,46.0,22.0,48.0,26.0,10.0,9.486832980505138,9.486832980505138,8.5,54.0,26.0,50.00999900019995,250.25187311986298,250.45758123881976,244.1741182025646,228.87769659798658
216,25,216,0,7.199999999999978,38.05259518088089,120.22063050907694,7.280109889280518,14.560219778561036,33.54101966249684,36.87817782917155,15.297058540778355,74.81310045707235,60.40695324215582,41.0,13.0,36.0,9.5,49.5,30.5,1.5,8.94427190999916,9.848857801796104,8.5,52.0,24.0,49.24428900898052,246.33716731342025,244.38085031360376,238.8723508487326,228.47538160598398
217,25,217,0,7.233333333333311,35.12833614050059,117.47765745025733,9.219544457292887,15.524174696260024,32.7566787083184,35.90264614203248,16.492422502470642,76.11832893594026,60.67124524847005,42.5,15.0,39.0,11.0,48.0,28.0,1.0,8.94427190999916,8.54400374531753,8.0,55.0,24.0,52.172789842982326,245.56872765073325,246.5461417260469,242.21684499637922,230.0630348404541
218,25,218,0,7.266666666666644,48.093658625644196,116.92732785794773,9.219544457292887,15.524174696260024,35.6931365951495,39.293765408777,12.36931687685298,84.8528137423857,69.46221994724903,45.0,19.0,45.0,20.0,52.0,30.0,10.0,9.848857801796104,9.219544457292887,8.5,57.0,25.0,53.150729063673246,254.57808232446092,250.45758123881976,243.19539469323837,229.85647695899283
219,25,219,0,7.299999999999978,35.05709628591621,116.18089343777659,10.198039027185569,16.76305461424021,35.6931365951495,38.07886552931954,13.341664064126334,74.96665925596525,58.42088667591412,40.5,10.0,37.0,10.5,50.5,27.5,0.5,8.06225774829855,7.280109889280518,7.0,58.0,27.0,55.10898293381942,255.0019607767752,252.62224763468478,245.35892076710803,230.8354392202376
220,25,220,0,7.333333333333311,37.05401462729781,111.40017953306898,8.06225774829855,15.297058540778355,30.59411708155671,33.734255586866,20.396078054371138,80.62257748298549,65.37583651472461,46.5,21.0,44.0,12.5,47.5,27.5,2.5,8.06225774829855,8.06225774829855,7.0,55.0,27.0,51.19570294468082,251.87298386289865,249.55961211702507,243.14810301542556,230.82460874005614
221,25,221,0,7.366666666666644,33.015148038438355,112.17842929904127,8.246211251235321,14.317821063276353,32.55764119219941,34.713109915419565,24.515301344262525,79.76214641043707,65.49045732013177,48.5,24.0,46.0,11.0,44.0,25.0,2.0,9.848857801796104,8.246211251235321,8.5,55.0,25.0,52.172789842982326,259.0694887477103,259.47832279402456,252.68557536986555,237.06539182259397
222,25,222,0,7.399999999999977,21.095023109728988,108.85311203635843,13.152946437965905,18.24828759089466,31.575306807693888,33.54101966249684,19.1049731745428,71.56814934033156,53.33854141237835,42.5,30.0,50.0,21.0,31.0,9.0,6.0,8.94427190999916,8.06225774829855,7.5,53.0,24.0,50.44799302251776,252.00992043965255,251.62074636245717,244.36857408431223,230.67292862405853
223,25,223,0,7.4333333333333105,14.317821063276353,106.73331251301067,13.341664064126334,16.492422502470642,29.832867780352597,31.04834939252005,19.235384061671343,63.34824385884742,46.87216658103186,39.0,26.0,50.0,19.0,24.0,3.0,3.0,8.06225774829855,8.54400374531753,7.5,53.0,22.0,49.03060268852505,249.3692041933005,248.92770034690795,241.4477169078225,230.0630348404541
224,25,224,0,7.466666666666644,7.615773105863909,105.77334257741882,12.36931687685298,14.560219778561036,29.120439557122072,30.364452901377952,20.09975124224178,54.3415126767741,39.81205847478876,35.5,21.0,49.0,15.0,18.0,2.0,0.0,7.211102550927978,8.06225774829855,7.0,57.0,19.0,47.53945729601885,250.13996082193665,249.09837414162303,243.02263269086689,231.68297304722245
225,25,225,0,7.499999999999977,9.486832980505138,105.94810050208545,12.36931687685298,13.92838827718412,29.410882339705484,30.675723300355934,19.6468827043885,55.362442142665635,41.48493702538308,35.5,18.0,50.0,15.0,19.0,0.0,1.0,8.602325267042627,7.810249675906654,6.5,61.0,15.0,44.01136216933077,251.14935795259362,249.44738924270183,241.82018112638985,228.47319317591726
226,25,226,0,7.53333333333331,17.26267650163207,103.46496991735899,10.770329614269007,13.0,26.570660511172846,29.154759474226502,23.08679276123039,63.89053137985315,50.96076922496363,40.5,17.0,53.0,13.0,26.0,7.0,0.0,10.0,8.94427190999916,8.0,66.0,12.0,47.53945729601885,258.1937257177254,254.8803640926464,248.08063205337092,232.35533133543547
227,25,227,0,7.566666666666643,32.38826948140329,112.00892821556681,8.94427190999916,15.231546211727817,31.016124838541646,33.24154027718932,17.46424919657298,73.37574531137656,58.240879114244144,40.0,9.0,48.0,12.5,41.5,19.5,1.5,10.0,9.848857801796104,8.5,70.0,12.0,45.617978911828175,262.6404386228442,258.68127106537884,250.96015620014265,233.32380932943812
228,25,228,0,7.599999999999976,40.607881008493905,121.75795661885921,8.94427190999916,15.264337522473747,32.89376840679705,35.11409973215888,14.212670403551895,77.25283166331187,62.297672508690084,39.0,1.0,41.0,10.0,51.0,30.0,1.0,11.40175425099138,10.295630140987,9.0,72.0,13.0,45.65084884205331,254.80384612481814,253.3081127796739,245.3263133053607,228.47319317591726
229,25,229,0,7.63333333333331,44.553338819890925,118.00423721205946,7.211102550927978,15.652475842498529,30.083217912982647,33.24154027718932,16.64331697709324,82.54089895318563,67.05221845696084,42.0,7.0,41.0,10.0,54.0,34.0,2.0,12.529964086141668,11.40175425099138,11.0,56.0,7.0,48.703182647543684,246.48935068274247,243.82165613415063,237.08437316702253,223.61797781037194
230,25,230,0,7.666666666666643,34.713109915419565,121.8400590938793,7.211102550927978,14.7648230602334,32.28002478313795,34.20526275297414,17.204650534085253,72.61542535852834,57.9396237474839,37.0,0.0,34.0,3.0,50.0,31.0,5.0,10.816653826391969,10.770329614269007,9.5,57.0,5.0,52.49761899362675,251.07170290576354,248.8714527622644,241.76021178018522,226.04645540242387
231,25,231,0,7.699999999999976,41.773197148410844,127.81236246936366,8.06225774829855,16.1245154965971,32.31098884280702,35.84689665786984,15.620499351813308,79.84985911070852,63.90618123468183,39.5,5.0,39.0,5.0,57.0,35.0,5.0,11.40175425099138,10.770329614269007,8.5,75.0,10.0,47.41307836451879,277.0649743291274,272.90474528670256,264.43335644354704,246.4467488119898
232,25,232,0,7.733333333333309,40.024992192379,124.78781991845197,7.0710678118654755,16.64331697709324,33.24154027718932,35.84689665786984,17.029386365926403,78.7210264160726,62.24146527838174,37.5,7.0,39.0,3.0,55.0,33.0,6.0,12.206555615733702,12.083045973594572,10.5,77.0,15.0,53.85164807134504,272.2498852157701,267.8451044913832,258.2401982651036,238.66503723838562
233,25,233,0,7.766666666666643,38.63935817272331,125.93649193144932,7.810249675906654,15.264337522473747,33.83784863137726,36.40054944640259,18.601075237738275,78.39005038906404,63.324560795950255,40.0,5.0,39.0,2.0,55.0,34.0,7.0,12.529964086141668,11.704699910719626,10.5,77.0,17.0,55.154328932550705,279.1451235468748,274.8035662068453,264.9698096010185,244.23349483639626
234,25,234,0,7.799999999999976,37.8549864614954,126.64912159190051,9.433981132056603,17.0,37.0,39.0,21.633307652783937,84.69356528095862,67.77905281132217,44.5,0.0,46.0,5.0,55.0,31.0,7.0,14.7648230602334,12.649110640673518,12.0,78.0,17.0,53.48831648126533,272.6169473822198,269.2080979465514,258.68127106537884,237.6404847663798
235,25,235,0,7.833333333333309,39.6232255123179,126.53062870309307,8.94427190999916,17.4928556845359,34.785054261852174,38.27531841800928,22.02271554554524,86.00581375697809,68.70953354520753,44.5,1.0,44.0,5.5,56.5,33.5,5.5,14.7648230602334,13.341664064126334,12.5,77.0,19.0,57.584720195551874,274.4758641483801,271.64130760986995,262.36043909095747,240.35390573069537
236,25,236,0,7.866666666666642,50.48762224545735,117.00427342623003,11.180339887498949,18.788294228055936,31.32091952673165,34.48187929913333,15.620499351813308,93.92017887546851,75.28612089887484,47.0,11.0,48.0,17.5,59.5,36.5,4.5,12.529964086141668,13.0,11.5,71.0,10.0,44.77722635447622,262.0572456544562,261.20490041344937,254.53094114468678,235.51220775153035
237,25,237,0,7.899999999999975,38.8329756778952,115.7410903698423,11.704699910719626,18.384776310850235,30.364452901377952,33.52610922848042,19.235384061671343,87.5956619930462,69.26037828369117,47.0,15.0,51.0,16.0,50.0,27.0,2.0,11.661903789690601,12.083045973594572,10.5,69.0,12.0,44.28317965096906,255.5249498581303,254.8921340488953,247.40654801358835,230.41918322917473
238,25,238,0,7.933333333333309,32.38826948140329,109.78615577567146,11.180339887498949,17.88854381999832,28.792360097775937,31.016124838541646,19.697715603592208,80.32434251209281,62.6418390534633,44.0,15.0,53.0,16.0,42.0,20.0,2.0,14.317821063276353,13.0,11.5,72.0,12.0,47.853944456021594,258.69286808878206,257.1633721975196,248.28411145298847,230.93072554339753
239,25,239,0,7.966666666666642,23.53720459187964,106.62082348209472,12.083045973594572,17.46424919657298,27.730849247724095,29.966648127543394,20.8806130178211,73.68174807915459,56.32051136131489,42.5,16.0,58.0,17.0,33.0,10.0,0.0,12.529964086141668,12.083045973594572,11.0,76.0,16.0,45.18849411078001,260.0,261.6046635669938,254.31083343027288,237.24459951703852
240,25,240,0,7.999999999999975,16.76305461424021,105.84894897919393,13.601470508735444,18.973665961010276,26.92582403567252,30.463092423455635,21.840329667841555,71.16881339463234,52.20153254455275,42.0,15.0,55.0,14.0,33.0,9.0,3.0,13.416407864998739,13.0,12.0,71.0,17.0,47.92702786528704,254.6075411294803,255.266527378738,248.90962215229848,233.33452380648689
241,25,241,0,8.033333333333308,17.72004514666935,108.63240768757728,12.649110640673518,18.027756377319946,27.85677655436824,31.78049716414141,21.18962010041709,69.57010852370435,51.54609587543949,40.5,14.0,54.0,14.0,32.0,9.0,2.0,13.0,11.704699910719626,11.5,69.0,17.0,51.264022471905186,257.4373710244882,254.9745085297744,246.71643642043796,233.10512649875378
242,25,242,0,8.066666666666642,19.924858845171276,110.13627921806692,10.770329614269007,16.15549442140351,29.732137494637012,31.78049716414141,21.18962010041709,68.00735254367721,51.86520991955976,39.5,14.0,53.0,13.5,30.5,8.5,0.5,13.0,11.40175425099138,11.0,67.0,16.0,54.70831746635972,260.2710126003278,254.9745085297744,244.5240274492468,232.8797973204202
243,25,243,0,8.099999999999975,19.6468827043885,113.22543883774529,10.770329614269007,16.55294535724685,30.675723300355934,31.953090617340916,18.027756377319946,64.8459713474939,48.38388161361178,36.5,11.0,45.0,11.0,33.0,12.0,3.0,12.083045973594572,11.704699910719626,10.5,66.0,17.0,54.120236510939236,253.33179824096302,253.06125740618614,245.2305038122297,231.68297304722245
244,25,244,0,8.133333333333308,17.72004514666935,112.27199116431488,10.44030650891055,16.15549442140351,30.083217912982647,31.953090617340916,19.313207915827967,63.56886030125127,47.43416490252569,36.5,11.0,45.0,10.0,32.0,12.0,3.0,11.180339887498949,10.44030650891055,9.5,66.0,16.0,50.92150822589606,254.6075411294803,253.3554814879678,245.48930730278255,232.8797973204202
245,25,245,0,8.166666666666641,17.46424919657298,110.67971810589327,9.848857801796104,14.317821063276353,29.410882339705484,31.953090617340916,19.924858845171276,61.35144660071187,47.12748667179272,36.5,10.0,45.0,8.5,30.5,11.5,3.5,12.529964086141668,11.704699910719626,10.5,68.0,16.0,55.65968020030299,255.55038642115179,253.95472037353431,246.5623653358314,235.51220775153035
246,25,246,0,8.199999999999974,14.560219778561036,110.06361796706484,10.770329614269007,15.231546211727817,29.410882339705484,32.89376840679705,18.973665961010276,59.464274989274024,44.27188724235731,35.0,10.0,43.0,8.5,29.5,8.5,4.5,11.180339887498949,10.770329614269007,9.5,66.0,16.0,54.70831746635972,254.8921340488953,255.266527378738,247.68124676688785,234.30749027719963
247,25,247,0,8.233333333333308,14.560219778561036,109.11003620199197,10.770329614269007,15.231546211727817,29.732137494637012,31.016124838541646,19.924858845171276,60.40695324215582,45.221676218380054,36.0,10.0,46.0,9.0,29.0,9.0,5.0,11.661903789690601,9.848857801796104,8.5,68.0,16.0,53.48831648126533,257.0933682536366,256.04101233982027,247.63077353188558,234.18368858654523
248,25,248,0,8.26666666666664,21.587033144922902,109.73149046650191,9.486832980505138,17.72004514666935,30.675723300355934,31.953090617340916,19.313207915827967,68.00735254367721,50.28916384272063,37.5,13.0,48.0,12.5,34.5,11.5,0.5,8.94427190999916,8.94427190999916,7.5,66.0,18.0,52.49761899362675,257.4373710244882,254.68608128439215,246.19707553096563,230.4886114323222
249,25,249,0,8.299999999999974,24.331050121192877,108.24047302187847,10.44030650891055,18.681541692269406,30.364452901377952,32.28002478313795,19.924858845171276,73.24616030891995,54.57105459856901,41.0,17.0,47.0,13.0,39.0,16.0,0.0,8.94427190999916,9.848857801796104,8.0,65.0,20.0,52.20153254455275,254.9078264785136,253.73411280314676,246.4467488119898,229.0720410700529
250,25,250,0,8.333333333333307,28.284271247461902,108.17116066678771,11.40175425099138,19.4164878389476,30.805843601498726,32.984845004941285,19.4164878389476,78.44743462982075,59.033888572581766,44.0,20.0,46.0,14.0,44.0,20.0,1.0,9.848857801796104,9.848857801796104,8.5,63.0,22.0,52.20153254455275,253.29824318380102,253.9488137400921,245.93088459971838,228.84929538890873
251,25,251,0,8.36666666666664,32.2490309931942,108.25894882179486,12.165525060596439,19.235384061671343,30.59411708155671,33.734255586866,20.223748416156685,83.86298349093002,64.6297145282261,48.0,24.0,46.0,15.0,48.0,24.0,2.0,10.295630140987,9.486832980505138,9.0,62.0,24.0,52.20153254455275,252.23996511258878,254.37177516383377,245.6175889467202,227.85302280198084
252,25,252,0,8.399999999999974,36.124783736376884,108.34205093129813,12.165525060596439,20.223748416156685,30.4138126514911,33.54101966249684,21.02379604162864,89.45389874119518,69.26037828369117,51.0,28.0,45.0,15.5,52.5,28.5,2.5,11.180339887498949,9.486832980505138,9.0,61.0,27.0,51.92301994298868,251.4358765172544,253.84247083575278,246.49746449000241,227.16733920174352
253,25,253,0,8.433333333333307,31.064449134018133,107.56393447619885,13.152946437965905,20.09975124224178,30.14962686336267,33.13608305156178,22.02271554554524,86.14522621712709,66.06814663663572,50.5,32.0,43.0,15.5,48.5,25.5,2.5,10.44030650891055,9.486832980505138,9.0,56.0,30.0,54.12947441089743,252.16859439668534,254.23217734976035,245.58908770545975,228.1403077055872
254,25,254,0,8.46666666666664,24.020824298928627,110.22250223978767,12.165525060596439,19.026297590440446,30.066592756745816,33.06055050963308,23.08679276123039,78.02563681252464,59.00847396772772,47.0,33.0,40.0,13.5,41.5,19.5,1.5,10.44030650891055,9.219544457292887,9.0,54.0,33.0,53.600373133029585,258.3118270617898,256.7041098229633,248.34049206683954,232.07757323791543
255,25,255,0,8.499999999999973,12.0,108.04165863221463,13.038404810405298,19.026297590440446,29.017236257093817,30.01666203960727,24.020824298928627,68.00735254367721,49.0,43.0,36.0,39.0,13.5,30.5,9.5,0.5,10.198039027185569,9.219544457292887,9.0,49.0,35.0,54.230987451824994,257.1575392633862,257.0486335306998,249.0020080240318,235.03404008781365
256,25,256,0,8.533333333333307,7.0,108.01851693112621,13.0,17.0,29.017236257093817,30.01666203960727,24.08318915758459,61.032778078668514,44.04543109109048,40.5,38.0,36.0,13.0,24.0,6.0,0.0,11.0,11.045361017187261,11.0,42.0,39.0,50.039984012787215,250.19992006393608,252.28555249954366,245.52189311749777,232.55106965997814
257,25,257,0,8.56666666666664,4.0,112.21853679316978,15.0,19.0,29.0,30.01666203960727,23.345235059857504,61.1310068623117,42.190046219457976,40.0,39.0,32.0,12.5,25.5,6.5,1.5,11.0,11.0,11.0,39.0,43.0,55.00909015790027,257.3169252109157,257.3169252109157,248.3646512690564,235.2275494069519
258,25,258,0,8.599999999999973,7.0710678118654755,112.64102272262978,14.0,19.1049731745428,28.071337695236398,30.066592756745816,23.345235059857504,63.387695966961914,44.28317965096906,40.5,42.0,30.0,13.0,27.0,8.0,0.0,11.045361017187261,10.04987562112089,10.5,40.0,47.0,56.0357029044876,258.63101128828305,258.63101128828305,250.80071770232237,238.76766950322232
259,25,259,0,8.633333333333306,10.198039027185569,115.84903970253703,14.035668847618199,21.095023109728988,30.066592756745816,32.14031735997639,21.213203435596427,66.48308055437865,45.39823785126467,40.0,43.0,29.0,15.0,30.0,10.0,2.0,10.198039027185569,10.198039027185569,10.5,37.0,51.0,52.15361924162119,260.78343505675355,260.93102536877444,253.02371430362015,241.01452238402564
260,25,260,0,8.66666666666664,15.132745950421556,117.5457357797381,13.152946437965905,20.223748416156685,31.25699921617557,33.24154027718932,19.235384061671343,67.7421582177598,47.51841748206689,39.5,45.0,26.0,16.5,31.5,13.5,5.5,11.180339887498949,10.198039027185569,10.5,34.0,53.0,53.46026561849464,261.444066675838,258.87448696231155,250.83261350948763,239.459808736247
261,25,261,0,8.699999999999973,17.11724276862369,120.03332870498926,12.165525060596439,19.4164878389476,30.4138126514911,33.54101966249684,20.223748416156685,68.8839603971781,49.49747468305833,40.5,46.0,24.0,15.0,33.0,16.0,6.0,10.04987562112089,10.44030650891055,10.0,30.0,54.0,54.45181356024793,264.3671689147501,261.6333312099206,252.41434190631878,241.03319273494262
262,25,262,0,8.733333333333306,15.132745950421556,119.4361754243663,12.165525060596439,20.396078054371138,30.4138126514911,33.734255586866,20.223748416156685,67.89698078707183,47.51841748206689,39.5,47.0,23.0,15.0,32.0,15.0,6.0,9.219544457292887,9.219544457292887,9.5,29.0,56.0,52.46903848937962,268.0335799857921,266.3174797117155,259.2778432492835,245.70307283385773
263,25,263,0,8.766666666666639,16.278820596099706,121.80722474467596,13.152946437965905,21.37755832643195,32.38826948140329,35.90264614203248,19.4164878389476,70.21395872616783,48.83646178829912,40.0,47.0,21.0,15.0,35.0,17.0,6.0,10.198039027185569,11.704699910719626,10.5,28.0,58.0,52.773099207835045,265.09243670840556,264.8773300982929,257.1536505671269,244.787663087828
264,25,264,0,8.799999999999972,22.360679774997898,121.51131634543344,12.165525060596439,19.4164878389476,31.78049716414141,34.92849839314596,18.439088914585774,72.3671196055225,52.952809179494906,41.0,48.0,19.0,15.5,37.5,20.5,8.5,10.198039027185569,11.40175425099138,11.5,24.0,58.0,52.773099207835045,266.5576860643865,264.43335644354704,257.41989045137905,244.787663087828
265,25,265,0,8.833333333333306,28.284271247461902,121.27654348636426,11.180339887498949,16.492422502470642,32.55764119219941,35.90264614203248,20.396078054371138,76.2954782408499,59.841457201508724,45.0,49.0,21.0,15.0,40.0,26.0,8.0,10.198039027185569,11.704699910719626,11.5,23.0,57.0,52.952809179494906,262.50523804297694,260.84861510078986,252.8813951242756,240.24362634625712
266,25,266,0,8.866666666666639,29.154759474226502,120.30378215168466,12.36931687685298,16.76305461424021,31.78049716414141,34.92849839314596,19.4164878389476,77.46612162745726,60.8276253029822,45.5,49.0,21.0,16.0,41.0,27.0,9.0,10.198039027185569,11.704699910719626,11.0,23.0,56.0,53.9351462406472,252.9703539942971,254.18890613085378,248.84734276258607,237.2003372678884
267,25,267,0,8.899999999999972,31.144823004794873,120.07497657713701,11.40175425099138,17.46424919657298,31.575306807693888,34.713109915419565,19.235384061671343,79.07591289387686,61.66036003787198,45.5,50.0,23.0,17.5,41.5,26.5,9.5,11.180339887498949,11.704699910719626,11.5,23.0,55.0,52.952809179494906,257.8565492672234,257.1536505671269,249.8739682319869,237.24459951703852
268,25,268,0,8.933333333333305,31.144823004794873,120.07497657713701,11.40175425099138,16.492422502470642,32.55764119219941,35.90264614203248,19.235384061671343,78.08969202141856,61.66036003787198,45.5,49.0,22.0,16.5,41.5,27.5,9.5,10.198039027185569,10.770329614269007,10.0,26.0,56.0,52.773099207835045,263.8787600395303,263.40273347101015,255.4094751570505,242.78797334299736
269,25,269,0,8.966666666666638,30.265491900843113,121.0495766204905,11.180339887498949,16.492422502470642,32.38826948140329,34.92849839314596,20.223748416156685,78.08969202141856,61.66036003787198,46.0,51.0,24.0,17.5,39.5,25.5,10.5,10.198039027185569,11.704699910719626,11.0,27.0,56.0,53.150729063673246,263.4008352302627,261.9389241789009,253.9389690457138,241.32343441945292
270,25,270,0,8.999999999999972,28.160255680657446,121.0495766204905,11.180339887498949,17.46424919657298,30.59411708155671,33.734255586866,19.235384061671343,75.95393340703298,58.54912467321779,44.0,49.0,22.0,16.5,39.5,25.5,9.5,10.198039027185569,10.44030650891055,10.0,29.0,55.0,52.773099207835045,262.48809496813374,260.99042128016885,254.42091109026396,241.32343441945292
271,25,271,0,9.033333333333305,18.110770276274835,118.25819210524064,11.180339887498949,18.24828759089466,29.427877939124322,32.55764119219941,21.095023109728988,68.59300255857006,50.35871324805669,41.0,46.0,23.0,13.5,33.5,17.5,6.5,11.180339887498949,11.40175425099138,11.0,27.0,52.0,53.600373133029585,263.24513290847375,260.5379051117131,252.0039682227246,238.4302833114955
272,25,272,0,9.066666666666638,14.317821063276353,118.06777714516353,10.04987562112089,15.524174696260024,29.274562336608895,32.55764119219941,22.02271554554524,61.66036003787198,46.2709412050371,39.0,45.0,23.0,12.0,27.0,14.0,5.0,10.04987562112089,11.40175425099138,10.5,30.0,52.0,51.478150704935004,258.68320393871727,257.89338882569285,251.23096942853203,238.8723508487326
273,25,273,0,9.099999999999971,11.180339887498949,114.42464769445436,11.180339887498949,15.297058540778355,30.14962686336267,31.400636936215164,22.02271554554524,59.53990258641679,44.28317965096906,38.5,43.0,25.0,12.0,25.0,12.0,4.0,10.04987562112089,10.44030650891055,10.0,30.0,51.0,51.35172830587107,257.78285435614214,258.1317493064346,250.88842141477951,238.549785160247
274,25,274,0,9.133333333333304,13.152946437965905,113.13708498984761,9.055385138137417,15.297058540778355,30.14962686336267,31.25699921617557,23.08679276123039,60.530983801686226,45.27692569068709,38.5,43.0,27.0,12.0,25.0,11.0,5.0,10.04987562112089,10.198039027185569,10.0,32.0,48.0,57.07889277132134,252.7231687044146,254.16726775885206,247.09714688761585,234.93190502781866
275,25,275,0,9.166666666666638,10.198039027185569,113.0,8.06225774829855,14.142135623730951,29.068883707497267,31.25699921617557,25.079872407968907,57.42821606144492,43.289721643826724,38.0,44.0,29.0,11.5,20.5,7.5,5.5,10.04987562112089,11.180339887498949,11.0,32.0,48.0,51.15662224971465,261.48996156640504,259.7941492797711,250.89440009693323,236.7530358833863
276,25,276,0,9.19999999999997,11.045361017187261,111.44954015158609,8.0,14.142135623730951,28.0178514522438,30.066592756745816,24.08318915758459,57.21887800367987,43.104524124504614,37.5,40.0,30.0,11.0,22.0,8.0,5.0,11.045361017187261,12.165525060596439,11.5,36.0,48.0,52.08646657242167,260.6184951226601,258.8628980754098,250.80071770232237,236.90715480964266
277,25,277,0,9.233333333333304,13.038404810405298,109.22453936730518,8.0,15.033296378372908,28.0,30.066592756745816,24.08318915758459,60.13318551349163,45.09988913511872,38.5,40.0,33.0,12.5,23.5,7.5,5.5,13.0,13.038404810405298,13.0,38.0,46.0,54.08326913195984,259.77105304479176,256.9435735720977,248.16325271885037,234.23279018958897
278,25,278,0,9.266666666666636,16.0,107.0420478129973,8.06225774829855,18.027756377319946,29.017236257093817,31.016124838541646,25.0,67.02984409947557,49.01020301937138,41.0,40.0,37.0,13.5,28.5,10.5,5.5,12.0,12.041594578792296,12.5,41.0,44.0,54.0,259.2778432492835,257.4373710244882,248.51559307214507,234.69128658729537
279,25,279,0,9.29999999999997,23.021728866442675,104.04326023342406,10.0,20.0,27.0,30.0,24.08318915758459,77.05841939723393,57.07889277132134,45.5,42.0,39.0,16.5,36.5,15.5,7.5,13.038404810405298,13.0,13.0,42.0,42.0,52.03844732503075,260.1922366251537,258.3273117577776,247.51767613647314,230.62740513651016
280,25,280,0,9.333333333333304,34.0,104.00480758118829,10.0,19.0,29.017236257093817,31.016124838541646,23.021728866442675,86.00581375697809,67.00746227100382,50.0,42.0,43.0,19.5,43.5,21.5,9.5,14.035668847618199,13.0,13.5,46.0,41.0,52.08646657242167,262.01717500957835,260.09421369957465,248.16325271885037,230.2628932329306
281,25,281,0,9.366666666666635,35.0,107.00467279516349,11.0,21.0,29.068883707497267,32.01562118716424,24.020824298928627,91.00549433962765,70.00714249274856,52.5,42.0,43.0,18.5,48.5,25.5,7.5,14.035668847618199,13.0,13.0,48.0,40.0,52.15361924162119,263.0171097096157,261.01724080987447,250.0719896349849,231.17525819170183
282,25,282,0,9.39999999999997,38.0,107.07474025184464,11.045361017187261,21.0,29.017236257093817,32.01562118716424,23.021728866442675,93.0,72.0,53.0,41.0,45.0,20.0,50.0,27.0,9.0,15.132745950421556,13.0,13.5,51.0,40.0,53.150729063673246,263.0931394012394,261.01724080987447,250.0,230.00869548780108
283,25,283,0,9.433333333333303,38.0,110.07270324653611,11.0,21.02379604162864,31.064449134018133,33.06055050963308,24.020824298928627,94.0,73.00684899377592,54.0,40.0,44.0,18.0,52.0,28.0,7.0,13.152946437965905,13.0,13.0,48.0,39.0,54.147945482723536,263.04752422328556,261.00766272276377,249.00803199896987,232.03448019637082
284,25,284,0,9.466666666666637,38.0,107.07474025184464,11.0,21.0,29.068883707497267,32.01562118716424,24.020824298928627,94.00531899844816,73.00684899377592,54.0,43.0,47.0,21.0,49.0,25.0,9.0,14.142135623730951,13.038404810405298,13.0,47.0,39.0,53.23532661682466,264.04734423962685,261.0,249.0321264415497,231.10603626906848
285,25,285,0,9.49999999999997,35.0,109.1146186356347,13.0,23.021728866442675,29.068883707497267,33.015148038438355,22.02271554554524,93.0,70.00714249274856,52.5,39.0,44.0,19.5,51.5,26.5,6.5,14.142135623730951,13.0,13.0,49.0,39.0,53.23532661682466,263.1900454044567,262.0686932847951,251.00796800101784,234.00213674238105
286,25,286,0,9.533333333333305,35.014282800023196,107.07474025184464,13.0,22.0,29.068883707497267,32.0624390837628,23.08679276123039,93.00537618869137,71.00704190430693,53.5,41.0,45.0,20.0,50.0,25.0,7.0,14.142135623730951,13.038404810405298,13.0,47.0,39.0,53.23532661682466,263.0304164920856,260.0,248.0181444975347,231.07790893982056
287,25,287,0,9.566666666666636,36.0,109.04127658827184,12.041594578792296,22.0,30.066592756745816,33.06055050963308,23.08679276123039,93.00537618869137,71.00704190430693,53.0,40.0,43.0,18.5,51.5,27.5,5.5,14.142135623730951,13.0,13.5,48.0,40.0,54.147945482723536,264.04734423962685,262.0,249.0180716333656,232.0538730553748
288,25,288,0,9.59999999999997,34.0,109.04127658827184,13.038404810405298,22.0,30.01666203960727,33.015148038438355,23.021728866442675,92.0,70.0,53.0,41.0,44.0,19.5,49.5,25.5,6.5,12.165525060596439,12.0,12.5,47.0,40.0,54.147945482723536,262.03053257206494,258.0,248.0181444975347,231.05410621756974
289,25,289,0,9.633333333333304,23.021728866442675,110.00454536063498,13.0,22.0,30.01666203960727,32.0,25.0,83.00602387778854,61.00819617067857,49.5,41.0,42.0,16.5,41.5,17.5,3.5,13.152946437965905,13.0,12.5,48.0,40.0,55.14526271584895,262.01717500957835,259.0,248.0181444975347,232.0538730553748
290,25,290,0,9.666666666666636,9.0,107.0420478129973,14.0,19.0,30.01666203960727,31.016124838541646,26.019223662515376,68.00735254367721,49.01020301937138,44.5,39.0,42.0,14.5,27.5,6.5,1.5,14.142135623730951,12.0,12.5,50.0,39.0,53.23532661682466,267.2695268825086,264.12118430750684,252.03174403237384,238.01890681204299
291,25,291,0,9.699999999999967,5.0990195135927845,109.1146186356347,13.038404810405298,18.027756377319946,30.066592756745816,32.0624390837628,25.019992006393608,61.0,43.01162633521314,40.5,36.0,41.0,13.5,22.5,2.5,0.5,13.152946437965905,11.045361017187261,11.5,51.0,39.0,50.24937810560445,268.41944787961995,266.27053911388697,256.1581542719263,241.1016383187804
292,25,292,0,9.733333333333302,6.0,110.16351483136329,13.038404810405298,18.0,30.066592756745816,31.064449134018133,27.0,64.00781202322104,46.010868281309364,43.0,37.0,43.0,13.0,24.0,4.0,0.0,12.041594578792296,12.041594578792296,11.5,50.0,40.0,56.22277118748239,266.12027356065903,263.0684321616716,253.03161857759991,238.01890681204299
293,25,293,0,9.766666666666636,9.055385138137417,110.22250223978767,16.0,21.0,32.0624390837628,33.06055050963308,24.020824298928627,70.02856560004639,49.040799340956916,44.5,38.0,45.0,17.5,28.5,5.5,1.5,11.180339887498949,11.0,11.0,51.0,38.0,56.22277118748239,267.4210163767986,264.18932605235966,254.09643838511394,239.0522955338434
294,25,294,0,9.799999999999969,28.071337695236398,113.44161493913951,14.035668847618199,24.020824298928627,33.24154027718932,36.124783736376884,23.08679276123039,89.20201791439474,65.19202405202648,51.0,39.0,49.0,21.0,45.0,19.0,6.0,11.40175425099138,11.045361017187261,11.0,51.0,37.0,54.147945482723536,266.9082239272518,264.61292485439935,252.44603383693712,236.30488780387088
295,25,295,0,9.833333333333302,37.12142238654117,118.6086000254619,12.041594578792296,21.095023109728988,34.23448553724738,38.3275357934736,19.235384061671343,89.45389874119518,68.3593446428504,49.5,35.0,47.0,22.0,48.0,23.0,8.0,7.280109889280518,6.708203932499369,6.5,52.0,36.0,50.35871324805669,263.09694030908076,260.69330639661615,252.44603383693712,237.30360300678117
296,25,296,0,9.866666666666635,37.05401462729781,124.4869471069156,12.041594578792296,21.095023109728988,34.23448553724738,38.2099463490856,19.1049731745428,89.27485648266257,68.18357573492314,49.5,32.0,43.0,18.5,51.5,27.5,6.5,7.280109889280518,6.708203932499369,6.5,52.0,35.0,53.33854141237835,263.28691574022434,261.84346468835156,253.63950796356627,238.47222060441337
297,25,297,0,9.899999999999968,30.14962686336267,117.23907198540937,8.06225774829855,18.24828759089466,34.23448553724738,38.3275357934736,18.027756377319946,74.14849964766651,55.90169943749474,40.0,15.0,32.0,6.5,49.5,27.5,1.5,5.385164807134504,5.0,4.5,49.0,24.0,64.6297145282261,268.8438208328397,265.1886121235224,254.8921340488953,240.4100663449848
298,25,298,0,9.933333333333302,40.049968789001575,120.3536455617361,12.165525060596439,20.223748416156685,35.35533905932738,38.47076812334269,14.560219778561036,86.70063436907483,66.48308055437865,46.0,28.0,46.0,23.0,49.0,25.0,10.0,8.246211251235321,8.54400374531753,7.5,55.0,32.0,49.49747468305833,259.42243542145695,258.80494585691366,251.44780770569466,238.15961034566715
299,25,299,0,9.966666666666637,36.124783736376884,119.05040949110591,10.198039027185569,17.72004514666935,33.54101966249684,36.6742416417845,19.4164878389476,83.18653737234169,65.62011886609167,47.0,26.0,48.0,18.0,45.0,23.0,7.0,8.54400374531753,7.615773105863909,7.5,54.0,29.0,58.69412236331676,266.8220380703213,265.34505836740203,255.98828098176682,240.85887984460942
300,25,300,0,9.999999999999968,37.12142238654117,126.30122723077555,10.44030650891055,15.524174696260024,34.52535300326414,36.87817782917155,15.524174696260024,78.26237921249263,62.80127387243033,43.5,22.0,46.0,19.0,43.0,23.0,7.0,9.848857801796104,9.486832980505138,9.0,58.0,28.0,51.78802950489621,263.97348351681086,260.64727123068064,253.58430550804994,238.47851056227267
301,25,301,0,10.0333333333333,32.2490309931942,119.10079764636339,10.198039027185569,16.76305461424021,33.95585369269929,36.138621999185304,14.866068747318506,73.7563556583431,57.0701322935211,40.0,23.0,50.0,22.5,35.5,14.5,9.5,10.770329614269007,9.848857801796104,9.5,59.0,26.0,51.78802950489621,263.46346995361614,261.51290599127225,253.49161721840034,238.66294224282078
302,25,302,0,10.066666666666634,30.265491900843113,116.92732785794773,11.180339887498949,15.811388300841896,32.984845004941285,36.138621999185304,14.317821063276353,71.06335201775947,55.31726674375732,39.0,22.0,48.0,22.0,34.0,14.0,8.0,8.94427190999916,9.848857801796104,9.0,58.0,27.0,50.99019513592785,263.24513290847375,261.7365087258558,253.71834777958017,239.87079855622275
303,25,303,0,10.099999999999968,27.16615541441225,119.10079764636339,10.44030650891055,15.811388300841896,32.984845004941285,35.17101079013795,14.317821063276353,67.1863081289633,51.419840528729765,36.5,19.0,46.0,19.5,32.5,13.5,6.5,7.615773105863909,8.94427190999916,8.0,58.0,25.0,48.27007354458868,263.16724720223067,260.48608408128064,253.71834777958017,238.89956048515452
304,25,304,0,10.1333333333333,25.179356624028344,113.26517558367179,10.44030650891055,14.866068747318506,32.01562118716424,34.20526275297414,14.317821063276353,64.28841264178172,49.47726750741192,35.5,19.0,46.0,19.5,29.5,10.5,5.5,9.848857801796104,11.180339887498949,9.5,59.0,24.0,49.47726750741192,259.27977167530827,257.0933682536366,248.35659846277488,235.26155657055403
305,25,305,0,10.166666666666634,20.396078054371138,109.48059188732951,10.44030650891055,14.866068747318506,31.32091952673165,32.57299494980466,16.76305461424021,62.36184731067546,47.53945729601885,36.0,20.0,51.0,19.5,24.5,5.5,5.5,10.770329614269007,10.770329614269007,9.5,59.0,23.0,49.47726750741192,258.5652722234755,257.0933682536366,249.32709439609647,235.01702066020664
306,25,306,0,10.199999999999967,19.235384061671343,106.60675400742676,10.44030650891055,13.92838827718412,30.364452901377952,30.675723300355934,19.4164878389476,62.81719509815764,49.03060268852505,38.5,23.0,54.0,19.5,22.5,4.5,5.5,10.770329614269007,11.40175425099138,11.0,58.0,23.0,51.419840528729765,258.54400012377005,255.63254878829494,247.64894508154077,233.10512649875378
307,25,307,0,10.2333333333333,20.223748416156685,105.65036677645753,11.180339887498949,14.560219778561036,29.410882339705484,31.32091952673165,19.4164878389476,65.30696746902278,50.80354318352215,40.0,24.0,55.0,20.5,24.5,5.5,5.5,12.36931687685298,12.649110640673518,12.0,60.0,24.0,50.695167422546305,254.46610776290032,251.6445906432324,243.97130978867168,229.26185901715095
308,25,308,0,10.266666666666634,20.09975124224178,103.84603988597736,12.165525060596439,14.560219778561036,29.120439557122072,30.083217912982647,20.223748416156685,66.91038783328041,52.46903848937962,42.0,26.0,54.0,20.0,26.0,7.0,5.0,12.649110640673518,12.36931687685298,11.5,61.0,24.0,49.72926703662542,251.6445906432324,249.65776575143823,238.9016534057477,226.0486673263083
309,25,309,0,10.299999999999969,19.1049731745428,100.89598604503551,12.165525060596439,15.297058540778355,27.892651361962706,29.832867780352597,20.223748416156685,66.75327707311455,51.478150704935004,41.5,29.0,53.0,21.0,25.0,6.0,6.0,13.341664064126334,12.649110640673518,12.5,57.0,26.0,46.32493928760188,249.46743274423616,246.7752013472991,238.05251521460553,223.45021816950637
310,25,310,0,10.3333333333333,14.317821063276353,100.43903623591775,14.035668847618199,17.26267650163207,26.68332812825267,27.892651361962706,20.223748416156685,65.76473218982953,48.507731342539614,41.0,31.0,53.0,22.0,23.0,2.0,5.0,11.40175425099138,11.40175425099138,11.5,56.0,28.0,51.97114584074513,246.43457549621561,245.9532475898621,237.44683615495913,224.01785643113362
311,25,311,0,10.366666666666632,20.09975124224178,100.43903623591775,12.165525060596439,14.317821063276353,27.65863337187866,29.832867780352597,20.223748416156685,66.75327707311455,52.46903848937962,42.0,30.0,52.0,21.0,25.0,7.0,6.0,12.36931687685298,12.36931687685298,12.0,57.0,28.0,47.07440918375928,249.9039815609187,247.42069436488129,239.7185850116757,225.1443981093023
312,25,312,0,10.399999999999968,19.1049731745428,99.46356116689167,12.165525060596439,14.560219778561036,28.861739379323623,29.832867780352597,21.213203435596427,66.91038783328041,52.46903848937962,42.5,30.0,52.0,20.0,25.0,6.0,6.0,12.36931687685298,12.36931687685298,12.0,57.0,28.0,44.91102314577124,252.23005372080465,250.2179050347916,240.7072911234722,226.0
313,25,313,0,10.4333333333333,17.11724276862369,99.24716620639605,12.165525060596439,15.297058540778355,26.68332812825267,28.861739379323623,21.095023109728988,65.62011886609167,50.35871324805669,41.5,30.0,51.0,19.5,24.5,4.5,4.5,13.341664064126334,12.36931687685298,12.0,56.0,28.0,45.89117562233506,250.54540506662659,247.63077353188558,240.01041644062033,223.51733713517615
314,25,314,0,10.466666666666631,19.235384061671343,102.96115772464877,12.165525060596439,15.297058540778355,28.635642126552707,29.614185789921695,19.1049731745428,65.76473218982953,50.48762224545735,40.5,28.0,48.0,19.0,27.0,8.0,5.0,12.36931687685298,12.36931687685298,12.0,56.0,29.0,46.87216658103186,253.3396929026322,250.59928172283335,241.99380157351138,225.39077177204928
315,25,315,0,10.499999999999966,22.20360331117452,107.68936809174804,11.180339887498949,17.11724276862369,31.400636936215164,32.55764119219941,17.26267650163207,67.7421582177598,50.635955604688654,39.0,25.0,44.0,17.5,32.5,12.5,4.5,12.36931687685298,13.341664064126334,12.5,56.0,27.0,48.83646178829912,259.5862091868518,253.71243564319033,242.1239352067449,225.6213642366343
316,25,316,0,10.5333333333333,24.331050121192877,107.07940978544848,11.180339887498949,17.46424919657298,29.614185789921695,32.55764119219941,21.37755832643195,74.33034373659252,56.88585061331157,44.0,27.0,48.0,16.5,35.5,14.5,3.5,12.649110640673518,13.341664064126334,12.0,57.0,27.0,49.8196748283246,251.0657284457598,249.07227866625382,239.42639787625757,223.75879870968203
317,25,317,0,10.566666666666633,39.20459156782532,107.8702924812944,11.180339887498949,18.24828759089466,30.4138126514911,33.734255586866,19.235384061671343,87.82368700982668,69.58448102845921,49.5,31.0,51.0,22.0,46.0,24.0,9.0,12.649110640673518,12.165525060596439,12.0,58.0,29.0,50.80354318352215,255.8124312851117,250.7448902769506,238.76766950322232,222.19360926903366
318,25,318,0,10.599999999999966,40.19950248448356,113.1591799192624,10.198039027185569,19.4164878389476,32.55764119219941,34.92849839314596,20.223748416156685,89.94442728707543,70.57619995437555,50.0,26.0,48.0,17.0,52.0,28.0,5.0,12.649110640673518,12.165525060596439,12.0,58.0,28.0,53.600373133029585,251.43189932862538,249.39326374222702,239.7185850116757,223.75879870968203
319,25,319,0,10.6333333333333,42.190046219457976,113.95174417269794,11.180339887498949,19.235384061671343,31.575306807693888,35.6931365951495,20.223748416156685,92.77930803794561,73.55270219373317,52.0,28.0,49.0,18.5,53.5,29.5,6.5,12.649110640673518,12.165525060596439,12.0,58.0,29.0,55.57877292636101,250.54540506662659,248.62019226120793,239.7602969634464,222.29934772733816
320,25,320,0,10.666666666666632,45.09988913511872,113.6001760562016,10.198039027185569,18.24828759089466,31.575306807693888,34.713109915419565,19.235384061671343,92.65527507918802,74.43117626371358,51.5,27.0,46.0,17.5,55.5,32.5,6.5,11.40175425099138,11.40175425099138,11.5,56.0,29.0,53.46026561849464,252.19238687954083,249.19470299346253,239.4159560263267,223.89506470666117
321,25,321,0,10.699999999999966,42.1070065428546,112.44998888394787,10.198039027185569,18.110770276274835,30.265491900843113,33.54101966249684,18.110770276274835,88.45903006477066,70.34912934784623,49.0,27.0,45.0,18.0,52.0,30.0,7.0,12.36931687685298,12.165525060596439,12.0,57.0,31.0,50.635955604688654,254.70178640912593,251.79356624028344,243.18717071424635,225.71885167172013
322,25,322,0,10.7333333333333,34.132096331752024,112.78741064498288,10.198039027185569,18.24828759089466,30.59411708155671,34.713109915419565,18.24828759089466,80.75270893288967,62.51399843235114,45.0,26.0,46.0,18.0,44.0,21.0,6.0,11.40175425099138,12.36931687685298,12.0,54.0,30.0,53.600373133029585,252.7231687044146,251.79356624028344,241.40422531513403,227.06827167175956
323,25,323,0,10.766666666666632,33.06055050963308,116.55899793666725,11.045361017187261,18.110770276274835,33.37663853655727,36.6742416417845,15.297058540778355,77.41446893184762,59.30430001273095,42.5,25.0,44.0,19.5,42.5,20.5,6.5,12.36931687685298,12.165525060596439,12.0,55.0,31.0,51.62363799656123,257.25668115716644,254.77244748991205,245.27739398485136,229.87170334775874
324,25,324,0,10.799999999999963,30.14962686336267,114.75626344561765,11.045361017187261,16.1245154965971,32.55764119219941,35.6931365951495,16.1245154965971,73.43704787094863,57.3149195236284,42.0,24.0,44.0,18.0,39.0,18.0,5.0,12.36931687685298,12.165525060596439,12.0,55.0,32.0,51.62363799656123,251.79356624028344,249.35917869611296,242.00206610688264,228.70942263055102
325,25,325,0,10.833333333333298,26.019223662515376,115.97413504743201,11.045361017187261,15.132745950421556,32.38826948140329,34.52535300326414,15.297058540778355,67.36467917239716,52.23983154643591,39.0,24.0,39.0,16.5,35.5,16.5,3.5,11.180339887498949,11.180339887498949,11.5,52.0,33.0,60.29925372672534,252.55692427648862,251.24689052802225,242.90944814889355,230.70327262524907
326,25,326,0,10.866666666666632,21.095023109728988,115.73245007343446,10.04987562112089,16.1245154965971,32.2490309931942,33.37663853655727,18.027756377319946,65.27633568147036,49.16299421312742,38.5,27.0,40.0,15.5,31.5,12.5,4.5,11.180339887498949,12.041594578792296,12.0,50.0,34.0,57.21887800367987,251.7180962902747,248.45321491178174,241.29857024027308,229.17678765529462
327,25,327,0,10.899999999999965,22.02271554554524,114.5294721894762,11.045361017187261,16.1245154965971,32.2490309931942,34.36568055487916,15.132745950421556,64.28063471995279,48.16637831516918,37.0,26.0,37.0,16.5,32.5,13.5,4.5,12.041594578792296,12.041594578792296,12.0,48.0,34.0,61.204574992397426,258.49564793241683,257.2800031094527,248.20153101864622,234.10467744152402
328,25,328,0,10.933333333333298,22.02271554554524,114.21471008587291,11.045361017187261,15.0,31.064449134018133,34.132096331752024,18.24828759089466,66.18912297349165,51.24451190127583,40.0,32.0,39.0,17.5,30.5,13.5,6.5,12.165525060596439,13.038404810405298,13.0,35.0,24.0,58.137767414994535,248.2438317461282,246.0995733437992,240.03333101883996,230.0021739027699
329,25,329,0,10.966666666666631,23.0,114.03946685248927,9.0,15.033296378372908,32.01562118716424,34.132096331752024,19.1049731745428,66.06814663663572,51.03920062069938,39.5,32.0,35.0,14.5,32.5,15.5,5.5,11.180339887498949,12.0,12.0,32.0,24.0,58.137767414994535,248.05039810490126,247.00809703327542,239.0,229.0087334579186
330,25,330,0,10.999999999999964,24.0,115.03912377969506,11.0,16.0,32.01562118716424,35.05709628591621,15.033296378372908,66.007575322837,50.00999900019995,38.0,30.0,33.0,16.5,34.5,16.5,5.5,10.198039027185569,10.0,10.5,45.0,39.0,58.034472514187634,254.0,251.00796800101784,243.03291958086666,230.07824755939012
331,25,331,0,11.033333333333298,28.0178514522438,115.0,10.0,17.0,34.0,35.014282800023196,18.027756377319946,73.0,56.0,42.0,35.0,35.0,17.0,38.0,19.0,8.0,11.045361017187261,11.0,11.0,39.0,34.0,65.03076195155643,253.03161857759991,250.1619475459847,242.3489220112192,228.49288829195538
332,25,332,0,11.066666666666633,31.016124838541646,116.03878661895772,10.0,18.110770276274835,33.0,36.0,18.027756377319946,77.02596964660685,59.0,43.5,36.0,33.0,16.5,42.5,23.5,7.5,7.0,8.0,8.0,34.0,32.0,64.0,249.12848090894786,247.29132617218906,240.46829312822095,228.56071403458645
333,25,333,0,11.099999999999964,36.013886210738214,115.10864433221339,10.04987562112089,19.1049731745428,33.015148038438355,36.0,16.1245154965971,81.2219182240853,62.12889826803627,44.0,34.0,29.0,15.5,49.5,28.5,7.5,5.0990195135927845,5.0990195135927845,5.5,31.0,34.0,61.00819617067857,253.95472037353431,249.25689559167665,240.52026941611388,228.37250272307304
334,25,334,0,11.133333333333296,37.013511046643494,113.35784048754634,9.055385138137417,18.110770276274835,33.015148038438355,36.0,19.026297590440446,83.15046602394962,65.06919393998976,46.5,42.0,33.0,18.5,45.5,27.5,11.5,4.123105625617661,3.1622776601683795,3.0,22.0,32.0,51.03920062069938,249.35917869611296,246.82990094394967,241.13274352522097,229.9652147608416
