,frame_seq,video_id,gap,time_seconds,m1,m3,m4,m5,m6,m7,m8,m9,m10,m11,m12,m13,m14,m15,m16,m17,e1,e2,e3,b1,b2,b3,label_measures,label_inf
0,0,9,0,0.0,14.0,90.0499861188218,11.04536101718726,15.0,22.02271554554524,24.020824298928627,14.0,54.00925846556311,39.01281840626232,32.0,24.0,27.0,11.5,28.5,12.5,0.5,9.055385138137416,9.055385138137416,9.5,34.0,28.0,38.11823710509184,{},{}
1,1,9,0,0.0333666666666666,13.0,90.0499861188218,12.041594578792296,15.0,23.021728866442675,24.08318915758459,14.0,54.00925846556311,39.01281840626232,32.5,24.0,27.0,11.5,28.5,12.5,0.5,9.055385138137416,9.0,9.0,33.0,28.0,38.11823710509184,{},{}
2,2,9,0,0.0667333333333332,14.0356688476182,90.13878188659972,11.0,15.0,22.02271554554524,24.08318915758459,14.0356688476182,54.037024344425184,39.05124837953327,32.0,23.0,28.0,11.5,28.5,11.5,0.5,10.04987562112089,9.0,9.5,35.0,28.0,37.12142238654117,{},{}
3,3,9,0,0.1000999999999998,14.0,90.19977827023745,10.0,16.0312195418814,23.021728866442675,25.079872407968907,16.0312195418814,56.0357029044876,40.01249804748511,33.0,24.0,30.0,11.0,29.0,11.0,1.0,9.055385138137416,9.0,9.0,35.0,28.0,38.05259518088089,{},{}
4,4,9,0,0.1334666666666664,14.0,89.1403387922662,11.0,17.029386365926403,23.021728866442675,25.019992006393608,14.0,56.00892785976178,39.0,32.0,23.0,28.0,11.5,30.5,12.5,0.5,9.055385138137416,9.055385138137416,9.0,35.0,28.0,38.11823710509184,{},{}
5,5,9,0,0.166833333333333,18.0,89.08984229416954,10.04987562112089,14.0356688476182,23.021728866442675,25.079872407968907,15.0,57.0350769263968,43.01162633521314,34.0,24.0,28.0,11.0,31.0,15.0,1.0,10.198039027185567,9.055385138137416,9.0,35.0,28.0,38.11823710509184,{},{}
6,6,9,0,0.2001999999999996,14.0,88.14193099768123,10.04987562112089,17.029386365926403,23.021728866442675,25.079872407968907,15.0,56.0357029044876,39.01281840626232,32.0,23.0,28.0,10.5,30.5,11.5,0.5,10.198039027185567,10.04987562112089,10.0,36.0,28.0,38.11823710509184,{},{}
7,7,9,0,0.2335666666666662,17.0,87.20665112249179,11.04536101718726,18.027756377319943,23.021728866442675,25.079872407968907,14.0356688476182,60.07495318350236,42.04759208325728,33.5,23.0,29.0,12.0,34.0,15.0,1.0,10.04987562112089,9.0,9.5,37.0,29.0,37.12142238654117,{},{}
8,8,9,0,0.2669333333333328,19.026297590440446,90.19977827023745,10.0,16.0312195418814,24.020824298928627,26.0768096208106,15.033296378372908,60.07495318350236,44.04543109109048,34.5,23.0,29.0,11.0,34.0,16.0,1.0,9.055385138137416,10.04987562112089,9.5,36.0,28.0,37.12142238654117,{},{}
9,9,9,0,0.3002999999999994,16.0312195418814,88.20430828479978,10.0,17.0,22.02271554554524,25.079872407968907,16.0312195418814,59.033888572581766,42.04759208325728,34.0,23.0,29.0,10.0,33.0,14.0,1.0,10.04987562112089,9.0,9.5,37.0,29.0,37.12142238654117,{},{}
10,10,9,0,0.333666666666666,12.041594578792296,84.2140130857092,10.0,18.027756377319943,22.09072203437452,24.08318915758459,15.033296378372908,55.08175741568164,37.05401462729781,31.0,24.0,30.0,12.0,28.0,9.0,1.0,9.055385138137416,9.0,9.0,38.0,29.0,37.21558813185679,{},{}
11,11,9,0,0.3670333333333326,12.041594578792296,81.2219182240853,9.055385138137416,16.0312195418814,21.02379604162864,23.08679276123039,16.0312195418814,53.150729063673246,37.12142238654117,31.0,25.0,31.0,12.0,25.0,8.0,3.0,10.198039027185567,10.0,10.0,39.0,31.0,38.2099463490856,{},{}
12,12,9,0,0.4003999999999992,14.0,76.16429609731846,8.06225774829855,16.0312195418814,19.1049731745428,21.02379604162864,15.0,53.03772242470448,37.01351104664349,30.0,26.0,31.0,13.5,24.5,6.5,4.5,10.198039027185567,10.04987562112089,10.0,40.0,31.0,38.11823710509184,{},{}
13,13,9,0,0.4337666666666658,14.0,73.06161783043132,8.06225774829855,16.0312195418814,19.026297590440446,21.0,15.033296378372908,53.08483775994799,37.05401462729781,30.0,29.0,32.0,15.5,22.5,5.5,6.5,10.198039027185567,10.0,10.0,40.0,31.0,39.20459156782532,{},{}
14,14,9,0,0.4671333333333324,14.0356688476182,70.02856560004639,10.0,17.029386365926403,18.027756377319943,20.0,13.038404810405298,54.08326913195984,37.05401462729781,30.0,30.0,32.0,18.0,23.0,5.0,8.0,9.219544457292889,9.0,9.0,39.0,32.0,38.11823710509184,{},{}
15,15,9,0,0.5004999999999991,14.0,68.06614430096654,9.055385138137416,17.11724276862369,17.029386365926403,19.026297590440446,13.0,53.08483775994799,36.013886210738214,29.0,30.0,33.0,18.5,21.5,4.5,8.5,10.198039027185567,10.04987562112089,10.0,39.0,32.0,37.12142238654117,{},{}
16,16,9,0,0.5338666666666656,11.0,66.03029607687671,10.04987562112089,18.027756377319943,16.0,19.0,14.0,53.03772242470448,35.0142828000232,29.5,31.0,33.0,18.0,21.0,2.0,8.0,10.198039027185567,10.0,9.5,37.0,31.0,36.05551275463989,{},{}
17,17,9,0,0.5672333333333321,11.0,66.007575322837,9.055385138137416,18.027756377319943,17.029386365926403,19.026297590440446,15.0,53.03772242470448,35.0142828000232,29.5,32.0,33.0,17.5,20.5,1.5,7.5,10.198039027185567,9.055385138137416,9.5,38.0,30.0,37.05401462729781,{},{}
18,18,9,0,0.6005999999999987,10.04987562112089,66.06814663663572,10.0,18.027756377319943,18.027756377319943,20.024984394500787,15.132745950421556,53.150729063673246,35.12833614050059,30.0,31.0,34.0,17.5,20.5,1.5,7.5,9.219544457292889,9.0,9.0,37.0,30.0,37.12142238654117,{},{}
19,19,9,0,0.6339666666666652,9.0,67.06713054842886,10.04987562112089,19.026297590440446,18.027756377319943,20.024984394500787,17.11724276862369,55.14526271584895,36.12478373637688,31.5,33.0,36.0,17.5,20.5,0.5,7.5,10.04987562112089,10.04987562112089,10.0,37.0,29.0,37.05401462729781,{},{}
20,20,9,0,0.6673333333333318,12.0,70.178344238091,11.04536101718726,19.026297590440446,18.027756377319943,20.024984394500787,18.0,60.03332407921454,41.01219330881976,35.0,34.0,39.0,18.5,23.5,3.5,7.5,10.198039027185567,10.0,9.5,37.0,30.0,37.12142238654117,{},{}
21,21,9,0,0.7006999999999983,15.0,74.16872656315464,11.0,19.0,19.026297590440446,21.213203435596427,17.029386365926403,62.00806399170998,43.01162633521314,35.5,31.0,36.0,16.5,28.5,7.5,5.5,9.219544457292889,10.0,10.0,37.0,30.0,37.12142238654117,{},{}
22,22,9,0,0.7340666666666649,16.0,80.30566605165541,10.0,18.0,20.09975124224178,23.08679276123039,17.029386365926403,61.00819617067857,43.01162633521314,35.0,28.0,35.0,14.5,29.5,8.5,3.5,9.219544457292889,9.0,9.5,37.0,31.0,36.12478373637688,{},{}
23,23,9,0,0.7674333333333314,16.0312195418814,82.29823813423954,10.0,17.029386365926403,21.02379604162864,23.08679276123039,17.029386365926403,60.00833275470999,43.0,35.0,26.0,33.0,12.5,30.5,11.5,2.5,9.219544457292889,9.0,9.5,37.0,30.0,38.11823710509184,{},{}
24,24,9,0,0.800799999999998,15.0,84.2140130857092,10.0,17.029386365926403,23.021728866442675,24.186773244895647,16.0,58.00862004909271,41.0,33.5,24.0,30.0,11.0,31.0,11.0,1.0,9.219544457292889,9.0,9.0,37.0,31.0,36.12478373637688,{},{}
25,25,9,0,0.8341666666666645,15.0,85.28774824088158,10.0,17.029386365926403,22.09072203437452,25.179356624028344,16.0,58.00862004909271,41.0,33.5,23.0,30.0,10.5,31.5,11.5,0.5,9.219544457292889,9.0,9.0,37.0,31.0,37.12142238654117,{},{}
26,26,9,0,0.867533333333331,18.0,88.45903006477066,10.04987562112089,16.1245154965971,22.09072203437452,25.317977802344327,16.0,60.07495318350236,44.01136216933077,35.0,21.0,30.0,9.5,34.5,14.5,0.5,10.198039027185567,9.0,9.0,37.0,30.0,37.12142238654117,{},{}
27,27,9,0,0.9008999999999976,17.029386365926403,88.45903006477066,10.0,16.0312195418814,23.194827009486403,26.30589287593181,16.0312195418814,59.07622195096772,43.04648650006177,34.5,21.0,30.0,9.5,33.5,14.5,0.5,9.219544457292889,9.0,9.5,38.0,30.0,37.12142238654117,{},{}
28,28,9,0,0.934266666666664,20.024984394500787,90.448880590088,9.055385138137416,15.033296378372908,23.194827009486403,25.317977802344327,16.0,60.07495318350236,45.044422518220834,35.0,20.0,29.0,8.5,35.5,17.5,1.5,10.198039027185567,9.0,9.0,38.0,29.0,37.12142238654117,{},{}
29,29,9,0,0.9676333333333308,20.024984394500787,89.45389874119518,10.0,14.142135623730953,23.194827009486403,26.30589287593181,15.033296378372908,59.13543776789008,45.044422518220834,35.0,20.0,29.0,9.5,34.5,17.5,1.5,9.219544457292889,9.0,9.0,38.0,30.0,38.11823710509184,{},{}
30,30,9,0,1.0009999999999972,19.026297590440446,89.35882720806042,10.0,15.132745950421556,23.08679276123039,25.317977802344327,15.033296378372908,59.13543776789008,44.04543109109048,34.5,21.0,29.0,10.0,34.0,17.0,0.0,9.219544457292889,9.0,9.5,38.0,30.0,37.05401462729781,{},{}
31,31,9,0,1.0343666666666638,20.024984394500787,89.35882720806042,10.0,15.033296378372908,23.08679276123039,26.1725046566048,15.033296378372908,60.07495318350236,45.044422518220834,35.0,21.0,29.0,10.0,35.0,17.0,0.0,9.219544457292889,9.0,9.0,38.0,29.0,36.22154055254967,{},{}
32,32,9,0,1.0677333333333303,21.0,91.35097153287424,10.04987562112089,15.132745950421556,24.186773244895647,26.1725046566048,15.0,61.07372593840988,46.01086828130936,35.5,21.0,29.0,10.0,36.0,18.0,1.0,9.219544457292889,9.0,9.0,37.0,29.0,37.12142238654117,{},{}
33,33,9,0,1.1010999999999969,20.024984394500787,90.27181176868004,10.0,15.033296378372908,24.08318915758459,26.1725046566048,15.033296378372908,60.07495318350236,45.044422518220834,35.0,22.0,29.0,10.5,34.5,17.5,0.5,10.198039027185567,9.0,9.0,36.0,28.0,37.12142238654117,{},{}
34,34,9,0,1.1344666666666634,20.0,90.27181176868004,10.04987562112089,15.033296378372908,24.08318915758459,27.16615541441225,16.0312195418814,61.07372593840988,46.04345773288535,36.0,24.0,31.0,11.5,33.5,16.5,1.5,10.198039027185567,9.0,9.0,37.0,29.0,38.11823710509184,{},{}
35,35,9,0,1.16783333333333,20.0,89.1403387922662,10.04987562112089,14.0356688476182,24.08318915758459,26.0768096208106,16.0,60.03332407921454,46.01086828130936,36.0,25.0,30.0,11.5,32.5,16.5,1.5,9.219544457292889,9.0,9.0,36.0,28.0,37.12142238654117,{},{}
36,36,9,0,1.2011999999999965,17.029386365926403,88.14193099768123,11.0,14.0356688476182,23.08679276123039,26.0768096208106,15.0,57.0350769263968,43.01162633521314,34.5,24.0,29.0,11.5,30.5,14.5,0.5,10.04987562112089,10.0,9.5,36.0,28.0,36.12478373637688,{},{}
37,37,9,0,1.234566666666663,16.0,87.05170877128145,10.0,14.0356688476182,22.09072203437452,25.079872407968907,16.0,56.00892785976178,42.0,34.0,25.0,28.0,10.5,29.5,13.5,0.5,10.198039027185567,9.0,9.5,35.0,28.0,36.05551275463989,{},{}
38,38,9,0,1.2679333333333296,14.0,88.09086218218096,11.04536101718726,15.0,22.02271554554524,25.079872407968907,15.033296378372908,55.0,40.0,33.0,24.0,28.0,11.0,29.0,12.0,0.0,10.198039027185567,9.0,9.0,35.0,28.0,37.21558813185679,{},{}
39,39,9,0,1.301299999999996,15.0,87.09190547921202,11.0,15.033296378372908,23.08679276123039,25.019992006393608,15.0,56.00892785976178,41.0,33.5,25.0,29.0,12.0,29.0,13.0,1.0,9.219544457292889,9.0,9.0,33.0,27.0,36.12478373637688,{},{}
40,40,9,0,1.334666666666663,17.0,86.05230967266364,11.0,17.0,23.021728866442675,25.019992006393608,15.0,60.0,43.0,34.5,27.0,30.0,13.5,31.5,12.5,2.5,10.04987562112089,10.0,9.5,33.0,27.0,35.22782990761707,{},{}
41,41,9,0,1.3680333333333292,23.0,84.00595217006948,10.0,14.0,23.021728866442675,25.019992006393608,15.0,62.0,48.0,36.5,30.0,31.0,15.5,31.5,16.5,5.5,10.04987562112089,10.0,9.5,34.0,28.0,36.22154055254967,{},{}
42,42,9,0,1.4013999999999958,16.0312195418814,80.05623023850174,11.0,17.029386365926403,21.02379604162864,24.0,16.0,60.0,43.01162633521314,35.0,30.0,33.0,15.5,28.5,9.5,4.5,10.04987562112089,10.0,10.0,35.0,29.0,36.12478373637688,{},{}
43,43,9,0,1.4347666666666623,7.0,75.02666192761077,12.0,19.0,18.027756377319943,20.024984394500787,18.027756377319943,56.00892785976178,37.01351104664349,33.5,31.0,33.0,14.0,24.0,4.0,1.0,9.219544457292889,10.0,10.0,35.0,29.0,36.05551275463989,{},{}
44,44,9,0,1.4681333333333288,2.23606797749979,73.02739212103907,13.038404810405298,15.033296378372908,18.0,19.0,20.024984394500787,50.039984012787215,35.0142828000232,34.0,31.0,33.0,12.0,18.0,2.0,1.0,11.180339887498947,10.04987562112089,10.0,36.0,29.0,36.05551275463989,{},{}
45,45,9,0,1.5014999999999954,1.0,71.02816342831905,12.041594578792296,14.0356688476182,17.0,18.0,21.02379604162864,47.042533945356304,33.015148038438355,33.0,30.0,32.0,10.0,16.0,0.0,1.0,10.198039027185567,10.0,10.0,37.0,30.0,35.12833614050059,{},{}
46,46,9,0,1.534866666666662,1.4142135623730951,70.06425622241343,12.041594578792296,15.033296378372908,17.0,18.027756377319943,21.02379604162864,47.042533945356304,32.01562118716424,32.5,30.0,33.0,10.5,15.5,0.5,0.5,11.180339887498947,11.0,11.0,38.0,29.0,34.132096331752024,{},{}
47,47,9,0,1.5682333333333285,1.0,72.11102550927978,12.041594578792296,15.0,17.029386365926403,17.029386365926403,22.02271554554524,50.039984012787215,35.05709628591621,34.5,30.0,34.0,10.0,18.0,2.0,2.0,10.198039027185567,10.0,10.5,40.0,29.0,37.21558813185679,{},{}
48,48,9,0,1.601599999999995,8.0,75.23961722390672,13.038404810405298,18.027756377319943,18.027756377319943,20.024984394500787,22.09072203437452,61.1310068623117,43.10452412450461,39.0,32.0,38.0,13.0,26.0,7.0,0.0,12.16552506059644,11.0,11.5,42.0,30.0,37.33630940518894,{},{}
49,49,9,0,1.6349666666666616,18.027756377319943,80.39900496896712,12.0,20.09975124224178,21.095023109728988,23.08679276123039,19.235384061671343,69.26037828369117,49.16299421312742,40.0,31.0,39.0,16.0,34.0,12.0,3.0,13.152946437965904,12.0,12.0,43.0,30.0,39.45883931389772,{},{}
50,50,9,0,1.668333333333328,24.020824298928627,81.49846624323675,12.041594578792296,19.1049731745428,22.09072203437452,24.186773244895647,17.11724276862369,72.24956747275377,53.150729063673246,41.0,29.0,38.0,16.5,38.5,17.5,4.5,13.152946437965904,13.038404810405298,13.0,43.0,30.0,39.45883931389772,{},{}
51,51,9,0,1.7016999999999949,25.079872407968907,83.60023923410746,12.041594578792296,19.1049731745428,22.20360331117452,24.186773244895647,16.1245154965971,72.3394774656273,53.23532661682466,40.5,28.0,38.0,17.0,39.0,17.0,4.0,12.16552506059644,12.041594578792296,12.5,44.0,31.0,37.33630940518894,{},{}
52,52,9,0,1.7350666666666612,27.073972741361768,84.71717653463199,12.041594578792296,19.026297590440446,23.194827009486403,25.179356624028344,15.132745950421556,73.24616030891995,54.230987451824994,40.5,27.0,38.0,17.5,40.5,18.5,4.5,13.341664064126334,12.041594578792296,12.5,44.0,30.0,39.45883931389772,{},{}
53,53,9,0,1.7684333333333278,29.017236257093817,84.71717653463199,11.04536101718726,19.1049731745428,23.194827009486403,26.1725046566048,15.132745950421556,74.24284477308234,55.14526271584895,40.5,27.0,38.0,17.5,41.5,19.5,5.5,13.341664064126334,13.0,13.0,43.0,30.0,38.3275357934736,{},{}
54,54,9,0,1.8017999999999943,27.0,81.61494961096282,11.04536101718726,19.1049731745428,22.20360331117452,25.179356624028344,16.1245154965971,73.17103251970687,54.08326913195984,40.5,29.0,39.0,18.0,39.0,17.0,6.0,12.36931687685298,12.0,12.5,42.0,29.0,41.43669871020132,{},{}
55,55,9,0,1.8351666666666608,20.024984394500787,74.43117626371358,12.041594578792296,19.026297590440446,20.223748416156685,22.09072203437452,18.027756377319943,69.1158447825099,50.08991914547278,40.0,32.0,40.0,18.0,33.0,12.0,5.0,12.16552506059644,12.0,12.0,40.0,28.0,38.3275357934736,{},{}
56,56,9,0,1.868533333333328,11.04536101718726,68.26419266350405,13.038404810405298,20.024984394500787,17.029386365926403,19.026297590440446,20.024984394500787,64.1248781675256,44.10215414239989,38.5,33.0,39.0,16.0,28.0,7.0,2.0,13.341664064126334,12.0,12.0,40.0,29.0,36.22154055254967,{},{}
57,57,9,0,1.901899999999994,6.082762530298219,64.1248781675256,12.0,17.029386365926403,16.0312195418814,19.026297590440446,22.09072203437452,57.14017850864661,40.11234224026316,37.0,34.0,38.0,14.0,21.0,3.0,2.0,12.36931687685298,12.0,12.0,39.0,29.0,36.22154055254967,{},{}
58,58,9,0,1.9352666666666605,3.0,64.1248781675256,14.0356688476182,18.027756377319943,15.033296378372908,18.027756377319943,21.02379604162864,56.08029957123981,38.05259518088089,36.5,33.0,37.0,14.0,21.0,1.0,0.0,12.16552506059644,11.0,11.5,37.0,28.0,34.23448553724738,{},{}
59,59,9,0,1.968633333333327,3.0,64.1248781675256,12.041594578792296,18.027756377319943,16.0312195418814,18.027756377319943,22.0,55.03635162326805,37.01351104664349,35.5,33.0,37.0,13.0,20.0,1.0,1.0,12.16552506059644,11.0,11.0,36.0,29.0,34.132096331752024,{},{}
60,60,9,0,2.0019999999999936,3.1622776601683795,64.03124237432849,13.038404810405298,19.026297590440446,16.0,19.0,20.0,55.00909015790027,36.0,34.5,34.0,36.0,15.0,20.0,1.0,2.0,12.041594578792296,11.04536101718726,11.0,36.0,30.0,36.05551275463989,{},{}
61,61,9,0,2.0353666666666603,6.082762530298219,66.007575322837,11.0,17.0,16.0312195418814,19.0,19.026297590440446,53.0,36.0,33.0,33.0,34.0,14.5,19.5,1.5,3.5,12.041594578792296,12.041594578792296,11.5,33.0,29.0,36.05551275463989,{},{}
62,62,9,0,2.068733333333327,6.0,67.0,10.0,16.0312195418814,16.0,18.0,18.027756377319943,50.0,34.0147027033899,31.0,31.0,31.0,13.0,19.0,2.0,3.0,11.04536101718726,11.04536101718726,10.5,32.0,31.0,35.0142828000232,{},{}
63,63,9,0,2.102099999999994,6.0,67.00746227100382,10.0,16.0,17.029386365926403,19.0,17.029386365926403,49.01020301937138,33.015148038438355,30.0,32.0,31.0,14.5,17.5,1.5,5.5,11.04536101718726,10.04987562112089,10.5,33.0,32.0,35.0142828000232,{},{}
64,64,9,0,2.1354666666666606,7.0,67.11929677819934,10.0,16.0312195418814,17.029386365926403,19.1049731745428,16.278820596099706,49.16299421312742,33.13608305156178,29.5,33.0,29.0,15.0,18.0,2.0,6.0,12.041594578792296,11.180339887498947,11.0,31.0,33.0,34.0,{},{}
65,65,9,0,2.1688333333333274,7.071067811865476,66.27216610312357,11.0,17.029386365926403,16.0312195418814,18.110770276274835,16.1245154965971,51.15662224971465,34.132096331752024,30.5,35.0,29.0,16.0,19.0,2.0,6.0,12.0,10.198039027185567,10.5,28.0,34.0,37.01351104664349,{},{}
66,66,9,0,2.202199999999994,6.082762530298219,64.6297145282261,12.041594578792296,18.110770276274835,15.132745950421556,17.26267650163207,17.11724276862369,53.33854141237835,35.22782990761707,32.0,38.0,29.0,16.5,19.5,2.5,5.5,12.0,12.36931687685298,12.0,27.0,36.0,34.058772731852805,{},{}
67,67,9,0,2.235566666666661,4.47213595499958,61.814237842102365,14.0356688476182,18.110770276274835,14.142135623730953,16.278820596099706,17.46424919657298,53.75872022286245,35.6931365951495,33.0,40.0,30.0,18.0,18.0,0.0,5.0,12.0,12.16552506059644,11.5,27.0,37.0,35.12833614050059,{},{}
68,68,9,0,2.268933333333328,2.23606797749979,61.814237842102365,14.0356688476182,18.24828759089466,14.317821063276352,15.524174696260024,19.4164878389476,53.75872022286245,35.510561809129406,34.0,40.0,30.0,16.0,18.0,0.0,4.0,12.041594578792296,11.40175425099138,11.0,27.0,37.0,34.132096331752024,{},{}
69,69,9,0,2.3022999999999945,2.8284271247461903,60.67124524847005,14.0,18.110770276274835,14.142135623730953,16.278820596099706,19.235384061671343,53.46026561849464,35.35533905932738,34.0,39.0,30.0,15.5,18.5,0.5,2.5,12.041594578792296,12.36931687685298,11.5,26.0,36.0,34.058772731852805,{},{}
70,70,9,0,2.335666666666661,2.8284271247461903,60.67124524847005,14.0356688476182,18.110770276274835,14.317821063276352,15.297058540778355,20.223748416156685,54.589376255824725,36.49657518178932,35.0,40.0,31.0,15.5,18.5,0.5,3.5,12.041594578792296,12.36931687685298,11.5,26.0,36.0,33.06055050963308,{},{}
71,71,9,0,2.369033333333328,5.385164807134504,64.6297145282261,13.038404810405298,19.1049731745428,15.132745950421556,17.11724276862369,20.223748416156685,57.55866572463264,38.47076812334269,35.5,40.0,31.0,15.5,21.5,2.5,3.5,13.0,13.341664064126334,13.0,26.0,35.0,34.23448553724738,{},{}
72,72,9,0,2.4023999999999948,11.04536101718726,69.58448102845921,12.041594578792296,20.09975124224178,17.11724276862369,19.235384061671343,19.235384061671343,62.39390995922599,42.2965719651132,36.5,40.0,31.0,16.5,26.5,6.5,5.5,13.0,12.36931687685298,12.0,26.0,36.0,35.05709628591621,{},{}
73,73,9,0,2.435766666666661,15.132745950421556,73.68174807915459,11.04536101718726,18.110770276274835,18.110770276274835,19.235384061671343,18.24828759089466,62.51399843235114,44.40720662234904,36.5,39.0,29.0,16.0,28.0,10.0,6.0,13.038404810405298,13.341664064126334,13.0,26.0,34.0,35.05709628591621,{},{}
74,74,9,0,2.4691333333333283,13.038404810405298,77.52418977325722,11.04536101718726,18.110770276274835,19.1049731745428,21.213203435596427,18.24828759089466,60.40695324215582,42.2965719651132,35.5,37.0,28.0,14.5,27.5,10.5,4.5,13.0,11.40175425099138,11.0,26.0,35.0,34.058772731852805,{},{}
75,75,9,0,2.502499999999995,13.152946437965904,77.64663547121665,11.04536101718726,17.029386365926403,19.235384061671343,20.223748416156685,18.110770276274835,59.30430001273095,42.2965719651132,35.5,37.0,27.0,14.0,27.0,11.0,5.0,12.0,11.180339887498947,11.5,25.0,35.0,34.058772731852805,{},{}
76,76,9,0,2.535866666666662,13.038404810405298,77.64663547121665,11.04536101718726,17.11724276862369,19.235384061671343,21.213203435596427,17.26267650163207,58.42088667591412,41.30375285612676,34.5,36.0,26.0,14.0,27.0,10.0,5.0,12.0,11.180339887498947,11.5,26.0,35.0,34.132096331752024,{},{}
77,77,9,0,2.5692333333333286,14.0356688476182,78.63841300535,10.04987562112089,17.11724276862369,18.110770276274835,21.213203435596427,18.43908891458577,59.53990258641679,42.42640687119285,35.0,37.0,27.0,14.0,27.0,11.0,5.0,12.0,11.40175425099138,11.5,26.0,35.0,34.132096331752024,{},{}
78,78,9,0,2.602599999999996,15.132745950421556,78.63841300535,11.0,18.110770276274835,19.235384061671343,21.213203435596427,18.24828759089466,62.39390995922599,44.28317965096906,36.5,38.0,28.0,15.0,29.0,12.0,6.0,13.0,12.16552506059644,12.0,25.0,34.0,36.12478373637688,{},{}
79,79,9,0,2.635966666666662,18.110770276274835,79.63039620647382,11.04536101718726,18.027756377319943,19.235384061671343,21.095023109728988,17.46424919657298,64.4980619863884,46.52956049652737,37.0,39.0,29.0,17.0,30.0,12.0,8.0,12.041594578792296,11.40175425099138,10.5,25.0,34.0,34.132096331752024,{},{}
80,80,9,0,2.669333333333329,20.09975124224178,79.63039620647382,11.04536101718726,19.026297590440446,20.09975124224178,23.194827009486403,17.46424919657298,67.47592163134935,48.507731342539614,38.0,40.0,30.0,18.0,32.0,14.0,8.0,7.0,7.280109889280518,7.0,25.0,35.0,35.12833614050059,{},{}
81,81,9,0,2.702699999999996,24.08318915758459,80.50465825031493,11.0,17.029386365926403,20.09975124224178,23.194827009486403,17.72004514666935,69.46221994724903,52.46903848937962,40.0,41.0,32.0,19.5,32.5,16.5,9.5,5.0990195135927845,5.0990195135927845,5.0,28.0,37.0,35.12833614050059,{},{}
82,82,9,0,2.7360666666666624,19.1049731745428,78.40918313565064,11.0,20.024984394500787,20.024984394500787,22.09072203437452,18.43908891458577,68.3593446428504,48.373546489791295,38.5,41.0,33.0,19.0,31.0,12.0,8.0,5.0,5.0990195135927845,5.0,27.0,36.0,35.12833614050059,{},{}
83,83,9,0,2.769433333333329,15.033296378372908,76.32168761236873,12.041594578792296,20.024984394500787,20.09975124224178,22.09072203437452,20.39607805437113,67.36467917239716,47.38143096192854,39.5,42.0,35.0,18.5,28.5,9.5,7.5,5.0,5.0990195135927845,5.0,28.0,35.0,36.05551275463989,{},{}
84,84,9,0,2.802799999999996,10.04987562112089,72.3394774656273,12.0,20.024984394500787,19.1049731745428,21.095023109728988,21.213203435596427,63.198101237299845,43.18564576337837,38.0,42.0,35.0,17.5,24.5,5.5,6.5,6.0,7.071067811865476,7.0,28.0,35.0,35.05709628591621,{},{}
85,85,9,0,2.8361666666666627,5.0990195135927845,70.34912934784623,12.041594578792296,18.027756377319943,17.11724276862369,19.1049731745428,24.186773244895647,59.30430001273095,41.30375285612676,38.5,42.0,35.0,14.5,20.5,3.5,4.5,9.0,8.06225774829855,8.0,27.0,34.0,34.132096331752024,{},{}
86,86,9,0,2.869533333333329,1.0,70.25667228100119,13.0,15.033296378372908,17.11724276862369,18.110770276274835,24.08318915758459,52.15361924162119,37.12142238654117,37.0,39.0,33.0,12.0,16.0,1.0,1.0,10.0,9.219544457292889,9.0,29.0,35.0,34.132096331752024,{},{}
87,87,9,0,2.9028999999999963,1.0,72.3394774656273,12.0,14.0356688476182,17.029386365926403,19.1049731745428,23.08679276123039,49.16299421312742,35.12833614050059,35.0,38.0,31.0,11.5,14.5,0.5,0.5,11.04536101718726,10.04987562112089,10.0,28.0,34.0,35.12833614050059,{},{}
88,88,9,0,2.936266666666663,1.0,72.3394774656273,13.038404810405298,15.033296378372908,16.1245154965971,18.110770276274835,23.021728866442675,51.15662224971465,36.12478373637688,36.0,39.0,32.0,12.5,15.5,0.5,1.5,11.0,11.180339887498947,11.0,28.0,34.0,34.058772731852805,{},{}
89,89,9,0,2.96963333333333,2.23606797749979,76.32168761236873,13.0,17.029386365926403,18.110770276274835,19.1049731745428,21.213203435596427,52.3450093132096,35.35533905932738,34.5,37.0,30.0,12.5,18.5,1.5,0.5,11.0,10.04987562112089,10.0,27.0,33.0,35.05709628591621,{},{}
90,90,9,0,3.002999999999997,6.082762530298219,78.31347265956222,13.038404810405298,18.027756377319943,20.024984394500787,22.09072203437452,19.235384061671343,56.32051136131489,38.3275357934736,35.0,37.0,30.0,14.5,22.5,3.5,2.5,10.0,9.055385138137416,9.5,27.0,34.0,35.05709628591621,{},{}
91,91,9,0,3.036366666666664,15.033296378372908,80.30566605165541,12.0,15.132745950421556,20.024984394500787,23.021728866442675,17.26267650163207,59.30430001273095,44.181444068749045,36.5,37.0,30.0,16.5,25.5,10.5,5.5,10.0,10.04987562112089,10.0,27.0,34.0,35.05709628591621,{},{}
92,92,9,0,3.06973333333333,17.11724276862369,81.30190649671138,12.0,14.0356688476182,21.095023109728988,23.021728866442675,16.278820596099706,59.30430001273095,45.27692569068709,36.5,37.0,30.0,17.5,25.5,11.5,6.5,10.04987562112089,10.04987562112089,10.0,27.0,33.0,34.058772731852805,{},{}
93,93,9,0,3.103099999999997,18.027756377319943,82.29823813423954,11.0,15.132745950421556,21.02379604162864,23.021728866442675,16.1245154965971,60.20797289396148,45.09988913511872,36.0,36.0,29.0,16.5,27.5,12.5,5.5,10.0,11.180339887498947,11.0,27.0,33.0,37.01351104664349,{},{}
94,94,9,0,3.136466666666664,17.029386365926403,81.2219182240853,11.04536101718726,18.110770276274835,21.02379604162864,23.021728866442675,16.1245154965971,62.28964600958975,44.181444068749045,35.5,36.0,30.0,17.0,29.0,10.0,6.0,10.04987562112089,10.04987562112089,10.0,27.0,33.0,35.0142828000232,{},{}
95,95,9,0,3.1698333333333304,18.027756377319943,80.30566605165541,11.04536101718726,17.11724276862369,21.02379604162864,23.021728866442675,17.11724276862369,63.28506932918696,46.17358552246078,37.0,38.0,31.0,17.5,28.5,11.5,6.5,11.0,10.198039027185567,10.5,27.0,33.0,35.05709628591621,{},{}
96,96,9,0,3.203199999999997,15.033296378372908,79.22752047110903,11.0,17.029386365926403,20.024984394500787,22.02271554554524,16.278820596099706,59.21148537234985,42.190046219457976,34.5,36.0,30.0,17.0,26.0,9.0,6.0,10.0,10.198039027185567,10.5,27.0,32.0,35.05709628591621,{},{}
97,97,9,0,3.236566666666664,13.152946437965904,80.15609770940699,12.0,18.027756377319943,20.024984394500787,22.02271554554524,16.1245154965971,59.21148537234985,41.19465984809196,34.5,35.0,30.0,16.5,26.5,8.5,5.5,11.0,10.04987562112089,10.0,27.0,32.0,35.0142828000232,{},{}
98,98,9,0,3.2699333333333307,11.04536101718726,80.15609770940699,11.04536101718726,18.027756377319943,20.024984394500787,22.02271554554524,16.1245154965971,56.22277118748239,38.2099463490856,32.5,34.0,29.0,15.5,24.5,6.5,4.5,11.0,10.198039027185567,10.0,28.0,32.0,34.0147027033899,{},{}
99,99,9,0,3.303299999999997,10.04987562112089,79.1580697086532,11.0,18.027756377319943,20.024984394500787,22.02271554554524,17.11724276862369,56.1426753904728,38.11823710509184,33.0,35.0,30.0,15.5,23.5,5.5,4.5,10.04987562112089,10.04987562112089,10.0,28.0,33.0,34.0147027033899,{},{}
100,100,9,0,3.336666666666664,14.0356688476182,81.2219182240853,11.0,16.0312195418814,20.024984394500787,21.02379604162864,16.1245154965971,57.14017850864661,41.10960958218893,34.0,35.0,29.0,16.0,25.0,9.0,5.0,11.0,11.04536101718726,10.5,29.0,32.0,35.0,{},{}
101,101,9,0,3.370033333333331,13.038404810405298,82.15229759416349,11.0,14.0356688476182,20.0,23.021728866442675,16.1245154965971,54.147945482723536,40.11234224026316,33.5,33.0,28.0,14.5,23.5,8.5,3.5,10.0,11.04536101718726,11.0,29.0,32.0,36.0,{},{}
102,102,9,0,3.4033999999999978,13.038404810405298,80.09993757800315,11.0,14.0,21.0,22.0,16.1245154965971,54.08326913195984,40.11234224026316,33.5,33.0,29.0,15.0,23.0,8.0,4.0,11.0,10.04987562112089,10.5,29.0,31.0,37.0,{},{}
103,103,9,0,3.4367666666666645,9.055385138137416,77.10382610480494,12.0,16.0,20.024984394500787,21.02379604162864,15.132745950421556,52.08646657242167,36.12478373637688,31.5,32.0,28.0,15.0,22.0,5.0,4.0,11.04536101718726,10.04987562112089,10.5,30.0,32.0,36.0,{},{}
104,104,9,0,3.470133333333332,7.071067811865476,75.1065909225016,12.0,17.0,18.0,20.024984394500787,16.0312195418814,52.03844732503075,35.05709628591621,31.5,33.0,29.0,15.0,21.0,4.0,3.0,11.04536101718726,10.0,10.5,30.0,32.0,36.0,{},{}
105,105,9,0,3.503499999999998,6.0,72.11102550927978,12.0,18.027756377319943,18.027756377319943,19.026297590440446,17.029386365926403,53.03772242470448,35.0142828000232,32.0,33.0,29.0,14.0,22.0,4.0,3.0,11.04536101718726,10.04987562112089,10.5,31.0,32.0,36.0,{},{}
106,106,9,0,3.536866666666665,4.0,68.06614430096654,13.0,20.0,16.0312195418814,18.0,18.110770276274835,55.03635162326805,35.05709628591621,33.0,35.0,32.0,15.5,21.5,1.5,3.5,11.04536101718726,11.04536101718726,11.0,33.0,33.0,36.0,{},{}
107,107,9,0,3.570233333333332,4.123105625617661,68.06614430096654,13.0,18.0,17.029386365926403,18.027756377319943,20.024984394500787,55.03635162326805,37.05401462729781,35.0,35.0,32.0,13.5,21.5,3.5,1.5,12.041594578792296,12.041594578792296,12.0,34.0,34.0,36.0,{},{}
108,108,9,0,3.6035999999999984,2.0,67.06713054842886,13.038404810405298,16.0312195418814,16.0,17.029386365926403,21.0,52.03844732503075,36.013886210738214,35.0,35.0,32.0,12.5,18.5,1.5,0.5,13.038404810405298,12.16552506059644,12.0,35.0,36.0,36.013886210738214,{},{}
109,109,9,0,3.636966666666665,0.0,67.02984409947557,13.0,16.0312195418814,16.0312195418814,17.029386365926403,21.02379604162864,50.039984012787215,34.0147027033899,34.0,34.0,32.0,12.0,17.0,1.0,0.0,13.038404810405298,13.038404810405298,13.0,36.0,37.0,37.01351104664349,{},{}
110,110,9,0,3.670333333333332,0.0,67.02984409947557,13.0,16.0312195418814,16.0,17.0,20.0,49.01020301937138,33.0,33.0,33.0,31.0,12.0,17.0,0.0,1.0,13.038404810405298,13.038404810405298,13.0,36.0,38.0,38.0,{},{}
111,111,9,0,3.703699999999999,0.0,67.02984409947557,13.0,16.0312195418814,15.0,17.0,19.0,48.010415536631214,32.0,32.0,33.0,31.0,13.0,16.0,1.0,0.0,12.041594578792296,12.041594578792296,12.0,35.0,37.0,37.01351104664349,{},{}
112,112,9,0,3.7370666666666654,1.0,70.06425622241343,14.0,15.0,16.0,17.029386365926403,19.026297590440446,47.01063709417264,32.01562118716424,32.5,33.0,30.0,12.5,15.5,0.5,0.5,13.038404810405298,12.16552506059644,12.0,37.0,39.0,38.01315561749642,{},{}
113,113,9,0,3.770433333333332,1.0,69.06518659932803,14.0,18.0,15.0,18.0,19.026297590440446,50.00999900019995,32.01562118716424,32.5,33.0,30.0,12.5,18.5,0.5,0.5,14.142135623730953,13.038404810405298,13.0,37.0,39.0,39.01281840626232,{},{}
114,114,9,0,3.803799999999999,3.0,67.02984409947557,13.038404810405298,20.0,16.0312195418814,18.027756377319943,21.02379604162864,57.0350769263968,37.05401462729781,35.5,35.0,33.0,13.0,23.0,3.0,1.0,13.038404810405298,13.038404810405298,13.0,36.0,38.0,38.01315561749642,{},{}
115,115,9,0,3.8371666666666657,8.0,64.07027391856539,13.038404810405298,19.0,16.0312195418814,18.027756377319943,20.024984394500787,60.03332407921454,41.04875150354759,37.0,37.0,34.0,15.5,24.5,5.5,3.5,13.152946437965904,13.038404810405298,12.5,35.0,37.0,38.0,{},{}
116,116,9,0,3.870533333333333,7.0,63.12685640834652,12.041594578792296,19.0,16.0312195418814,18.027756377319943,20.024984394500787,58.034472514187634,39.05124837953327,35.5,37.0,33.0,15.0,23.0,4.0,4.0,12.16552506059644,12.041594578792296,12.0,36.0,37.0,37.0,{},{}
117,117,9,0,3.9038999999999993,4.0,62.07253821135398,13.0,20.024984394500787,17.029386365926403,19.026297590440446,19.026297590440446,56.0357029044876,36.013886210738214,34.0,36.0,33.0,15.5,21.5,1.5,3.5,11.04536101718726,11.0,11.0,35.0,37.0,36.013886210738214,{},{}
118,118,9,0,3.937266666666666,3.1622776601683795,62.03224967708329,13.0,20.0,16.0312195418814,18.0,19.026297590440446,55.03635162326805,35.05709628591621,33.5,35.0,33.0,15.0,21.0,1.0,3.0,10.04987562112089,10.04987562112089,10.0,34.0,36.0,37.05401462729781,{},{}
119,119,9,0,3.970633333333333,5.0990195135927845,64.07027391856539,13.0,19.0,17.029386365926403,19.0,17.0,54.00925846556311,35.0142828000232,32.5,35.0,32.0,16.5,20.5,0.5,4.5,9.055385138137416,9.0,9.0,35.0,37.0,36.0,{},{}
120,120,9,0,4.004,8.0,64.03124237432849,12.0,18.0,16.0,18.0,17.11724276862369,55.03635162326805,37.05401462729781,33.0,35.0,33.0,17.0,21.0,2.0,5.0,9.055385138137416,9.055385138137416,9.5,34.0,36.0,35.05709628591621,{},{}
121,121,9,0,4.037366666666666,9.055385138137416,67.06713054842886,12.0,19.0,17.029386365926403,20.024984394500787,17.0,57.0087712549569,38.01315561749642,33.5,36.0,33.0,17.5,22.5,3.5,6.5,10.04987562112089,10.0,9.5,32.0,35.0,36.05551275463989,{},{}
122,122,9,0,4.070733333333333,11.04536101718726,67.02984409947557,12.0,17.0,17.0,20.0,18.0,58.00862004909271,41.01219330881976,35.5,37.0,35.0,18.0,22.0,4.0,7.0,9.0,9.055385138137416,9.5,32.0,36.0,36.05551275463989,{},{}
123,123,9,0,4.1041,13.038404810405298,71.02816342831905,13.0,18.027756377319943,18.027756377319943,21.0,17.029386365926403,61.07372593840988,43.04648650006177,36.5,37.0,35.0,19.0,25.0,7.0,7.0,9.055385138137416,9.055385138137416,9.5,32.0,36.0,35.05709628591621,{},{}
124,124,9,0,4.137466666666667,16.1245154965971,73.02739212103907,11.0,17.0,19.0,20.0,17.029386365926403,61.07372593840988,44.10215414239989,36.0,36.0,34.0,18.0,26.0,9.0,7.0,10.0,10.04987562112089,9.5,32.0,36.0,35.05709628591621,{},{}
125,125,9,0,4.170833333333333,11.180339887498947,72.06247289678588,12.0,20.024984394500787,18.027756377319943,21.0,18.027756377319943,61.1310068623117,41.10960958218893,35.5,38.0,35.0,18.5,24.5,4.5,6.5,9.055385138137416,10.04987562112089,9.5,31.0,36.0,36.12478373637688,{},{}
126,126,9,0,4.2042,3.1622776601683795,70.06425622241343,13.038404810405298,20.024984394500787,17.029386365926403,19.0,20.024984394500787,56.1426753904728,36.12478373637688,34.5,36.0,33.0,14.5,21.5,2.5,2.5,9.0,8.06225774829855,8.0,32.0,37.0,35.12833614050059,{},{}
127,127,9,0,4.237566666666667,1.4142135623730951,69.06518659932803,14.0,16.0312195418814,16.0,17.0,22.0,53.03772242470448,37.01351104664349,36.5,37.0,34.0,13.5,17.5,0.5,0.5,10.04987562112089,9.0,9.0,31.0,36.0,36.12478373637688,{},{}
128,128,9,0,4.270933333333334,0.0,67.06713054842886,13.0,16.0312195418814,16.0,17.029386365926403,22.0,51.0098029794274,35.0,35.0,37.0,34.0,13.5,15.5,1.5,0.5,10.0,9.0,9.0,33.0,37.0,34.058772731852805,{},{}
129,129,9,0,4.3043000000000005,0.0,64.03124237432849,13.0,16.0,16.0,18.0,22.02271554554524,51.0098029794274,35.0142828000232,35.0,37.0,35.0,14.0,15.0,2.0,2.0,9.055385138137416,9.0,9.0,33.0,37.0,35.05709628591621,{},{}
130,130,9,0,4.337666666666667,0.0,63.0317380372777,14.0,17.029386365926403,15.0,17.029386365926403,22.02271554554524,53.03772242470448,36.013886210738214,36.0,39.0,37.0,16.0,15.0,3.0,3.0,9.0,9.055385138137416,9.0,32.0,36.0,37.05401462729781,{},{}
131,131,9,0,4.371033333333334,1.4142135623730951,60.03332407921454,14.0,19.0,14.0356688476182,16.0,23.0,57.0087712549569,38.01315561749642,37.5,40.0,38.0,16.0,18.0,1.0,3.0,9.055385138137416,8.0,8.5,33.0,37.0,35.05709628591621,{},{}
132,132,9,0,4.404400000000001,5.0990195135927845,57.0350769263968,14.0,19.0,14.0,16.0,22.02271554554524,60.03332407921454,41.04875150354759,38.5,41.0,39.0,18.0,20.0,0.0,4.0,9.0,8.0,8.5,33.0,36.0,34.058772731852805,{},{}
133,133,9,0,4.437766666666668,7.0,55.03635162326805,13.038404810405298,18.027756377319943,14.0356688476182,16.0,23.0,61.032778078668514,43.01162633521314,39.5,42.0,40.0,18.0,20.0,1.0,6.0,9.0,10.0,9.5,34.0,38.0,36.05551275463989,{},{}
134,134,9,0,4.471133333333334,5.0990195135927845,57.0350769263968,13.0,19.026297590440446,15.0,17.029386365926403,23.021728866442675,60.07495318350236,41.04875150354759,38.5,40.0,38.0,16.0,21.0,2.0,4.0,9.055385138137416,10.0,9.5,33.0,37.0,36.05551275463989,{},{}
135,135,9,0,4.504500000000001,5.0,58.034472514187634,12.041594578792296,19.026297590440446,15.0,17.0,23.0,59.033888572581766,40.01249804748511,37.5,40.0,38.0,16.0,20.0,1.0,4.0,9.055385138137416,9.055385138137416,9.0,34.0,37.0,35.05709628591621,{},{}
136,136,9,0,4.537866666666668,3.1622776601683795,60.00833275470999,13.0,19.0,16.0,17.0,22.02271554554524,57.0,38.0,36.5,38.0,37.0,15.5,19.5,0.5,2.5,10.04987562112089,9.055385138137416,9.5,33.0,37.0,36.05551275463989,{},{}
137,137,9,0,4.571233333333335,4.123105625617661,67.0,13.0,18.0,18.0,20.024984394500787,20.024984394500787,55.0,37.0,35.0,35.0,35.0,15.0,20.0,1.0,2.0,10.04987562112089,9.055385138137416,9.5,32.0,36.0,36.05551275463989,{},{}
138,138,9,0,4.604600000000001,9.055385138137416,74.0,11.0,16.0,19.026297590440446,22.02271554554524,19.0,55.00909015790027,39.01281840626232,34.5,33.0,33.0,14.0,22.0,5.0,3.0,9.0,9.055385138137416,9.0,31.0,35.0,36.05551275463989,{},{}
139,139,9,0,4.637966666666668,9.055385138137416,79.0,10.0,17.0,21.02379604162864,22.02271554554524,18.027756377319943,54.037024344425184,37.05401462729781,32.5,30.0,30.0,12.0,24.0,6.0,2.0,9.055385138137416,9.055385138137416,9.0,32.0,35.0,37.05401462729781,{},{}
140,140,9,0,4.671333333333335,11.04536101718726,83.0,10.04987562112089,17.0,21.0,23.021728866442675,17.0,55.03635162326805,38.05259518088089,32.5,29.0,29.0,12.0,26.0,8.0,2.0,9.055385138137416,9.055385138137416,9.0,30.0,35.0,36.05551275463989,{},{}
141,141,9,0,4.704700000000002,12.041594578792296,86.00581375697809,11.0,16.0312195418814,22.0,25.019992006393608,16.0312195418814,55.08175741568164,39.05124837953327,33.0,27.0,26.0,10.5,28.5,11.5,0.5,9.0,9.055385138137416,9.0,29.0,34.0,38.05259518088089,{},{}
142,142,9,0,4.738066666666668,13.038404810405298,87.05170877128145,11.0,15.033296378372908,22.02271554554524,24.0,16.0312195418814,55.08175741568164,40.049968789001575,33.5,27.0,24.0,9.5,29.5,13.5,0.5,9.0,9.219544457292889,9.0,30.0,35.0,37.05401462729781,{},{}
143,143,9,0,4.771433333333335,13.038404810405298,87.09190547921202,11.04536101718726,15.033296378372908,23.0,25.019992006393608,17.029386365926403,56.1426753904728,41.10960958218893,34.5,29.0,25.0,10.0,29.0,14.0,0.0,9.0,10.198039027185567,9.5,29.0,35.0,38.05259518088089,{},{}
144,144,9,0,4.804800000000002,14.142135623730953,89.08984229416954,10.0,15.033296378372908,22.02271554554524,24.0,17.029386365926403,56.1426753904728,41.10960958218893,34.0,28.0,24.0,9.0,30.0,14.0,0.0,10.0,9.219544457292889,9.0,30.0,35.0,38.01315561749642,{},{}
145,145,9,0,4.838166666666669,15.033296378372908,89.08984229416954,10.04987562112089,15.033296378372908,22.02271554554524,25.019992006393608,17.0,57.07889277132134,42.04759208325728,34.5,28.0,24.0,9.0,31.0,16.0,0.0,10.0,9.219544457292889,9.0,29.0,35.0,38.05259518088089,{},{}
146,146,9,0,4.871533333333336,12.16552506059644,89.08984229416954,11.0,17.029386365926403,23.021728866442675,25.019992006393608,16.0312195418814,56.1426753904728,39.11521443121589,33.0,27.0,23.0,9.0,31.0,13.0,0.0,10.04987562112089,10.198039027185567,9.5,29.0,34.0,38.05259518088089,{},{}
147,147,9,0,4.904900000000002,14.142135623730953,87.09190547921202,10.0,16.0312195418814,23.021728866442675,24.020824298928627,16.0312195418814,56.1426753904728,40.11234224026316,33.0,27.0,23.0,9.0,31.0,15.0,0.0,11.04536101718726,11.180339887498947,11.0,30.0,35.0,37.01351104664349,{},{}
148,148,9,0,4.938266666666669,12.041594578792296,88.20430828479978,11.0,17.11724276862369,24.020824298928627,25.019992006393608,16.1245154965971,56.22277118748239,39.11521443121589,33.0,28.0,22.0,9.0,31.0,13.0,1.0,11.04536101718726,10.198039027185567,10.0,30.0,34.0,38.01315561749642,{},{}
149,149,9,0,4.971633333333336,14.142135623730953,87.20665112249179,10.0,15.033296378372908,22.02271554554524,25.079872407968907,17.11724276862369,56.22277118748239,41.19465984809196,34.0,28.0,22.0,8.0,31.0,16.0,1.0,11.04536101718726,10.198039027185567,10.5,30.0,35.0,38.01315561749642,{},{}
150,150,9,0,5.005000000000003,14.0356688476182,89.27485648266257,11.04536101718726,15.033296378372908,23.021728866442675,25.019992006393608,16.0312195418814,56.1426753904728,41.10960958218893,34.0,27.0,20.0,7.5,32.5,17.5,1.5,11.04536101718726,11.180339887498947,11.0,30.0,35.0,37.01351104664349,{},{}
151,151,9,0,5.038366666666669,14.0356688476182,88.20430828479978,10.0,15.033296378372908,22.09072203437452,25.079872407968907,16.1245154965971,55.14526271584895,40.11234224026316,33.0,25.0,19.0,6.0,33.0,18.0,2.0,11.04536101718726,11.180339887498947,10.5,29.0,35.0,37.05401462729781,{},{}
152,152,9,0,5.071733333333336,15.132745950421556,89.35882720806042,10.0,15.033296378372908,22.02271554554524,25.079872407968907,16.1245154965971,56.22277118748239,41.19465984809196,33.5,27.0,19.0,7.0,33.0,18.0,2.0,11.0,10.198039027185567,10.5,29.0,35.0,37.05401462729781,{},{}
153,153,9,0,5.105100000000003,14.142135623730953,89.27485648266257,10.0,16.0312195418814,23.08679276123039,25.079872407968907,16.1245154965971,56.22277118748239,40.19950248448356,33.0,26.0,19.0,6.5,33.5,16.5,1.5,11.04536101718726,11.180339887498947,11.0,29.0,35.0,37.05401462729781,{},{}
154,154,9,0,5.13846666666667,16.0312195418814,88.2779700718135,9.055385138137416,15.033296378372908,23.021728866442675,25.079872407968907,17.11724276862369,57.21887800367987,42.190046219457976,34.0,26.0,19.0,5.5,34.5,19.5,2.5,12.041594578792296,11.180339887498947,11.0,29.0,35.0,39.05124837953327,{},{}
155,155,9,0,5.171833333333336,16.0312195418814,88.36288813749809,9.055385138137416,15.033296378372908,23.08679276123039,25.079872407968907,17.029386365926403,57.14017850864661,42.1070065428546,34.0,27.0,19.0,6.0,34.0,19.0,1.0,12.0,10.198039027185567,10.5,30.0,36.0,37.05401462729781,{},{}
156,156,9,0,5.205200000000003,14.0356688476182,88.2779700718135,10.04987562112089,16.0312195418814,22.09072203437452,25.079872407968907,17.11724276862369,57.21887800367987,41.19465984809196,34.0,27.0,20.0,6.5,33.5,17.5,1.5,9.0,9.219544457292889,9.0,29.0,36.0,38.05259518088089,{},{}
157,157,9,0,5.23856666666667,10.198039027185567,87.28115489611719,10.0,17.029386365926403,22.09072203437452,25.079872407968907,17.11724276862369,54.230987451824994,37.21558813185679,32.0,26.0,19.0,5.5,31.5,14.5,2.5,5.0990195135927845,6.082762530298219,6.0,28.0,35.0,38.05259518088089,{},{}
158,158,9,0,5.271933333333337,10.04987562112089,86.37129152675674,10.04987562112089,17.11724276862369,22.09072203437452,24.08318915758459,17.11724276862369,54.3323108288245,37.21558813185679,32.0,28.0,20.0,7.0,30.0,13.0,1.0,5.0,5.385164807134504,5.0,29.0,37.0,39.11521443121589,{},{}
159,159,9,0,5.305300000000004,9.055385138137416,85.47514258543241,10.04987562112089,16.0312195418814,22.09072203437452,24.08318915758459,17.11724276862369,52.23983154643591,36.22154055254967,31.5,28.0,19.0,6.5,28.5,13.5,1.5,8.0,7.280109889280518,6.5,29.0,37.0,38.2099463490856,{},{}
160,160,9,0,5.33866666666667,9.055385138137416,84.38009243891595,10.04987562112089,16.1245154965971,22.09072203437452,24.186773244895647,18.110770276274835,53.33854141237835,37.21558813185679,32.5,29.0,21.0,7.0,28.0,12.0,1.0,10.04987562112089,10.198039027185567,9.5,30.0,37.0,38.11823710509184,{},{}
161,161,9,0,5.372033333333337,9.055385138137416,83.48652585896721,10.04987562112089,16.1245154965971,22.09072203437452,24.186773244895647,17.11724276862369,52.3450093132096,36.22154055254967,31.5,29.0,20.0,7.5,27.5,12.5,0.5,11.04536101718726,10.198039027185567,10.0,29.0,37.0,38.11823710509184,{},{}
162,162,9,0,5.405400000000004,9.055385138137416,83.48652585896721,10.04987562112089,16.1245154965971,22.09072203437452,24.186773244895647,18.110770276274835,53.33854141237835,37.21558813185679,32.5,30.0,21.0,7.5,27.5,12.5,0.5,12.041594578792296,11.180339887498947,11.0,29.0,36.0,39.05124837953327,{},{}
163,163,9,0,5.438766666666671,10.04987562112089,83.60023923410746,9.055385138137416,15.033296378372908,22.20360331117452,24.08318915758459,18.110770276274835,52.23983154643591,37.21558813185679,32.0,31.0,21.0,8.0,26.0,12.0,1.0,11.0,12.16552506059644,11.5,29.0,36.0,38.05259518088089,{},{}
164,164,9,0,5.472133333333337,10.198039027185567,81.49846624323675,10.0,15.033296378372908,22.09072203437452,24.08318915758459,17.11724276862369,52.23983154643591,37.21558813185679,32.0,30.0,21.0,8.5,26.5,11.5,0.5,12.041594578792296,11.180339887498947,11.5,29.0,36.0,38.05259518088089,{},{}
165,165,9,0,5.505500000000004,12.041594578792296,83.38465086573187,10.04987562112089,15.033296378372908,21.095023109728988,24.08318915758459,17.11724276862369,54.230987451824994,39.20459156782532,33.0,30.0,22.0,9.0,28.0,12.0,1.0,12.041594578792296,12.16552506059644,11.5,30.0,36.0,38.05259518088089,{},{}
166,166,9,0,5.538866666666671,16.1245154965971,82.38931969618392,10.0,15.033296378372908,22.09072203437452,25.079872407968907,17.26267650163207,58.30951894845301,43.28972164382672,35.0,32.0,24.0,11.0,30.0,15.0,3.0,13.038404810405298,12.16552506059644,11.5,30.0,35.0,39.01281840626232,{},{}
167,167,9,0,5.572233333333338,20.09975124224178,84.38009243891595,10.0,14.0356688476182,22.02271554554524,25.079872407968907,17.11724276862369,61.20457499239743,47.16990566028302,37.0,33.0,25.0,12.0,32.0,17.0,3.0,12.041594578792296,11.180339887498947,11.5,30.0,35.0,38.01315561749642,{},{}
168,168,9,0,5.605600000000004,20.024984394500787,82.21921916437786,10.0,15.033296378372908,23.021728866442675,25.079872407968907,17.26267650163207,62.20128616033595,47.16990566028302,37.0,33.0,27.0,13.0,32.0,17.0,4.0,8.06225774829855,8.246211251235321,8.0,31.0,35.0,38.01315561749642,{},{}
169,169,9,0,5.638966666666671,21.0,78.05767098754612,10.04987562112089,16.0312195418814,21.0,24.020824298928627,18.110770276274835,65.12296062065974,49.09175083453431,38.5,35.0,32.0,15.5,31.5,14.5,6.5,7.071067811865476,6.082762530298219,6.5,33.0,35.0,35.0,{},{}
170,170,9,0,5.672333333333338,14.0,72.02777242147643,12.0,21.02379604162864,19.026297590440446,21.02379604162864,19.1049731745428,66.06814663663572,45.044422518220834,38.0,38.0,36.0,18.0,29.0,8.0,7.0,6.082762530298219,6.082762530298219,6.0,32.0,34.0,35.0,{},{}
171,171,9,0,5.705700000000005,10.0,69.02897942168927,13.038404810405298,22.02271554554524,17.029386365926403,20.024984394500787,19.0,64.03124237432849,42.01190307520001,37.0,38.0,36.0,18.0,27.0,5.0,5.0,8.06225774829855,8.06225774829855,7.5,34.0,34.0,36.0,{},{}
172,172,9,0,5.739066666666671,7.0,65.03076195155643,13.0,20.024984394500787,16.0,19.026297590440446,21.0,61.00819617067857,41.0,37.5,39.0,37.0,17.0,23.0,3.0,4.0,9.055385138137416,9.055385138137416,9.5,34.0,34.0,35.0,{},{}
173,173,9,0,5.772433333333338,6.082762530298219,62.00806399170998,12.0,18.0,15.0,17.0,23.0,59.00847396772772,41.01219330881976,38.0,39.0,38.0,15.5,20.5,1.5,3.5,10.04987562112089,10.0,10.5,34.0,33.0,35.0142828000232,{},{}
174,174,9,0,5.805800000000005,4.0,60.0,13.0,17.0,15.0,17.0,23.0,57.0,40.0,38.0,40.0,40.0,17.0,17.0,1.0,4.0,10.198039027185567,10.0,10.5,34.0,33.0,37.01351104664349,{},{}
175,175,9,0,5.839166666666672,3.1622776601683795,64.0,13.038404810405298,17.0,16.0,17.0,22.02271554554524,55.00909015790027,38.01315561749642,36.5,37.0,37.0,15.0,18.0,0.0,2.0,10.198039027185567,10.04987562112089,10.0,34.0,33.0,36.013886210738214,{},{}
176,176,9,0,5.8725333333333385,3.1622776601683795,68.00735254367721,13.0,17.029386365926403,17.0,18.0,22.02271554554524,55.00909015790027,38.0,36.5,36.0,37.0,14.5,18.5,0.5,2.5,10.198039027185567,10.0,10.0,35.0,33.0,35.0142828000232,{},{}
177,177,9,0,5.905900000000005,7.0,75.0066663703967,13.0,18.0,19.0,21.02379604162864,19.026297590440446,57.0087712549569,39.01281840626232,35.5,36.0,37.0,17.5,20.5,1.5,4.5,10.04987562112089,9.0,10.0,34.0,31.0,36.013886210738214,{},{}
178,178,9,0,5.939266666666672,13.0,77.02596964660685,12.0,17.0,20.024984394500787,22.09072203437452,17.0,59.0,42.0,35.5,35.0,37.0,19.0,23.0,4.0,6.0,10.198039027185567,10.0,10.0,33.0,31.0,36.05551275463989,{},{}
179,179,9,0,5.972633333333339,15.0,80.02499609497022,12.0,16.0,21.0,23.0,16.0,59.0,43.0,35.5,33.0,35.0,18.0,25.0,8.0,6.0,11.180339887498947,10.0,10.0,34.0,31.0,37.05401462729781,{},{}
180,180,9,0,6.006000000000006,14.0356688476182,79.02531240052139,12.0,15.0,20.0,22.02271554554524,16.0,57.0087712549569,42.01190307520001,35.0,33.0,35.0,18.0,23.0,6.0,6.0,10.04987562112089,10.0,10.5,34.0,30.0,37.01351104664349,{},{}
181,181,9,0,6.039366666666672,10.0,79.00632886041473,11.0,16.0,20.024984394500787,22.02271554554524,17.0,54.0,38.0,33.0,33.0,34.0,16.5,20.5,3.5,5.5,10.198039027185567,10.0,10.5,34.0,31.0,36.013886210738214,{},{}
182,182,9,0,6.072733333333339,9.055385138137416,78.02563681252464,12.0,16.0,21.02379604162864,22.02271554554524,17.0,54.00925846556311,38.01315561749642,33.5,33.0,35.0,17.0,20.0,3.0,5.0,11.180339887498947,11.0,11.0,34.0,31.0,36.013886210738214,{},{}
183,183,9,0,6.106100000000006,10.0,76.02631123499285,12.0,17.029386365926403,19.0,21.0,16.0,55.00909015790027,38.0,33.0,33.0,35.0,18.0,21.0,3.0,6.0,10.04987562112089,10.0,10.0,35.0,31.0,37.01351104664349,{},{}
184,184,9,0,6.139466666666673,11.0,74.02702209328699,12.0,18.027756377319943,19.0,21.02379604162864,16.0,57.0087712549569,39.0,33.5,34.0,36.0,19.0,22.0,3.0,7.0,11.04536101718726,11.0,11.0,34.0,30.0,35.0142828000232,{},{}
185,185,9,0,6.172833333333339,10.0,72.00694410957877,11.0,17.029386365926403,18.027756377319943,20.024984394500787,17.0,55.00909015790027,38.0,33.0,35.0,36.0,18.5,19.5,1.5,6.5,11.180339887498947,11.0,11.0,35.0,31.0,36.013886210738214,{},{}
186,186,9,0,6.206200000000006,4.123105625617661,71.0,13.038404810405298,16.0312195418814,17.0,19.026297590440446,18.0,51.0098029794274,35.0,33.0,35.0,35.0,17.0,16.0,1.0,4.0,11.04536101718726,11.0,11.0,35.0,32.0,36.013886210738214,{},{}
187,187,9,0,6.239566666666673,0.0,68.00735254367721,13.0,16.0312195418814,16.0312195418814,18.027756377319943,18.0,47.01063709417264,31.0,31.0,33.0,34.0,15.5,13.5,3.5,2.5,11.180339887498947,11.04536101718726,11.0,35.0,32.0,35.0142828000232,{},{}
188,188,9,0,6.27293333333334,1.0,69.0,13.0,16.0312195418814,17.0,18.027756377319943,17.029386365926403,47.0,31.016124838541646,30.5,33.0,33.0,16.0,14.0,3.0,3.0,12.16552506059644,11.0,11.0,34.0,31.0,35.0142828000232,{},{}
189,189,9,0,6.306300000000007,5.0,71.0,12.0,17.0,17.0,19.0,16.0312195418814,50.00999900019995,33.015148038438355,30.5,33.0,33.0,17.0,17.0,1.0,5.0,11.04536101718726,10.04987562112089,11.0,35.0,32.0,35.0,{},{}
190,190,9,0,6.339666666666673,12.0,70.0,10.0,16.0312195418814,18.0,19.026297590440446,15.033296378372908,53.0,37.01351104664349,31.0,34.0,34.0,19.0,19.0,2.0,9.0,11.180339887498947,12.0,11.5,35.0,32.0,35.0142828000232,{},{}
191,191,9,0,6.37303333333334,16.0,70.00714249274856,10.0,15.033296378372908,18.0,20.0,14.0356688476182,55.0,40.01249804748511,32.0,34.0,35.0,20.5,20.5,4.5,10.5,12.041594578792296,11.0,11.0,36.0,33.0,37.05401462729781,{},{}
192,192,9,0,6.406400000000007,15.033296378372908,69.00724599634447,10.0,17.0,18.0,20.024984394500787,14.0356688476182,56.0,39.0,31.5,34.0,35.0,20.5,21.5,4.5,10.5,11.04536101718726,11.04536101718726,11.0,35.0,32.0,37.01351104664349,{},{}
193,193,9,0,6.4397666666666735,15.0,70.0,11.0,16.0,18.0,20.0,13.038404810405298,55.00909015790027,39.01281840626232,31.5,34.0,34.0,21.0,21.0,4.0,10.0,11.04536101718726,11.0,11.5,35.0,31.0,36.013886210738214,{},{}
194,194,9,0,6.47313333333334,11.0,68.0,11.0,18.0,17.0,19.0,14.0356688476182,54.00925846556311,36.013886210738214,30.5,33.0,33.0,19.0,21.0,3.0,8.0,11.180339887498947,10.0,10.0,36.0,33.0,36.013886210738214,{},{}
195,195,9,0,6.506500000000007,8.0,67.00746227100382,12.0,18.0,17.0,18.0,15.033296378372908,53.009433122794285,35.0142828000232,31.0,34.0,33.0,18.5,19.5,1.5,6.5,10.04987562112089,10.04987562112089,10.0,35.0,32.0,37.01351104664349,{},{}
196,196,9,0,6.539866666666674,4.123105625617661,64.0,13.038404810405298,18.0,15.0,18.027756377319943,16.1245154965971,51.03920062069938,33.06055050963308,31.0,33.0,33.0,17.0,18.0,0.0,4.0,11.180339887498947,11.0,11.0,36.0,33.0,38.01315561749642,{},{}
197,197,9,0,6.573233333333341,2.0,62.0,14.0,18.027756377319943,16.0,17.029386365926403,17.029386365926403,51.03920062069938,33.015148038438355,32.0,33.0,33.0,16.0,18.0,0.0,2.0,11.180339887498947,11.04536101718726,11.0,36.0,33.0,35.0142828000232,{},{}
198,198,9,0,6.606600000000007,2.23606797749979,62.03224967708329,14.0,18.0,16.0312195418814,17.029386365926403,18.0,52.009614495783374,34.0147027033899,33.0,34.0,32.0,15.0,19.0,0.0,2.0,12.041594578792296,11.04536101718726,11.0,36.0,33.0,37.01351104664349,{},{}
199,199,9,0,6.639966666666674,2.23606797749979,65.00769185258002,13.038404810405298,19.026297590440446,15.0,17.029386365926403,18.027756377319943,52.03844732503075,33.015148038438355,32.0,32.0,31.0,13.5,20.5,0.5,0.5,12.041594578792296,11.04536101718726,11.0,37.0,33.0,35.05709628591621,{},{}
200,200,9,0,6.673333333333341,6.082762530298219,70.0,12.0,19.0,16.0,18.027756377319943,17.0,54.00925846556311,35.0142828000232,32.0,32.0,32.0,15.0,22.0,3.0,3.0,11.04536101718726,11.04536101718726,11.0,36.0,33.0,38.01315561749642,{},{}
201,201,9,0,6.706700000000008,9.055385138137416,77.0,12.0,19.0,19.026297590440446,20.0,16.0312195418814,56.0,37.0,32.5,30.0,30.0,14.0,26.0,6.0,2.0,12.041594578792296,12.16552506059644,12.0,36.0,34.0,38.01315561749642,{},{}
202,202,9,0,6.740066666666674,12.0,82.02438661763951,11.0,19.0,19.026297590440446,22.0,17.0,59.0,40.0,34.0,28.0,30.0,12.0,30.0,10.0,1.0,12.041594578792296,12.041594578792296,11.5,36.0,34.0,38.01315561749642,{},{}
203,203,9,0,6.773433333333341,16.0,84.00595217006948,10.0,18.0,19.026297590440446,22.02271554554524,17.029386365926403,61.00819617067857,43.01162633521314,35.0,28.0,29.0,11.5,32.5,12.5,1.5,12.041594578792296,12.041594578792296,12.0,36.0,34.0,39.01281840626232,{},{}
204,204,9,0,6.806800000000008,18.0,84.0,11.0,16.0,21.0,23.0,16.0312195418814,61.00819617067857,45.0111097397076,36.0,28.0,28.0,12.0,33.0,15.0,2.0,11.04536101718726,11.04536101718726,11.0,36.0,35.0,38.01315561749642,{},{}
205,205,9,0,6.840166666666675,16.0,85.00588214941364,10.04987562112089,16.0,21.0,23.021728866442675,16.0312195418814,58.0,42.0,34.0,27.0,26.0,10.5,31.5,14.5,1.5,11.04536101718726,11.180339887498947,11.0,36.0,35.0,37.0,{},{}
206,206,9,0,6.8735333333333415,14.0356688476182,87.0,10.0,16.0,22.0,23.021728866442675,17.029386365926403,57.0,41.0,34.0,26.0,26.0,9.0,31.0,14.0,1.0,11.04536101718726,10.04987562112089,10.5,34.0,35.0,37.0,{},{}
207,207,9,0,6.906900000000008,13.038404810405298,84.0535543567314,10.0,16.0312195418814,21.02379604162864,23.021728866442675,18.0,57.0350769263968,41.01219330881976,34.5,29.0,26.0,9.5,29.5,13.5,0.5,11.0,11.40175425099138,11.0,34.0,37.0,39.01281840626232,{},{}
208,208,9,0,6.940266666666675,13.038404810405298,82.15229759416349,10.04987562112089,16.0312195418814,20.024984394500787,22.02271554554524,17.0,56.08029957123981,40.049968789001575,33.5,30.0,25.0,10.5,28.5,11.5,1.5,12.041594578792296,12.36931687685298,11.5,32.0,38.0,40.11234224026316,{},{}
209,209,9,0,6.973633333333342,11.04536101718726,80.30566605165541,10.04987562112089,17.11724276862369,20.09975124224178,21.213203435596427,17.0,55.14526271584895,38.05259518088089,32.5,31.0,24.0,10.5,27.5,10.5,2.5,12.0,12.36931687685298,11.5,31.0,40.0,38.11823710509184,{},{}
210,210,9,0,7.0070000000000086,12.041594578792296,78.40918313565064,9.055385138137416,17.029386365926403,18.110770276274835,21.213203435596427,18.110770276274835,56.22277118748239,39.20459156782532,33.0,34.0,26.0,12.0,26.0,9.0,4.0,12.0,11.40175425099138,11.0,29.0,39.0,38.11823710509184,{},{}
211,211,9,0,7.040366666666675,14.0356688476182,75.53806987208503,8.06225774829855,16.0312195418814,19.1049731745428,21.213203435596427,17.11724276862369,55.22680508593631,39.20459156782532,32.0,34.0,25.0,12.5,25.5,9.5,5.5,12.0,11.180339887498947,11.0,29.0,39.0,38.2099463490856,{},{}
212,212,9,0,7.073733333333342,13.038404810405298,75.4254598925323,8.06225774829855,17.029386365926403,18.110770276274835,21.095023109728988,17.11724276862369,55.22680508593631,38.2099463490856,31.5,34.0,26.0,13.0,25.0,9.0,6.0,12.0,11.180339887498947,11.0,29.0,40.0,37.21558813185679,{},{}
213,213,9,0,7.107100000000009,15.132745950421556,74.33034373659252,8.0,16.0312195418814,19.1049731745428,21.213203435596427,17.029386365926403,56.1426753904728,40.11234224026316,32.5,34.0,27.0,13.5,25.5,9.5,6.5,12.0,11.180339887498947,11.0,30.0,40.0,37.21558813185679,{},{}
214,214,9,0,7.140466666666676,16.0312195418814,74.33034373659252,7.071067811865476,16.0312195418814,19.026297590440446,21.095023109728988,17.11724276862369,56.22277118748239,40.19950248448356,32.0,34.0,27.0,13.5,25.5,9.5,7.5,11.0,12.36931687685298,11.5,30.0,39.0,38.11823710509184,{},{}
215,215,9,0,7.173833333333342,17.029386365926403,72.24956747275377,8.0,15.033296378372908,19.026297590440446,20.024984394500787,15.132745950421556,55.14526271584895,40.11234224026316,31.5,33.0,27.0,15.0,25.0,10.0,8.0,12.0,11.40175425099138,11.5,31.0,38.0,36.05551275463989,{},{}
216,216,9,0,7.207200000000009,16.0312195418814,71.25307010929424,7.0,16.0312195418814,19.0,20.024984394500787,15.132745950421556,54.147945482723536,38.11823710509184,30.0,33.0,27.0,15.0,24.0,7.0,8.0,12.041594578792296,11.180339887498947,11.5,32.0,37.0,38.05259518088089,{},{}
217,217,9,0,7.240566666666676,15.0,69.1158447825099,8.06225774829855,17.029386365926403,18.027756377319943,20.024984394500787,14.0356688476182,54.08326913195984,37.05401462729781,29.5,33.0,29.0,17.0,23.0,6.0,9.0,11.04536101718726,11.180339887498947,11.0,32.0,36.0,37.01351104664349,{},{}
218,218,9,0,7.273933333333343,15.0,68.06614430096654,8.0,17.029386365926403,18.0,20.024984394500787,14.142135623730953,54.08326913195984,37.05401462729781,29.5,32.0,29.0,16.5,23.5,5.5,9.5,12.041594578792296,12.041594578792296,12.0,33.0,36.0,36.013886210738214,{},{}
219,219,9,0,7.3073000000000095,16.0,68.06614430096654,8.0,16.0312195418814,18.0,20.0,15.033296378372908,55.03635162326805,39.01281840626232,31.0,33.0,30.0,16.5,23.5,6.5,8.5,10.04987562112089,10.198039027185567,10.0,34.0,36.0,37.01351104664349,{},{}
220,220,9,0,7.340666666666676,20.0,73.10950690573696,6.0,15.0,19.0,21.0,16.0312195418814,57.0087712549569,42.01190307520001,32.0,34.0,30.0,16.0,25.0,10.0,10.0,7.071067811865476,6.082762530298219,6.0,34.0,36.0,38.01315561749642,{},{}
221,221,9,0,7.374033333333343,21.0,73.10950690573696,7.0,14.0356688476182,19.0,21.02379604162864,17.11724276862369,59.07622195096772,45.044422518220834,34.5,34.0,30.0,15.0,27.0,12.0,8.0,5.0990195135927845,5.0,5.0,34.0,36.0,37.01351104664349,{},{}
222,222,9,0,7.40740000000001,10.04987562112089,71.06335201775947,9.0,19.0,18.0,20.024984394500787,20.024984394500787,58.034472514187634,39.05124837953327,34.0,35.0,32.0,13.5,24.5,5.5,4.5,6.082762530298219,6.0,5.5,33.0,35.0,39.0,{},{}
223,223,9,0,7.440766666666676,2.0,71.06335201775947,12.041594578792296,17.0,17.029386365926403,18.0,22.02271554554524,53.03772242470448,36.05551275463989,35.0,33.0,30.0,9.5,21.5,4.5,1.5,8.06225774829855,8.06225774829855,8.0,34.0,36.0,36.0,{},{}
224,224,9,0,7.474133333333343,1.0,72.06247289678588,13.0,15.033296378372908,18.0,20.024984394500787,22.09072203437452,51.0881590977792,36.05551275463989,35.5,34.0,31.0,10.5,18.5,2.5,1.5,10.04987562112089,10.0,10.0,33.0,35.0,36.013886210738214,{},{}
225,225,9,0,7.50750000000001,1.4142135623730951,73.06161783043132,12.0,17.0,17.0,19.026297590440446,23.021728866442675,53.03772242470448,36.05551275463989,35.5,34.0,31.0,9.5,20.5,3.5,1.5,11.04536101718726,11.04536101718726,11.0,32.0,36.0,36.013886210738214,{},{}
226,226,9,0,7.540866666666677,7.0,73.06161783043132,13.038404810405298,17.029386365926403,18.027756377319943,20.0,21.02379604162864,58.077534382926416,41.04875150354759,37.5,36.0,33.0,13.5,23.5,5.5,1.5,12.041594578792296,11.04536101718726,11.0,34.0,37.0,35.0142828000232,{},{}
227,227,9,0,7.574233333333344,14.0,71.06335201775947,10.0,17.029386365926403,17.0,19.0,19.235384061671343,60.13318551349163,43.10452412450461,36.0,36.0,33.0,15.5,25.5,7.5,5.5,12.041594578792296,12.16552506059644,12.0,33.0,36.0,36.013886210738214,{},{}
228,228,9,0,7.60760000000001,14.0,71.02816342831905,10.04987562112089,17.029386365926403,18.027756377319943,19.0,18.027756377319943,59.07622195096772,42.04759208325728,35.0,35.0,33.0,16.0,25.0,8.0,7.0,11.04536101718726,12.16552506059644,12.0,32.0,36.0,36.05551275463989,{},{}
229,229,9,0,7.640966666666677,11.0,71.06335201775947,8.0,16.0312195418814,18.027756377319943,20.0,19.026297590440446,54.037024344425184,38.01315561749642,32.5,35.0,32.0,14.5,20.5,4.5,7.5,12.041594578792296,11.180339887498947,11.0,33.0,37.0,36.05551275463989,{},{}
230,230,9,0,7.674333333333344,9.0,72.06247289678588,9.0,14.0356688476182,17.029386365926403,19.0,17.029386365926403,49.04079934095692,35.0142828000232,30.5,34.0,31.0,15.5,16.5,1.5,7.5,12.041594578792296,11.04536101718726,11.5,33.0,37.0,36.05551275463989,{},{}
231,231,9,0,7.707700000000011,9.0,70.06425622241343,9.0,14.0356688476182,18.027756377319943,19.0,16.0312195418814,48.04164859785725,34.0147027033899,29.5,33.0,30.0,15.5,16.5,2.5,7.5,11.04536101718726,11.04536101718726,11.5,32.0,38.0,36.05551275463989,{},{}
232,232,9,0,7.741066666666677,11.04536101718726,70.06425622241343,9.0,16.0,18.0,20.024984394500787,14.0,50.00999900019995,34.0147027033899,28.5,33.0,30.0,17.5,18.5,2.5,8.5,11.04536101718726,12.041594578792296,12.0,32.0,38.0,38.05259518088089,{},{}
233,233,9,0,7.774433333333344,12.041594578792296,70.11419257183242,10.04987562112089,16.0,17.0,20.0,14.0,52.03844732503075,36.05551275463989,30.0,35.0,31.0,19.0,19.0,3.0,9.0,12.041594578792296,12.16552506059644,12.5,33.0,40.0,37.12142238654117,{},{}
234,234,9,0,7.807800000000011,13.038404810405298,70.11419257183242,10.04987562112089,16.0312195418814,18.0,20.024984394500787,14.0,53.08483775994799,37.05401462729781,30.5,35.0,31.0,19.0,20.0,3.0,9.0,12.041594578792296,11.04536101718726,11.5,33.0,39.0,37.12142238654117,{},{}
235,235,9,0,7.841166666666678,12.041594578792296,70.178344238091,11.0,17.029386365926403,18.027756377319943,21.02379604162864,14.0356688476182,54.08326913195984,37.05401462729781,31.0,36.0,31.0,19.5,20.5,3.5,9.5,12.041594578792296,11.04536101718726,11.5,33.0,40.0,36.12478373637688,{},{}
236,236,9,0,7.874533333333344,13.152946437965904,71.34423592694787,10.0,17.029386365926403,18.110770276274835,21.095023109728988,14.142135623730953,54.230987451824994,37.21558813185679,30.5,37.0,30.0,19.5,20.5,3.5,10.5,12.0,11.180339887498947,11.0,31.0,38.0,36.22154055254967,{},{}
237,237,9,0,7.907900000000011,13.038404810405298,71.34423592694787,10.04987562112089,17.029386365926403,19.1049731745428,20.09975124224178,14.0356688476182,54.147945482723536,37.12142238654117,30.5,36.0,29.0,18.5,21.5,4.5,9.5,11.04536101718726,11.04536101718726,11.0,31.0,39.0,35.12833614050059,{},{}
238,238,9,0,7.941266666666678,13.152946437965904,72.3394774656273,11.04536101718726,16.0312195418814,19.1049731745428,21.095023109728988,13.152946437965904,53.33854141237835,37.33630940518894,30.5,36.0,29.0,19.5,20.5,4.5,9.5,12.041594578792296,11.04536101718726,11.0,31.0,39.0,37.12142238654117,{},{}
239,239,9,0,7.974633333333345,15.132745950421556,74.54528824815154,10.04987562112089,15.132745950421556,20.09975124224178,21.095023109728988,14.0356688476182,54.3323108288245,39.20459156782532,31.5,36.0,27.0,17.5,22.5,7.5,8.5,11.0,11.180339887498947,11.0,30.0,38.0,37.12142238654117,{},{}
240,240,9,0,8.008000000000012,16.1245154965971,78.40918313565064,11.0,15.033296378372908,21.095023109728988,23.194827009486403,14.317821063276352,56.32051136131489,41.30375285612676,33.0,36.0,28.0,18.0,24.0,9.0,8.0,11.0,11.04536101718726,11.0,31.0,38.0,38.05259518088089,{},{}
241,241,9,0,8.041366666666677,17.029386365926403,81.30190649671138,10.04987562112089,15.132745950421556,21.095023109728988,24.08318915758459,15.132745950421556,57.3149195236284,42.190046219457976,33.5,35.0,28.0,16.5,25.5,11.5,7.5,11.0,11.180339887498947,11.5,31.0,37.0,37.05401462729781,{},{}
242,242,9,0,8.074733333333343,19.026297590440446,84.29116205154607,11.04536101718726,15.033296378372908,22.02271554554524,24.08318915758459,14.142135623730953,59.21148537234985,44.181444068749045,34.5,33.0,26.0,15.5,29.5,14.5,5.5,11.04536101718726,11.180339887498947,10.5,32.0,37.0,39.05124837953327,{},{}
243,243,9,0,8.10810000000001,22.02271554554524,85.21150157109074,10.04987562112089,15.132745950421556,22.02271554554524,25.079872407968907,15.132745950421556,62.28964600958975,47.16990566028302,36.0,33.0,27.0,15.0,32.0,17.0,6.0,11.0,10.198039027185567,10.5,31.0,36.0,39.05124837953327,{},{}
244,244,9,0,8.141466666666675,20.024984394500787,85.14693182963201,11.04536101718726,17.029386365926403,23.021728866442675,25.079872407968907,15.132745950421556,63.198101237299845,46.17358552246078,36.0,33.0,28.0,15.5,32.5,14.5,5.5,12.041594578792296,11.180339887498947,11.0,32.0,36.0,39.01281840626232,{},{}
245,245,9,0,8.174833333333341,17.029386365926403,86.14522621712709,11.04536101718726,17.029386365926403,22.02271554554524,24.08318915758459,16.1245154965971,61.20457499239743,44.181444068749045,35.5,32.0,27.0,13.5,31.5,13.5,3.5,11.04536101718726,11.180339887498947,11.0,32.0,36.0,40.01249804748511,{},{}
246,246,9,0,8.208200000000007,15.033296378372908,87.05170877128145,10.04987562112089,17.029386365926403,22.02271554554524,24.020824298928627,16.0312195418814,58.137767414994535,41.10960958218893,33.5,29.0,26.0,11.5,30.5,13.5,2.5,11.04536101718726,10.04987562112089,10.0,32.0,37.0,39.05124837953327,{},{}
247,247,9,0,8.241566666666673,13.152946437965904,85.05292469985967,11.0,16.0312195418814,22.0,24.0,16.0312195418814,56.1426753904728,40.11234224026316,33.5,29.0,26.0,11.5,28.5,11.5,1.5,11.0,10.04987562112089,10.0,33.0,36.0,38.05259518088089,{},{}
248,248,9,0,8.274933333333339,12.041594578792296,86.05230967266364,11.0,16.0312195418814,22.02271554554524,24.0,16.1245154965971,55.14526271584895,39.11521443121589,33.0,28.0,25.0,10.5,28.5,11.5,1.5,10.04987562112089,11.04536101718726,11.0,32.0,36.0,39.05124837953327,{},{}
249,249,9,0,8.308300000000004,13.038404810405298,88.02272433866155,10.0,17.029386365926403,22.02271554554524,24.0,15.297058540778355,55.22680508593631,38.2099463490856,31.5,25.0,23.0,9.0,31.0,13.0,0.0,11.04536101718726,10.04987562112089,10.0,34.0,36.0,39.05124837953327,{},{}
250,250,9,0,8.34166666666667,13.038404810405298,89.00561780022652,11.0,16.0312195418814,22.0,25.0,15.132745950421556,55.14526271584895,39.11521443121589,32.5,25.0,24.0,9.5,30.5,13.5,0.5,10.0,10.04987562112089,10.0,33.0,35.0,40.01249804748511,{},{}
251,251,9,0,8.375033333333336,15.033296378372908,88.0056816347672,10.0,16.0312195418814,23.0,25.0,16.1245154965971,57.14017850864661,41.10960958218893,33.5,26.0,25.0,9.5,31.5,13.5,0.5,12.041594578792296,11.04536101718726,11.0,35.0,37.0,38.01315561749642,{},{}
252,252,9,0,8.408400000000002,21.02379604162864,88.0,10.0,14.0,23.0,25.079872407968907,16.0312195418814,61.032778078668514,47.042533945356304,36.5,26.0,26.0,10.0,35.0,19.0,1.0,11.180339887498947,9.055385138137416,9.5,35.0,36.0,39.0,{},{}
253,253,9,0,8.441766666666668,22.0,89.00561780022652,11.0,15.0,23.0,26.019223662515376,15.132745950421556,63.0317380372777,48.04164859785725,37.0,25.0,26.0,10.5,37.5,20.5,0.5,11.04536101718726,10.0,10.5,36.0,36.0,39.0,{},{}
254,254,9,0,8.475133333333334,21.0,89.00561780022652,10.0,14.0,23.0,26.019223662515376,17.029386365926403,62.00806399170998,48.010415536631214,37.5,26.0,27.0,9.5,35.5,19.5,0.5,11.04536101718726,10.0,10.0,36.0,36.0,39.0,{},{}
255,255,9,0,8.5085,19.0,89.0,11.0,16.0,23.0,25.019992006393608,15.132745950421556,61.032778078668514,45.044422518220834,35.5,26.0,26.0,11.0,35.0,17.0,1.0,11.04536101718726,10.04987562112089,10.5,35.0,36.0,38.0,{},{}
256,256,9,0,8.541866666666666,19.026297590440446,88.0,10.0,16.0,22.0,24.0,16.1245154965971,61.07372593840988,45.09988913511872,35.5,27.0,27.0,11.0,34.0,17.0,2.0,11.04536101718726,10.04987562112089,10.0,35.0,36.0,38.0,{},{}
257,257,9,0,8.575233333333331,21.02379604162864,88.0056816347672,10.0,15.0,23.0,25.0,16.1245154965971,62.07253821135398,47.09564735726647,36.5,29.0,28.0,12.5,33.5,17.5,3.5,12.16552506059644,11.0,11.0,36.0,36.0,37.0,{},{}
258,258,9,0,8.608599999999997,19.026297590440446,87.02298546935747,11.0,16.0312195418814,22.0,25.0,15.132745950421556,61.1310068623117,45.09988913511872,35.5,30.0,28.0,14.0,32.0,15.0,4.0,12.041594578792296,12.041594578792296,11.5,36.0,36.0,40.01249804748511,{},{}
259,259,9,0,8.641966666666663,17.029386365926403,86.00581375697809,11.0,17.0,22.02271554554524,25.019992006393608,15.132745950421556,60.07495318350236,43.10452412450461,34.5,30.0,29.0,14.5,30.5,11.5,4.5,11.04536101718726,11.04536101718726,11.0,35.0,36.0,39.01281840626232,{},{}
260,260,9,0,8.67533333333333,16.0,87.02298546935747,11.0,18.027756377319943,22.0,24.0,15.132745950421556,60.07495318350236,42.04759208325728,34.0,31.0,29.0,15.0,30.0,12.0,5.0,12.041594578792296,11.04536101718726,11.0,36.0,36.0,39.0,{},{}
261,261,9,0,8.708699999999995,23.0,85.0235261559999,10.0,17.0,22.02271554554524,25.019992006393608,16.1245154965971,66.03029607687671,49.04079934095692,37.5,33.0,31.0,16.0,34.0,16.0,7.0,12.041594578792296,12.041594578792296,11.5,38.0,37.0,41.0,{},{}
262,262,9,0,8.74206666666666,22.0,82.0,9.0,18.0,21.0,23.0,17.029386365926403,66.007575322837,48.010415536631214,37.0,33.0,33.0,16.0,33.0,14.0,7.0,12.041594578792296,11.04536101718726,11.5,37.0,36.0,39.0,{},{}
263,263,9,0,8.775433333333327,16.0,78.0,9.0,18.0,19.0,22.0,18.0,61.0,43.0,35.0,34.0,34.0,16.0,27.0,8.0,7.0,13.038404810405298,13.152946437965904,12.5,37.0,36.0,38.01315561749642,{},{}
264,264,9,0,8.808799999999993,12.0,74.00675644831355,9.0,17.0,18.0,20.024984394500787,18.0,56.0,39.0,33.0,34.0,33.0,15.5,22.5,5.5,6.5,13.038404810405298,12.041594578792296,12.0,38.0,36.0,38.01315561749642,{},{}
265,265,9,0,8.842166666666659,11.0,74.00675644831355,9.055385138137416,17.0,19.0,21.02379604162864,19.0,56.00892785976178,39.01281840626232,33.5,35.0,34.0,15.5,21.5,4.5,6.5,13.038404810405298,13.038404810405298,12.5,37.0,35.0,38.01315561749642,{},{}
266,266,9,0,8.875533333333324,10.0,73.06161783043132,10.04987562112089,17.0,17.029386365926403,20.024984394500787,18.027756377319943,55.0,38.0,33.0,36.0,33.0,16.5,20.5,3.5,7.5,13.038404810405298,12.041594578792296,12.0,38.0,37.0,39.0,{},{}
267,267,9,0,8.90889999999999,9.0,72.06247289678588,10.04987562112089,18.0,17.029386365926403,20.09975124224178,19.026297590440446,56.0,38.0,33.5,36.0,33.0,15.5,21.5,3.5,6.5,11.04536101718726,11.04536101718726,11.0,37.0,36.0,36.0,{},{}
268,268,9,0,8.942266666666656,9.0,71.11258679024411,10.0,18.0,17.029386365926403,19.026297590440446,19.026297590440446,56.00892785976178,38.01315561749642,33.5,36.0,32.0,15.0,22.0,4.0,6.0,7.071067811865476,6.0,6.5,37.0,36.0,36.013886210738214,{},{}
269,269,9,0,8.975633333333322,7.071067811865476,70.06425622241343,11.0,17.0,17.029386365926403,20.024984394500787,19.026297590440446,54.0,37.0,33.5,36.0,33.0,15.5,19.5,2.5,5.5,5.0,6.0,6.0,36.0,35.0,36.0,{},{}
270,270,9,0,9.008999999999988,5.0,70.06425622241343,11.0,18.0,17.029386365926403,18.027756377319943,20.024984394500787,54.00925846556311,36.013886210738214,33.5,36.0,33.0,14.5,19.5,1.5,3.5,5.0990195135927845,6.0,6.0,35.0,35.0,36.013886210738214,{},{}
271,271,9,0,9.042366666666654,4.0,71.02816342831905,12.0,18.0,16.0312195418814,19.026297590440446,20.024984394500787,54.00925846556311,36.013886210738214,34.0,35.0,33.0,14.0,20.0,2.0,3.0,7.071067811865476,7.071067811865476,7.0,35.0,35.0,36.0,{},{}
272,272,9,0,9.07573333333332,2.0,71.02816342831905,12.0,18.027756377319943,18.0,20.0,21.0,53.009433122794285,35.0,34.0,35.0,33.0,13.0,19.0,1.0,2.0,9.055385138137416,8.06225774829855,8.5,35.0,35.0,37.0,{},{}
273,273,9,0,9.109099999999986,1.0,70.00714249274856,12.0,18.0,17.0,19.0,22.0,53.0,35.0,34.5,34.0,33.0,11.5,19.5,0.5,0.5,11.04536101718726,11.04536101718726,11.0,36.0,36.0,37.0,{},{}
274,274,9,0,9.142466666666651,1.0,69.00724599634447,12.041594578792296,18.0,17.0,19.0,22.0,52.0,34.0,34.0,33.0,32.0,10.5,19.5,0.5,0.5,12.16552506059644,12.041594578792296,12.0,35.0,35.0,37.01351104664349,{},{}
275,275,9,0,9.175833333333316,1.0,69.00724599634447,12.0,18.0,17.0,18.0,21.02379604162864,52.009614495783374,34.0147027033899,33.5,33.0,32.0,11.5,19.5,1.5,0.5,12.041594578792296,13.038404810405298,12.5,35.0,35.0,37.01351104664349,{},{}
276,276,9,0,9.209199999999983,2.0,68.0,12.0,17.029386365926403,17.0,19.0,20.024984394500787,51.03920062069938,34.0147027033899,33.0,31.0,31.0,11.0,20.0,2.0,1.0,12.16552506059644,12.0,12.0,36.0,35.0,36.0,{},{}
277,277,9,0,9.242566666666647,2.0,72.0,13.0,18.027756377319943,18.0,19.0,21.02379604162864,54.037024344425184,36.013886210738214,35.0,33.0,33.0,12.0,21.0,3.0,0.0,12.16552506059644,12.0,12.0,36.0,34.0,36.0,{},{}
278,278,9,0,9.275933333333317,6.082762530298219,73.0,11.0,19.0,18.0,20.024984394500787,20.024984394500787,56.0,37.0,34.0,33.0,33.0,13.0,23.0,4.0,3.0,12.041594578792296,13.152946437965904,12.5,35.0,34.0,36.0,{},{}
279,279,9,0,9.30929999999998,12.0,75.0066663703967,10.04987562112089,18.0,18.0,20.0,19.026297590440446,59.0,41.0,35.0,35.0,34.0,15.5,24.5,5.5,5.5,13.038404810405298,12.041594578792296,12.0,34.0,34.0,37.0,{},{}
280,280,9,0,9.342666666666648,10.0,72.00694410957877,10.0,18.0,18.0,20.024984394500787,18.027756377319943,56.00892785976178,38.01315561749642,33.0,34.0,33.0,15.5,22.5,4.5,5.5,12.16552506059644,12.041594578792296,12.0,34.0,34.0,38.0,{},{}
281,281,9,0,9.376033333333313,10.0,73.02739212103907,10.0,17.0,19.0,20.0,18.027756377319943,55.00909015790027,38.01315561749642,33.0,35.0,33.0,16.0,21.0,3.0,6.0,11.04536101718726,12.041594578792296,11.5,34.0,34.0,36.013886210738214,{},{}
282,282,9,0,9.409399999999978,9.0,72.02777242147643,11.0,17.0,18.0,20.024984394500787,17.0,54.0,37.0,32.5,35.0,33.0,17.0,20.0,3.0,6.0,11.180339887498947,11.04536101718726,11.0,33.0,34.0,36.0,{},{}
283,283,9,0,9.442766666666644,10.0,71.06335201775947,11.04536101718726,17.0,17.0,19.0,17.0,55.00909015790027,38.01315561749642,33.0,36.0,33.0,17.5,20.5,3.5,6.5,12.041594578792296,12.041594578792296,12.0,32.0,33.0,36.0,{},{}
284,284,9,0,9.47613333333331,9.055385138137416,71.06335201775947,11.0,17.029386365926403,18.027756377319943,20.024984394500787,17.0,54.037024344425184,37.01351104664349,32.5,36.0,33.0,17.5,19.5,2.5,7.5,11.04536101718726,11.04536101718726,11.0,32.0,32.0,36.0,{},{}
285,285,9,0,9.509499999999976,10.04987562112089,72.06247289678588,10.0,17.0,18.027756377319943,20.024984394500787,17.0,54.00925846556311,37.01351104664349,32.0,35.0,32.0,16.5,20.5,3.5,6.5,11.180339887498947,11.04536101718726,11.0,32.0,32.0,35.0,{},{}
286,286,9,0,9.542866666666642,11.04536101718726,70.06425622241343,11.0,17.0,18.027756377319943,19.0,16.0312195418814,55.03635162326805,38.05259518088089,32.5,36.0,33.0,18.5,20.5,3.5,7.5,10.198039027185567,11.04536101718726,11.0,31.0,32.0,35.0,{},{}
287,287,9,0,9.576233333333308,11.04536101718726,70.34912934784623,12.041594578792296,17.029386365926403,17.11724276862369,20.09975124224178,16.1245154965971,56.22277118748239,39.20459156782532,33.5,40.0,33.0,20.5,19.5,2.5,9.5,11.0,9.219544457292889,9.5,28.0,33.0,37.01351104664349,{},{}
288,288,9,0,9.609599999999974,10.198039027185567,71.02112361825881,12.041594578792296,17.029386365926403,17.26267650163207,19.235384061671343,16.1245154965971,55.326304774492215,38.3275357934736,33.0,42.0,30.0,20.0,19.0,3.0,10.0,11.04536101718726,10.198039027185567,10.5,23.0,36.0,36.345563690772494,{},{}
289,289,9,0,9.64296666666664,9.219544457292889,71.58910531638176,13.038404810405298,17.11724276862369,18.43908891458577,20.223748416156685,15.524174696260024,54.74486277268398,37.65634076752546,32.5,43.0,28.0,20.5,18.5,2.5,9.5,11.04536101718726,10.198039027185567,10.5,21.0,40.0,34.713109915419565,{},{}
290,290,9,0,9.676333333333304,9.219544457292889,72.3671196055225,13.038404810405298,17.26267650163207,18.43908891458577,19.4164878389476,15.524174696260024,54.91812087098393,37.65634076752546,32.5,42.0,28.0,20.0,19.0,3.0,9.0,11.180339887498947,10.44030650891055,10.5,21.0,41.0,34.20526275297414,{},{}
291,291,9,0,9.709699999999971,13.152946437965904,74.14849964766651,12.16552506059644,17.26267650163207,19.235384061671343,21.213203435596427,15.297058540778355,57.87054518492115,40.60788100849391,33.5,42.0,29.0,20.5,21.5,5.5,9.5,11.04536101718726,10.198039027185567,10.5,20.0,38.0,33.734255586866,{},{}
292,292,9,0,9.743066666666635,15.132745950421556,75.8023746329889,12.041594578792296,20.223748416156685,18.24828759089466,20.223748416156685,15.297058540778355,62.64982043070834,42.42640687119285,34.5,41.0,30.0,20.5,26.5,6.5,10.5,10.04987562112089,10.198039027185567,10.0,23.0,38.0,33.54101966249684,{},{}
293,293,9,0,9.776433333333305,14.0356688476182,74.43117626371358,12.041594578792296,19.1049731745428,17.11724276862369,19.1049731745428,16.492422502470642,61.5223536610881,42.42640687119285,35.0,41.0,33.0,21.0,24.0,5.0,10.0,10.0,9.055385138137416,9.5,24.0,36.0,35.35533905932738,{},{}
294,294,9,0,9.809799999999967,8.06225774829855,71.449282711585,12.041594578792296,18.110770276274835,17.11724276862369,20.09975124224178,16.1245154965971,54.3323108288245,36.22154055254967,32.0,39.0,31.0,19.0,19.0,2.0,8.0,10.04987562112089,10.04987562112089,10.0,26.0,36.0,34.23448553724738,{},{}
295,295,9,0,9.843166666666637,7.071067811865476,70.34912934784623,12.0,18.027756377319943,17.11724276862369,19.026297590440446,16.278820596099706,53.23532661682466,35.22782990761707,31.5,38.0,31.0,18.5,18.5,1.5,7.5,9.055385138137416,9.055385138137416,9.0,26.0,34.0,34.23448553724738,{},{}
296,296,9,0,9.8765333333333,7.071067811865476,70.178344238091,12.0,18.027756377319943,17.029386365926403,19.026297590440446,16.1245154965971,53.150729063673246,35.12833614050059,31.5,36.0,31.0,17.5,19.5,1.5,6.5,9.0,9.0,9.0,27.0,33.0,35.05709628591621,{},{}
297,297,9,0,9.909899999999968,8.06225774829855,69.1158447825099,12.0,17.029386365926403,16.0312195418814,18.027756377319943,15.132745950421556,52.15361924162119,35.12833614050059,31.0,35.0,31.0,18.0,19.0,2.0,6.0,9.0,9.055385138137416,9.5,29.0,33.0,34.0147027033899,{},{}
298,298,9,0,9.943266666666633,7.071067811865476,68.18357573492314,11.0,18.027756377319943,16.0312195418814,19.026297590440446,16.0312195418814,52.08646657242167,34.058772731852805,30.5,35.0,30.0,16.5,19.5,1.5,5.5,10.04987562112089,9.055385138137416,9.5,29.0,32.0,34.0147027033899,{},{}
299,299,9,0,9.976633333333298,8.06225774829855,70.11419257183242,13.0,19.0,19.026297590440446,20.024984394500787,16.1245154965971,56.08029957123981,37.12142238654117,33.0,36.0,32.0,18.0,22.0,3.0,6.0,10.0,10.04987562112089,9.5,30.0,31.0,34.0,{},{}
300,300,9,0,10.009999999999964,12.041594578792296,73.06161783043132,12.0,21.0,20.0,22.02271554554524,17.11724276862369,62.07253821135398,41.10960958218893,35.0,37.0,34.0,18.5,26.5,5.5,6.5,10.04987562112089,10.04987562112089,9.5,29.0,31.0,35.0,{},{}
301,301,9,0,10.04336666666663,19.026297590440446,77.00649323271382,12.0,20.0,20.0,22.0,16.0312195418814,67.02984409947557,47.042533945356304,37.5,37.0,36.0,20.5,30.5,10.5,8.5,10.04987562112089,10.04987562112089,10.0,30.0,31.0,36.0,{},{}
302,302,9,0,10.076733333333296,22.0,81.00617260431454,11.0,19.0,21.0,23.0,18.027756377319943,70.00714249274856,51.0098029794274,40.0,37.0,36.0,18.5,33.5,14.5,7.5,11.0,11.180339887498947,11.0,31.0,31.0,36.0,{},{}
303,303,9,0,10.110099999999962,22.0,80.0,11.0,19.0,20.0,22.0,17.0,69.0,50.0,39.0,34.0,34.0,17.0,35.0,16.0,6.0,13.038404810405298,12.16552506059644,12.5,31.0,31.0,35.0142828000232,{},{}
304,304,9,0,10.143466666666628,17.0,79.0,11.0,19.0,20.0,22.0,18.0,65.0,46.0,37.5,34.0,34.0,16.0,31.0,12.0,5.0,12.041594578792296,12.16552506059644,12.0,30.0,30.0,37.0,{},{}
305,305,9,0,10.176833333333294,13.038404810405298,75.0,9.0,18.0,18.0,21.0,18.027756377319943,58.0,40.0,33.5,32.0,32.0,14.0,26.0,8.0,5.0,12.041594578792296,12.041594578792296,12.0,31.0,31.0,35.0,{},{}
306,306,9,0,10.21019999999996,12.0,70.00714249274856,8.0,17.0,17.0,20.0,17.0,54.0,37.0,31.0,33.0,32.0,15.5,21.5,4.5,7.5,12.041594578792296,12.041594578792296,12.0,31.0,33.0,35.0,{},{}
307,307,9,0,10.243566666666624,12.0,67.02984409947557,9.0,16.0,17.029386365926403,19.026297590440446,16.0312195418814,53.009433122794285,37.01351104664349,31.0,34.0,32.0,17.0,20.0,4.0,9.0,12.041594578792296,12.041594578792296,11.5,30.0,31.0,33.015148038438355,{},{}
308,308,9,0,10.276933333333291,12.0,66.007575322837,10.0,18.0,16.0,18.0,13.0,53.0,35.0,29.0,33.0,32.0,19.5,20.5,2.5,9.5,11.04536101718726,11.04536101718726,11.0,30.0,32.0,34.0,{},{}
309,309,9,0,10.310299999999955,11.0,66.0,10.0,17.029386365926403,18.0,19.0,15.0,53.009433122794285,36.0,30.5,33.0,33.0,18.0,20.0,2.0,8.0,11.04536101718726,11.04536101718726,11.0,30.0,30.0,35.0142828000232,{},{}
310,310,9,0,10.343666666666625,10.0,68.0,11.0,18.0,17.0,19.0,15.0,54.0,36.0,31.0,33.0,33.0,18.0,21.0,3.0,7.0,11.04536101718726,10.04987562112089,10.0,32.0,30.0,34.0,{},{}
311,311,9,0,10.377033333333287,13.038404810405298,71.0,11.0,17.0,18.0,20.0,16.0,57.0087712549569,40.01249804748511,33.5,33.0,33.0,17.0,24.0,6.0,6.0,11.04536101718726,10.0,10.0,31.0,29.0,35.05709628591621,{},{}
312,312,9,0,10.410399999999957,15.0,75.0,10.0,17.029386365926403,19.0,21.0,17.029386365926403,59.033888572581766,42.01190307520001,34.5,32.0,32.0,15.0,27.0,9.0,5.0,10.198039027185567,11.04536101718726,10.5,32.0,30.0,35.0142828000232,{},{}
313,313,9,0,10.44376666666662,15.0,79.0,10.0,16.0312195418814,20.024984394500787,23.0,18.027756377319943,59.033888572581766,43.01162633521314,35.5,32.0,32.0,14.0,27.0,10.0,4.0,10.04987562112089,10.04987562112089,10.5,31.0,30.0,35.0142828000232,{},{}
314,314,9,0,10.477133333333288,16.0,79.0,10.04987562112089,16.0,21.0,23.021728866442675,18.0,60.00833275470999,44.01136216933077,36.0,32.0,32.0,14.0,28.0,11.0,5.0,10.04987562112089,9.055385138137416,9.0,31.0,30.0,35.0142828000232,{},{}
315,315,9,0,10.510499999999952,16.0,80.00624975587844,10.0,16.0,20.0,22.0,18.027756377319943,60.00833275470999,44.01136216933077,36.0,31.0,32.0,13.5,28.5,11.5,4.5,6.082762530298219,6.082762530298219,6.0,32.0,31.0,35.0,{},{}
316,316,9,0,10.543866666666618,16.0312195418814,79.00632886041473,9.0,16.0,20.024984394500787,23.0,18.0,59.00847396772772,43.01162633521314,35.0,30.0,31.0,12.5,28.5,11.5,3.5,6.082762530298219,6.0,5.5,32.0,31.0,34.058772731852805,{},{}
317,317,9,0,10.577233333333284,16.0,79.00632886041473,9.0,15.0,21.0,23.0,18.027756377319943,58.00862004909271,43.01162633521314,35.0,30.0,31.0,12.5,27.5,11.5,4.5,6.082762530298219,7.071067811865476,6.5,33.0,31.0,37.01351104664349,{},{}
318,318,9,0,10.61059999999995,15.0,76.00657866263946,8.0,16.0,19.0,21.02379604162864,17.0,56.0,40.0,32.5,29.0,30.0,12.5,26.5,9.5,4.5,8.06225774829855,7.071067811865476,7.0,32.0,31.0,37.01351104664349,{},{}
319,319,9,0,10.643966666666616,13.0,70.0,8.0,17.0,18.0,19.0,17.029386365926403,55.00909015790027,38.01315561749642,31.5,32.0,32.0,15.0,23.0,6.0,7.0,10.04987562112089,10.04987562112089,9.5,32.0,31.0,34.0147027033899,{},{}
320,320,9,0,10.677333333333282,12.0,65.00769185258002,9.0,17.029386365926403,17.0,18.0,16.0312195418814,54.037024344425184,37.01351104664349,31.0,33.0,32.0,16.5,21.5,4.5,7.5,11.04536101718726,10.04987562112089,10.0,31.0,30.0,35.0,{},{}
321,321,9,0,10.710699999999948,12.0,60.00833275470999,9.0,19.0,15.033296378372908,18.0,15.033296378372908,55.00909015790027,36.013886210738214,30.0,33.0,32.0,17.5,22.5,3.5,8.5,12.041594578792296,11.04536101718726,11.5,32.0,30.0,34.0147027033899,{},{}
322,322,9,0,10.744066666666614,12.0,60.00833275470999,9.0,19.0,16.0312195418814,18.0,16.0312195418814,56.00892785976178,37.01351104664349,31.0,34.0,33.0,17.5,22.5,3.5,8.5,12.041594578792296,11.04536101718726,11.0,31.0,29.0,33.015148038438355,{},{}
323,323,9,0,10.77743333333328,11.0,58.00862004909271,10.0,18.027756377319943,15.0,17.0,16.0312195418814,55.03635162326805,37.01351104664349,31.5,35.0,34.0,18.5,20.5,1.5,8.5,11.180339887498947,12.041594578792296,11.5,32.0,29.0,34.0147027033899,{},{}
324,324,9,0,10.810799999999944,7.0,57.0,12.0,20.0,14.0,17.0,16.0,55.0,35.0,31.5,34.0,34.0,18.0,21.0,1.0,6.0,11.180339887498947,11.04536101718726,11.0,31.0,29.0,32.01562118716424,{},{}
325,325,9,0,10.844166666666611,6.0,56.00892785976178,13.0,20.0,15.0,16.0,18.027756377319943,57.0087712549569,37.01351104664349,34.0,36.0,37.0,18.5,20.5,0.5,5.5,12.16552506059644,11.0,11.0,32.0,29.0,33.06055050963308,{},{}
326,326,9,0,10.877533333333275,5.0,56.00892785976178,13.0,19.0,14.0,17.0,20.0,57.0,38.0,35.5,37.0,38.0,17.5,19.5,0.5,5.5,12.16552506059644,12.16552506059644,12.0,32.0,29.0,33.06055050963308,{},{}
327,327,9,0,10.910899999999945,5.0,57.0087712549569,13.0,20.0,14.0,16.0312195418814,20.024984394500787,58.00862004909271,38.01315561749642,35.5,37.0,38.0,17.5,20.5,0.5,4.5,12.16552506059644,11.04536101718726,11.0,33.0,31.0,34.0,{},{}
328,328,9,0,10.944266666666609,4.123105625617661,58.034472514187634,14.0,20.0,15.033296378372908,18.027756377319943,20.024984394500787,58.0,38.0,36.0,37.0,39.0,18.0,20.0,1.0,4.0,11.04536101718726,11.04536101718726,11.5,31.0,29.0,34.0,{},{}
329,329,9,0,10.977633333333277,6.0,61.00819617067857,12.0,19.0,16.0,18.0,21.0,58.0,39.0,36.0,37.0,38.0,16.5,20.5,0.5,4.5,12.16552506059644,11.04536101718726,11.0,33.0,30.0,33.015148038438355,{},{}
330,330,9,0,11.01099999999994,5.0,62.00806399170998,13.0,18.027756377319943,16.0312195418814,18.027756377319943,20.0,56.00892785976178,38.0,35.5,36.0,37.0,16.5,19.5,0.5,3.5,11.04536101718726,11.04536101718726,11.0,32.0,30.0,35.0142828000232,{},{}
331,331,9,0,11.044366666666606,6.0,67.00746227100382,13.0,18.0,18.0,20.024984394500787,19.0,56.0,38.0,35.0,35.0,36.0,16.5,20.5,1.5,4.5,11.180339887498947,10.04987562112089,10.5,32.0,29.0,35.05709628591621,{},{}
332,332,9,0,11.077733333333272,11.0,72.00694410957877,11.0,19.0,18.0,20.024984394500787,18.0,59.0,40.0,34.5,35.0,36.0,17.5,23.5,4.5,6.5,11.180339887498947,11.180339887498947,10.5,32.0,29.0,36.013886210738214,{},{}
333,333,9,0,11.111099999999938,16.0,77.0,10.0,17.0,19.026297590440446,21.02379604162864,18.027756377319943,61.00819617067857,44.01136216933077,36.0,33.0,33.0,15.0,28.0,10.0,5.0,11.04536101718726,11.180339887498947,11.0,32.0,29.0,36.05551275463989,{},{}
334,334,9,0,11.144466666666604,18.0,81.00617260431454,10.0,16.0,22.02271554554524,23.0,17.029386365926403,61.00819617067857,45.0111097397076,36.0,30.0,31.0,13.5,30.5,13.5,3.5,12.16552506059644,11.04536101718726,11.0,33.0,30.0,37.05401462729781,{},{}
335,335,9,0,11.17783333333327,18.027756377319943,84.0,10.0,18.0,22.02271554554524,24.020824298928627,17.0,63.00793600809346,45.0111097397076,36.0,29.0,29.0,12.0,34.0,15.0,2.0,11.180339887498947,12.041594578792296,11.5,32.0,30.0,36.013886210738214,{},{}
336,336,9,0,11.211199999999936,21.0,88.0056816347672,10.0,17.029386365926403,22.02271554554524,25.019992006393608,16.0312195418814,64.0,47.01063709417264,36.5,27.0,28.0,11.5,36.5,18.5,1.5,12.16552506059644,12.041594578792296,12.0,34.0,33.0,38.01315561749642,{},{}
337,337,9,0,11.244566666666602,23.0,89.02246907382428,10.04987562112089,17.0,24.020824298928627,27.018512172212592,15.033296378372908,65.0,48.0,36.5,27.0,29.0,13.0,37.0,18.0,3.0,12.041594578792296,12.041594578792296,12.0,36.0,34.0,40.01249804748511,{},{}
338,338,9,0,11.277933333333268,23.021728866442675,89.05054744357274,10.0,17.0,24.020824298928627,26.019223662515376,15.132745950421556,65.00769185258002,48.010415536631214,36.5,26.0,29.0,12.5,37.5,18.5,2.5,11.180339887498947,12.041594578792296,11.5,36.0,35.0,41.01219330881976,{},{}
339,339,9,0,11.311299999999934,22.0,89.02246907382428,11.0,17.0,24.020824298928627,26.0768096208106,14.0,64.0,47.0,36.0,27.0,29.0,14.0,36.0,18.0,3.0,11.04536101718726,11.04536101718726,11.0,36.0,35.0,39.01281840626232,{},{}
340,340,9,0,11.3446666666666,23.0,90.00555538409837,11.0,17.0,24.0,27.018512172212592,13.0,64.0,47.0,35.5,27.0,28.0,14.5,36.5,18.5,3.5,11.04536101718726,11.04536101718726,10.5,36.0,35.0,38.0,{},{}
341,341,9,0,11.378033333333263,21.0,89.00561780022652,11.0,16.0,24.020824298928627,26.0,14.0,62.0,46.0,35.5,27.0,28.0,13.5,34.5,16.5,2.5,10.198039027185567,10.04987562112089,10.0,35.0,34.0,40.01249804748511,{},{}
342,342,9,0,11.411399999999931,20.024984394500787,88.0056816347672,11.04536101718726,17.0,23.021728866442675,25.019992006393608,14.0356688476182,62.00806399170998,45.0111097397076,35.0,27.0,28.0,13.5,34.5,16.5,2.5,10.04987562112089,10.04987562112089,10.5,36.0,33.0,40.049968789001575,{},{}
343,343,9,0,11.444766666666595,20.0,90.00555538409837,11.0,16.0,23.021728866442675,25.0,13.038404810405298,60.00833275470999,44.01136216933077,34.0,25.0,26.0,12.5,34.5,16.5,1.5,10.04987562112089,9.055385138137416,9.0,35.0,31.0,39.05124837953327,{},{}
344,344,9,0,11.478133333333265,20.0,90.0222194794152,10.0,15.0,24.020824298928627,26.0,14.0,59.0,44.0,34.0,25.0,27.0,12.0,33.0,16.0,2.0,10.04987562112089,10.04987562112089,10.0,35.0,30.0,37.05401462729781,{},{}
345,345,9,0,11.511499999999929,18.0,89.00561780022652,10.0,16.0,23.021728866442675,25.0,14.0356688476182,58.00862004909271,42.01190307520001,33.0,25.0,26.0,11.5,32.5,15.5,1.5,9.219544457292889,10.0,10.0,34.0,28.0,38.11823710509184,{},{}
346,346,9,0,11.544866666666596,20.0,90.0499861188218,9.0,15.0,24.020824298928627,27.018512172212592,14.0,58.0,43.0,33.0,24.0,27.0,11.5,32.5,15.5,2.5,10.04987562112089,9.0,9.0,34.0,28.0,38.11823710509184,{},{}
347,347,9,0,11.57823333333326,19.0,90.0499861188218,10.04987562112089,15.0,24.0,26.019223662515376,14.0356688476182,58.0,43.0,33.5,24.0,27.0,11.5,32.5,15.5,2.5,9.219544457292889,9.0,9.0,34.0,28.0,36.12478373637688,{},{}
348,348,9,0,11.611599999999926,18.0,89.05054744357274,10.0,15.0,24.0,27.0,14.0356688476182,57.0087712549569,42.01190307520001,33.0,24.0,27.0,11.5,31.5,14.5,2.5,9.219544457292889,9.0,9.0,34.0,27.0,36.12478373637688,{},{}
349,349,9,0,11.644966666666592,19.0,89.05054744357274,9.0,15.033296378372908,25.019992006393608,26.019223662515376,14.0,57.0087712549569,42.0,32.5,22.0,25.0,9.5,33.5,16.5,1.5,10.198039027185567,9.0,9.0,33.0,27.0,35.22782990761707,{},{}
350,350,9,0,11.678333333333258,19.0,91.0494371207203,9.0,15.0,24.020824298928627,26.019223662515376,14.0,57.0,42.0,32.5,22.0,25.0,9.5,33.5,16.5,0.5,10.198039027185567,10.04987562112089,10.0,33.0,27.0,35.05709628591621,{},{}
351,351,9,0,11.711699999999924,17.0,90.0499861188218,9.0,15.0,24.0,26.019223662515376,15.0,56.0,41.0,32.5,23.0,26.0,9.5,31.5,14.5,1.5,10.198039027185567,9.055385138137416,9.5,32.0,27.0,36.05551275463989,{},{}
352,352,9,0,11.74506666666659,16.0,90.0499861188218,10.04987562112089,16.0,24.020824298928627,26.019223662515376,14.0356688476182,56.0,40.0,32.0,23.0,26.0,10.5,31.5,13.5,1.5,10.198039027185567,10.0,10.0,34.0,28.0,36.12478373637688,{},{}
353,353,9,0,11.778433333333256,18.0,90.0499861188218,10.0,14.0,24.0,27.018512172212592,13.038404810405298,55.00909015790027,41.01219330881976,32.0,23.0,26.0,11.5,30.5,15.5,2.5,11.180339887498947,10.04987562112089,10.0,33.0,28.0,37.05401462729781,{},{}
354,354,9,0,11.811799999999922,16.0,90.0499861188218,10.0,15.033296378372908,23.021728866442675,26.019223662515376,14.0356688476182,55.0,40.01249804748511,32.0,23.0,26.0,10.5,30.5,13.5,0.5,10.04987562112089,10.04987562112089,10.0,34.0,28.0,38.11823710509184,{},{}
355,355,9,0,11.845166666666588,17.0,90.0499861188218,10.0,14.0,23.021728866442675,25.079872407968907,13.0,54.0,40.0,31.5,23.0,26.0,11.5,29.5,14.5,1.5,10.04987562112089,9.0,9.5,32.0,27.0,36.12478373637688,{},{}
356,356,9,0,11.878533333333252,18.0,89.08984229416954,10.0,13.0,25.019992006393608,26.0768096208106,13.0,54.0,41.0,32.0,23.0,27.0,12.0,29.0,14.0,2.0,10.198039027185567,9.0,9.5,33.0,27.0,37.12142238654117,{},{}
357,357,9,0,11.91189999999992,19.0,90.0499861188218,10.0,14.0,24.020824298928627,26.019223662515376,13.038404810405298,56.00892785976178,42.01190307520001,32.5,24.0,27.0,12.5,30.5,14.5,2.5,11.04536101718726,10.0,10.0,33.0,28.0,37.12142238654117,{},{}
358,358,9,0,11.945266666666583,19.0,90.0499861188218,11.0,14.0,24.020824298928627,26.019223662515376,13.0,57.0,43.0,33.5,24.0,27.0,12.5,31.5,16.5,1.5,10.04987562112089,9.055385138137416,9.5,33.0,27.0,38.2099463490856,{},{}
359,359,9,0,11.978633333333253,21.02379604162864,90.08884503644168,10.0,14.0,24.020824298928627,26.019223662515376,14.0356688476182,59.0,45.0,34.5,25.0,29.0,13.0,32.0,17.0,3.0,10.198039027185567,10.04987562112089,10.0,33.0,28.0,38.2099463490856,{},{}
360,360,9,0,12.011999999999915,22.02271554554524,89.05054744357274,10.0,14.0,24.020824298928627,26.019223662515376,14.0356688476182,60.0,46.0,35.0,26.0,29.0,13.5,32.5,17.5,3.5,10.198039027185567,10.04987562112089,10.0,33.0,26.0,37.21558813185679,{},{}
361,361,9,0,12.045366666666585,23.021728866442675,90.0499861188218,10.0,13.0,25.0,27.0,14.0,60.00833275470999,47.01063709417264,35.5,26.0,29.0,13.5,32.5,17.5,4.5,10.198039027185567,10.0,10.0,34.0,28.0,37.12142238654117,{},{}
362,362,9,0,12.078733333333249,23.021728866442675,89.08984229416954,10.0,14.0,24.020824298928627,26.019223662515376,14.0,61.00819617067857,47.01063709417264,35.5,26.0,30.0,14.0,33.0,17.0,4.0,10.198039027185567,10.0,10.0,33.0,26.0,36.12478373637688,{},{}
363,363,9,0,12.112099999999916,23.0,91.02197536858888,10.04987562112089,14.0356688476182,25.019992006393608,27.0,15.0,62.03224967708329,48.010415536631214,36.5,29.0,31.0,15.0,32.0,17.0,5.0,10.04987562112089,10.0,10.0,34.0,27.0,37.12142238654117,{},{}
364,364,9,0,12.14546666666658,29.017236257093817,90.0222194794152,9.055385138137416,14.0,25.019992006393608,27.0,15.033296378372908,67.06713054842886,53.08483775994799,38.5,32.0,34.0,18.0,34.0,19.0,8.0,10.198039027185567,10.04987562112089,10.0,34.0,27.0,37.12142238654117,{},{}
365,365,9,0,12.178833333333246,32.01562118716424,90.08884503644168,10.0,14.0356688476182,26.019223662515376,28.0,15.033296378372908,71.06335201775947,57.0350769263968,41.0,32.0,36.0,19.0,37.0,21.0,9.0,9.055385138137416,9.0,9.5,34.0,27.0,38.2099463490856,{},{}
366,366,9,0,12.212199999999912,33.015148038438355,91.0494371207203,10.0,16.0312195418814,26.019223662515376,28.0178514522438,15.033296378372908,74.06078584514209,58.034472514187634,41.5,32.0,35.0,18.5,40.5,22.5,8.5,9.219544457292889,9.0,9.5,34.0,27.0,37.12142238654117,{},{}
367,367,9,0,12.245566666666578,32.01562118716424,87.05170877128145,11.04536101718726,17.029386365926403,25.019992006393608,27.0,15.0,75.05997601918082,58.034472514187634,42.0,34.0,37.0,20.5,39.5,20.5,9.5,10.198039027185567,9.0,9.5,34.0,27.0,37.21558813185679,{},{}
368,368,9,0,12.278933333333244,29.0,81.05553651663777,10.04987562112089,19.026297590440446,23.021728866442675,25.0,16.0,74.02702209328699,55.00909015790027,40.5,36.0,39.0,21.5,36.5,16.5,10.5,9.219544457292889,9.0,9.5,35.0,28.0,36.12478373637688,{},{}
369,369,9,0,12.31229999999991,21.0,75.05997601918082,11.04536101718726,20.024984394500787,21.02379604162864,23.0,16.0,68.0294054067798,48.010415536631214,37.5,35.0,38.0,20.5,31.5,10.5,9.5,10.04987562112089,9.0,9.5,35.0,28.0,37.12142238654117,{},{}
370,370,9,0,12.345666666666576,18.0,73.00684899377592,11.0,20.024984394500787,19.026297590440446,22.0,17.0,66.007575322837,46.0,37.0,37.0,38.0,20.5,28.5,7.5,8.5,10.198039027185567,10.0,10.0,36.0,27.0,35.12833614050059,{},{}
371,371,9,0,12.379033333333242,18.0,72.00694410957877,10.04987562112089,18.027756377319943,19.026297590440446,22.0,18.110770276274835,64.0,46.01086828130936,37.0,37.0,38.0,19.5,26.5,7.5,8.5,11.180339887498947,11.0,10.5,36.0,28.0,35.12833614050059,{},{}
372,372,9,0,12.412399999999908,17.029386365926403,70.0,11.04536101718726,19.026297590440446,19.0,21.02379604162864,17.0,64.00781202322104,45.0,36.5,37.0,37.0,20.0,27.0,8.0,9.0,11.180339887498947,11.0,11.0,36.0,27.0,34.23448553724738,{},{}
373,373,9,0,12.445766666666572,15.033296378372908,69.00724599634447,10.04987562112089,19.026297590440446,19.0,22.02271554554524,19.0,63.00793600809346,44.0,36.5,37.0,38.0,18.5,25.5,6.5,8.5,12.16552506059644,11.0,11.0,36.0,27.0,35.22782990761707,{},{}
374,374,9,0,12.47913333333324,14.0,69.02897942168927,12.041594578792296,19.0,18.027756377319943,21.02379604162864,18.0,63.00793600809346,44.01136216933077,37.0,36.0,38.0,19.0,26.0,7.0,7.0,11.180339887498947,11.0,10.5,37.0,28.0,34.23448553724738,{},{}
375,375,9,0,12.512499999999903,12.041594578792296,67.02984409947557,12.0,19.0,18.027756377319943,21.0,19.0,62.00806399170998,43.01162633521314,37.0,35.0,37.0,17.0,26.0,7.0,5.0,11.180339887498947,11.0,11.0,37.0,28.0,34.23448553724738,{},{}
376,376,9,0,12.545866666666573,12.0,65.06919393998976,13.038404810405298,19.026297590440446,18.027756377319943,19.0,18.027756377319943,62.07253821135398,43.04648650006177,37.0,35.0,38.0,18.5,25.5,5.5,4.5,11.180339887498947,11.0,11.0,36.0,27.0,36.12478373637688,{},{}
377,377,9,0,12.579233333333235,10.0,63.07138812488592,13.038404810405298,18.027756377319943,16.0312195418814,19.026297590440446,20.024984394500787,61.07372593840988,43.04648650006177,38.0,35.0,38.0,16.5,24.5,5.5,3.5,11.40175425099138,11.0,11.5,37.0,28.0,36.12478373637688,{},{}
378,378,9,0,12.612599999999905,8.0,62.07253821135398,12.041594578792296,18.027756377319943,16.0312195418814,18.0,21.02379604162864,59.07622195096772,41.04875150354759,37.0,35.0,38.0,15.5,22.5,3.5,3.5,12.16552506059644,11.0,11.0,36.0,27.0,35.12833614050059,{},{}
379,379,9,0,12.645966666666569,4.0,61.20457499239743,13.038404810405298,19.0,15.033296378372908,17.0,21.02379604162864,57.0350769263968,38.05259518088089,36.0,33.0,38.0,14.5,21.5,1.5,1.5,11.40175425099138,11.0,11.0,37.0,27.0,36.12478373637688,{},{}
380,380,9,0,12.679333333333236,4.0,64.19501538281614,14.0,19.026297590440446,15.033296378372908,17.029386365926403,21.095023109728988,58.077534382926416,39.05124837953327,37.0,33.0,38.0,14.5,22.5,1.5,0.5,11.40175425099138,11.0,11.0,37.0,28.0,34.23448553724738,{},{}
381,381,9,0,12.7126999999999,9.0,74.24284477308234,13.038404810405298,18.027756377319943,18.027756377319943,20.024984394500787,19.026297590440446,59.07622195096772,41.04875150354759,36.5,31.0,37.0,15.0,25.0,5.0,1.0,11.180339887498947,11.04536101718726,11.0,36.0,26.0,35.12833614050059,{},{}
382,382,9,0,12.746066666666566,18.027756377319943,80.39900496896712,11.04536101718726,18.027756377319943,20.09975124224178,22.09072203437452,17.11724276862369,64.19501538281614,46.17358552246078,37.0,29.0,37.0,16.0,31.0,11.0,4.0,10.198039027185567,10.0,10.5,36.0,27.0,36.22154055254967,{},{}
383,383,9,0,12.779433333333232,20.0,86.37129152675674,12.041594578792296,17.029386365926403,22.20360331117452,25.179356624028344,15.132745950421556,64.1248781675256,47.09564735726647,37.0,27.0,35.0,16.0,33.0,13.0,3.0,11.180339887498947,11.0,10.5,36.0,27.0,37.21558813185679,{},{}
384,384,9,0,12.812799999999898,20.0,89.35882720806042,11.04536101718726,17.029386365926403,24.186773244895647,25.179356624028344,16.0312195418814,64.07027391856539,47.042533945356304,37.0,26.0,34.0,14.0,34.0,15.0,2.0,10.198039027185567,10.0,10.5,35.0,26.0,37.12142238654117,{},{}
385,385,9,0,12.846166666666564,21.02379604162864,90.448880590088,11.0,16.0312195418814,23.08679276123039,26.1725046566048,15.132745950421556,63.12685640834652,47.09564735726647,36.5,25.0,34.0,14.5,33.5,14.5,3.5,11.180339887498947,11.0,10.5,37.0,27.0,37.21558813185679,{},{}
386,386,9,0,12.87953333333323,18.0,88.36288813749809,12.041594578792296,18.027756377319943,22.20360331117452,25.079872407968907,14.0356688476182,62.07253821135398,44.04543109109048,35.0,25.0,33.0,15.0,33.0,13.0,2.0,10.198039027185567,11.0,11.0,36.0,26.0,38.11823710509184,{},{}
387,387,9,0,12.912899999999896,22.02271554554524,89.45389874119518,11.0,17.029386365926403,23.194827009486403,26.1725046566048,15.132745950421556,65.12296062065974,48.0936586256442,37.0,25.0,34.0,14.5,35.5,15.5,2.5,11.180339887498947,10.0,10.0,37.0,26.0,37.21558813185679,{},{}
388,388,9,0,12.946266666666562,21.02379604162864,87.46427842267951,11.04536101718726,19.026297590440446,22.20360331117452,25.179356624028344,15.033296378372908,66.12110101926616,47.09564735726647,36.5,25.0,34.0,14.5,36.5,15.5,2.5,10.198039027185567,11.0,10.5,37.0,26.0,37.21558813185679,{},{}
389,389,9,0,12.979633333333227,24.020824298928627,87.5728268357257,10.04987562112089,17.11724276862369,23.08679276123039,26.1725046566048,15.033296378372908,66.18912297349165,49.09175083453431,37.0,24.0,34.0,14.0,37.0,17.0,3.0,10.44030650891055,10.0,10.5,37.0,25.0,36.22154055254967,{},{}
390,390,9,0,13.012999999999892,22.09072203437452,87.5728268357257,10.04987562112089,17.029386365926403,23.194827009486403,25.179356624028344,16.0312195418814,65.19202405202648,48.16637831516918,37.0,23.0,33.0,12.0,37.0,18.0,1.0,11.40175425099138,10.0,10.0,38.0,25.0,35.22782990761707,{},{}
391,391,9,0,13.04636666666656,24.020824298928627,84.38009243891595,10.04987562112089,16.0312195418814,22.20360331117452,25.179356624028344,16.0312195418814,66.12110101926616,50.08991914547278,38.0,25.0,33.0,13.0,37.0,18.0,2.0,11.180339887498947,10.0,10.5,38.0,25.0,37.21558813185679,{},{}
392,392,9,0,13.079733333333223,21.0,83.2946576918352,10.04987562112089,17.11724276862369,22.09072203437452,25.179356624028344,18.027756377319943,66.12110101926616,49.04079934095692,38.5,26.0,33.0,11.5,36.5,16.5,1.5,11.40175425099138,10.0,10.0,37.0,25.0,37.33630940518894,{},{}
393,393,9,0,13.113099999999893,17.029386365926403,79.30952023559341,11.04536101718726,19.026297590440446,21.095023109728988,23.08679276123039,17.029386365926403,64.1248781675256,45.09988913511872,36.5,27.0,34.0,13.5,33.5,12.5,2.5,11.40175425099138,10.0,10.0,36.0,25.0,36.22154055254967,{},{}
394,394,9,0,13.146466666666557,12.0,71.17583859709698,13.038404810405298,19.1049731745428,19.1049731745428,21.095023109728988,17.029386365926403,61.1310068623117,42.04759208325728,36.0,30.0,35.0,15.5,28.5,7.5,2.5,11.40175425099138,10.04987562112089,10.5,37.0,27.0,35.22782990761707,{},{}
395,395,9,0,13.179833333333224,9.0,68.06614430096654,12.041594578792296,18.027756377319943,17.029386365926403,20.024984394500787,19.026297590440446,58.077534382926416,40.049968789001575,35.5,32.0,35.0,14.5,24.5,5.5,1.5,12.16552506059644,11.04536101718726,11.5,36.0,28.0,36.22154055254967,{},{}
396,396,9,0,13.213199999999889,4.0,65.03076195155643,14.0356688476182,19.026297590440446,15.0,18.027756377319943,19.026297590440446,56.08029957123981,37.05401462729781,35.0,33.0,35.0,15.0,22.0,2.0,2.0,13.152946437965904,12.0,12.5,38.0,31.0,36.05551275463989,{},{}
397,397,9,0,13.246566666666554,3.0,64.03124237432849,13.0,18.027756377319943,16.0,17.029386365926403,19.1049731745428,53.08483775994799,35.05709628591621,33.5,32.0,34.0,14.0,20.0,1.0,1.0,13.152946437965904,12.0,12.5,39.0,33.0,39.05124837953327,{},{}
398,398,9,0,13.27993333333322,3.0,65.0,14.0,18.0,15.0,17.0,18.027756377319943,53.009433122794285,35.0142828000232,33.5,33.0,33.0,15.0,20.0,1.0,2.0,12.041594578792296,12.0,12.0,39.0,34.0,38.05259518088089,{},{}
399,399,9,0,13.313299999999886,5.0,69.0,13.0,18.0,16.0,18.0,17.0,53.0,35.0,32.5,32.0,32.0,15.0,21.0,2.0,2.0,14.0356688476182,13.038404810405298,13.5,38.0,35.0,40.01249804748511,{},{}
400,400,9,0,13.346666666666552,10.04987562112089,73.0,12.0,17.0,17.0,20.024984394500787,16.0,55.00909015790027,38.01315561749642,33.0,32.0,32.0,16.0,23.0,5.0,4.0,13.038404810405298,13.0,13.0,38.0,37.0,39.01281840626232,{},{}
401,401,9,0,13.380033333333218,14.0,77.0,12.0,16.0,18.0,21.0,16.0,58.0,42.0,35.0,32.0,32.0,16.0,26.0,9.0,4.0,13.152946437965904,13.0,13.0,36.0,36.0,39.0,{},{}
402,402,9,0,13.413399999999884,15.0,81.00617260431454,11.0,15.033296378372908,21.02379604162864,22.0,16.0,57.0087712549569,42.0,34.5,29.0,30.0,13.5,27.5,10.5,2.5,12.041594578792296,12.041594578792296,12.5,36.0,36.0,41.01219330881976,{},{}
403,403,9,0,13.44676666666655,14.0,85.00588214941364,11.0,16.0312195418814,21.0,23.021728866442675,16.0312195418814,57.0350769263968,41.01219330881976,34.0,26.0,27.0,10.5,30.5,13.5,0.5,12.16552506059644,12.16552506059644,12.5,36.0,36.0,40.0,{},{}
404,404,9,0,13.480133333333216,14.0356688476182,85.00588214941364,10.0,15.0,21.0,23.021728866442675,16.0,55.00909015790027,40.01249804748511,33.0,24.0,25.0,8.5,30.5,13.5,0.5,12.16552506059644,12.16552506059644,12.0,35.0,35.0,40.0,{},{}
405,405,9,0,13.51349999999988,14.0356688476182,86.00581375697809,10.0,15.0,21.02379604162864,23.08679276123039,16.0312195418814,55.03635162326805,40.049968789001575,33.0,23.0,24.0,7.5,31.5,15.5,2.5,12.16552506059644,11.180339887498947,11.5,33.0,34.0,39.0,{},{}
406,406,9,0,13.546866666666547,12.041594578792296,87.0,10.0,15.0,22.0,24.020824298928627,16.0,53.009433122794285,38.01315561749642,32.0,22.0,22.0,6.0,31.0,15.0,3.0,12.041594578792296,11.04536101718726,11.0,33.0,34.0,40.0,{},{}
407,407,9,0,13.580233333333211,13.038404810405298,85.00588214941364,10.0,16.0312195418814,21.0,23.021728866442675,16.0,55.03635162326805,39.01281840626232,32.5,23.0,22.0,6.5,32.5,15.5,2.5,11.180339887498947,11.04536101718726,11.5,32.0,33.0,39.0,{},{}
408,408,9,0,13.61359999999988,15.0,85.0,10.0,16.0312195418814,21.0,23.0,16.0312195418814,57.0350769263968,41.01219330881976,33.5,25.0,25.0,9.0,32.0,14.0,0.0,12.041594578792296,12.16552506059644,12.0,32.0,34.0,41.0,{},{}
409,409,9,0,13.646966666666543,13.0,79.00632886041473,10.0,18.0,19.026297590440446,22.02271554554524,17.029386365926403,58.00862004909271,40.01249804748511,33.5,28.0,29.0,11.5,29.5,10.5,1.5,12.16552506059644,12.16552506059644,12.0,32.0,34.0,38.0,{},{}
410,410,9,0,13.68033333333321,10.0,77.00649323271382,11.0,17.029386365926403,20.0,23.0,16.0,54.00925846556311,37.0,32.0,28.0,29.0,12.5,25.5,7.5,2.5,11.04536101718726,11.180339887498947,11.5,32.0,34.0,36.0,{},{}
411,411,9,0,13.713699999999877,9.055385138137416,75.0,10.04987562112089,17.0,19.0,21.0,17.029386365926403,53.009433122794285,36.013886210738214,31.5,30.0,30.0,13.0,23.0,5.0,3.0,11.04536101718726,11.04536101718726,11.0,33.0,34.0,36.0,{},{}
412,412,9,0,13.747066666666544,11.0,74.0,8.0,16.0,20.0,21.02379604162864,17.0,52.0,36.0,30.5,29.0,29.0,12.0,23.0,6.0,4.0,11.04536101718726,11.04536101718726,11.0,33.0,33.0,35.0,{},{}
413,413,9,0,13.780433333333209,11.0,74.00675644831355,8.0,16.0,19.0,21.0,17.0,52.0,36.0,30.5,29.0,30.0,12.5,22.5,5.5,4.5,12.16552506059644,11.04536101718726,11.5,33.0,33.0,36.013886210738214,{},{}
414,414,9,0,13.813799999999874,10.0,72.02777242147643,9.0,16.0,18.0,20.024984394500787,16.0,51.0,35.0,30.0,28.0,30.0,13.0,22.0,5.0,5.0,12.16552506059644,11.04536101718726,11.0,33.0,33.0,37.01351104664349,{},{}
415,415,9,0,13.84716666666654,11.0,72.00694410957877,8.0,16.0,19.0,21.0,16.0,51.0,35.0,29.5,28.0,29.0,12.5,22.5,5.5,4.5,11.180339887498947,10.04987562112089,10.5,33.0,33.0,36.0,{},{}
416,416,9,0,13.880533333333206,11.0,74.02702209328699,8.0,17.0,19.0,21.02379604162864,16.0312195418814,52.009614495783374,35.0142828000232,29.5,27.0,29.0,12.0,24.0,6.0,4.0,12.16552506059644,11.04536101718726,11.0,31.0,31.0,37.0,{},{}
417,417,9,0,13.913899999999872,14.0356688476182,78.00640999302557,9.0,16.0,20.0,21.02379604162864,16.0,55.00909015790027,39.01281840626232,32.0,27.0,28.0,11.5,27.5,9.5,3.5,11.180339887498947,12.041594578792296,12.0,31.0,31.0,36.0,{},{}
418,418,9,0,13.947266666666538,15.0,80.02499609497022,9.0,16.0,21.02379604162864,24.020824298928627,16.0,56.0,40.0,32.5,26.0,28.0,11.0,29.0,12.0,2.0,12.16552506059644,11.04536101718726,11.0,31.0,32.0,38.0,{},{}
419,419,9,0,13.980633333333204,16.0,83.02409288875127,10.0,15.0,21.02379604162864,23.021728866442675,15.033296378372908,56.00892785976178,41.01219330881976,33.0,25.0,27.0,11.0,30.0,13.0,1.0,11.04536101718726,11.180339887498947,11.5,31.0,32.0,36.013886210738214,{},{}
420,420,9,0,14.01399999999987,17.0,82.02438661763951,9.0,17.0,21.02379604162864,23.021728866442675,16.0312195418814,59.00847396772772,42.01190307520001,33.5,26.0,28.0,11.0,32.0,14.0,2.0,11.180339887498947,11.180339887498947,11.0,31.0,33.0,37.0,{},{}
421,421,9,0,14.047366666666536,14.0,77.0,10.0,17.029386365926403,20.0,22.0,17.029386365926403,58.034472514187634,41.01219330881976,34.0,30.0,30.0,13.0,28.0,10.0,4.0,12.041594578792296,12.16552506059644,12.0,31.0,33.0,38.01315561749642,{},{}
422,422,9,0,14.0807333333332,10.04987562112089,74.02702209328699,9.0,17.029386365926403,19.026297590440446,21.02379604162864,18.027756377319943,54.08326913195984,37.05401462729781,32.0,31.0,29.0,12.0,24.0,7.0,4.0,12.041594578792296,11.180339887498947,11.5,30.0,34.0,35.0142828000232,{},{}
423,423,9,0,14.114099999999867,8.06225774829855,72.11102550927978,10.04987562112089,16.0,17.029386365926403,20.024984394500787,18.027756377319943,52.08646657242167,36.12478373637688,32.0,33.0,29.0,13.0,21.0,5.0,4.0,13.038404810405298,12.041594578792296,12.0,29.0,34.0,36.05551275463989,{},{}
424,424,9,0,14.147466666666531,7.071067811865476,72.11102550927978,9.0,16.0312195418814,18.027756377319943,19.026297590440446,18.110770276274835,50.15974481593781,34.132096331752024,30.5,32.0,28.0,12.0,20.0,4.0,4.0,12.041594578792296,12.16552506059644,12.0,30.0,35.0,37.01351104664349,{},{}
425,425,9,0,14.1808333333332,8.0,71.17583859709698,9.055385138137416,15.033296378372908,19.026297590440446,20.024984394500787,17.029386365926403,49.09175083453431,34.058772731852805,30.0,33.0,28.0,13.5,18.5,3.5,5.5,12.041594578792296,12.16552506059644,11.5,30.0,35.0,36.05551275463989,{},{}
426,426,9,0,14.214199999999863,8.06225774829855,71.11258679024411,9.0,15.0,18.027756377319943,20.024984394500787,16.0312195418814,48.04164859785725,33.06055050963308,29.0,31.0,27.0,13.0,19.0,4.0,5.0,12.0,12.16552506059644,12.0,30.0,35.0,36.013886210738214,{},{}
427,427,9,0,14.24756666666653,9.055385138137416,72.11102550927978,8.0,15.033296378372908,18.027756377319943,21.02379604162864,16.0312195418814,48.0936586256442,33.06055050963308,28.5,31.0,27.0,13.0,19.0,4.0,5.0,11.04536101718726,11.180339887498947,11.5,30.0,34.0,36.013886210738214,{},{}
428,428,9,0,14.280933333333197,10.04987562112089,73.06161783043132,8.0,15.0,19.026297590440446,21.02379604162864,16.0312195418814,49.04079934095692,34.058772731852805,29.0,31.0,28.0,13.5,19.5,4.5,6.5,11.04536101718726,11.04536101718726,11.0,30.0,33.0,35.0,{},{}
429,429,9,0,14.314299999999864,11.04536101718726,74.06078584514209,9.0,16.0,20.0,22.02271554554524,16.0312195418814,52.03844732503075,36.05551275463989,30.5,31.0,28.0,13.5,22.5,5.5,5.5,11.04536101718726,10.198039027185567,10.5,29.0,33.0,36.013886210738214,{},{}
430,430,9,0,14.347666666666528,14.0356688476182,78.05767098754612,9.0,15.033296378372908,20.024984394500787,23.0,15.033296378372908,53.08483775994799,38.05259518088089,31.0,30.0,27.0,13.5,24.5,8.5,5.5,11.04536101718726,10.04987562112089,10.5,30.0,34.0,36.013886210738214,{},{}
431,431,9,0,14.381033333333194,17.0,88.0056816347672,10.0,17.0,22.0,24.0,16.0312195418814,60.00833275470999,43.01162633521314,34.5,30.0,29.0,13.5,30.5,12.5,3.5,9.0,9.055385138137416,9.0,31.0,32.0,38.0,{},{}
432,432,9,0,14.41439999999986,19.0,88.0,10.0,14.0,23.0,25.0,16.0,59.0,45.0,35.5,28.0,28.0,12.0,31.0,16.0,3.0,8.0,9.055385138137416,8.5,32.0,32.0,39.01281840626232,{},{}
433,433,9,0,14.447766666666526,16.0,89.0,10.0,17.0,23.0,25.0,16.0,59.0,42.0,34.0,27.0,27.0,11.0,32.0,15.0,2.0,10.04987562112089,9.055385138137416,9.0,31.0,32.0,37.0,{},{}
434,434,9,0,14.481133333333192,14.0356688476182,88.0056816347672,10.0,17.0,22.0,24.0,16.0312195418814,57.0,40.0,33.0,27.0,26.0,10.5,30.5,12.5,1.5,10.04987562112089,10.198039027185567,10.0,31.0,33.0,37.01351104664349,{},{}
435,435,9,0,14.514499999999858,15.0,90.00555538409837,10.0,16.0312195418814,23.0,25.019992006393608,16.0,57.0087712549569,41.0,33.5,27.0,26.0,10.5,30.5,13.5,1.5,12.041594578792296,11.180339887498947,11.5,31.0,33.0,36.05551275463989,{},{}
436,436,9,0,14.547866666666524,14.0,87.00574693662483,10.0,16.0,22.0,23.0,16.0,56.0,40.0,33.0,27.0,26.0,10.5,29.5,13.5,1.5,11.04536101718726,10.04987562112089,10.5,30.0,32.0,36.013886210738214,{},{}
437,437,9,0,14.58123333333319,15.033296378372908,86.00581375697809,10.0,16.0,21.0,23.0,16.0312195418814,57.0,41.0,33.5,28.0,27.0,11.5,29.5,13.5,2.5,11.04536101718726,11.180339887498947,10.5,31.0,32.0,38.01315561749642,{},{}
438,438,9,0,14.614599999999855,16.0312195418814,84.0,10.04987562112089,17.0,21.0,23.021728866442675,16.0312195418814,59.00847396772772,42.01190307520001,34.0,27.0,27.0,11.0,32.0,14.0,2.0,11.04536101718726,10.198039027185567,10.0,31.0,32.0,36.0,{},{}
439,439,9,0,14.64796666666652,19.0,85.0,10.0,16.0,22.0,26.0,16.0,61.0,45.0,35.5,28.0,28.0,12.0,33.0,16.0,3.0,11.04536101718726,11.04536101718726,11.0,31.0,32.0,37.01351104664349,{},{}
440,440,9,0,14.681333333333187,19.0,82.00609733428362,9.0,16.0,22.0,24.020824298928627,16.0,60.0,44.0,34.5,27.0,28.0,11.5,32.5,15.5,2.5,10.04987562112089,10.04987562112089,10.0,30.0,31.0,36.0,{},{}
441,441,9,0,14.714699999999851,15.0,76.02631123499285,10.04987562112089,16.0,20.0,22.02271554554524,16.0312195418814,57.0,41.0,33.5,27.0,29.0,12.0,29.0,11.0,3.0,10.04987562112089,10.04987562112089,10.5,30.0,30.0,37.01351104664349,{},{}
442,442,9,0,14.74806666666652,8.0,75.0066663703967,11.0,16.0,19.026297590440446,21.02379604162864,15.033296378372908,50.00999900019995,34.0147027033899,30.0,27.0,28.0,12.5,22.5,5.5,1.5,9.055385138137416,10.04987562112089,10.0,31.0,29.0,35.0142828000232,{},{}
443,443,9,0,14.781433333333185,6.0,75.05997601918082,11.04536101718726,15.033296378372908,20.024984394500787,22.09072203437452,16.0,48.04164859785725,33.015148038438355,30.0,27.0,30.0,12.5,19.5,2.5,1.5,10.198039027185567,10.04987562112089,10.0,31.0,29.0,35.0142828000232,{},{}
444,444,9,0,14.81479999999985,9.0,74.02702209328699,11.04536101718726,15.0,18.0,21.02379604162864,16.0,51.0098029794274,36.013886210738214,31.5,29.0,31.0,14.0,21.0,4.0,4.0,10.04987562112089,10.0,10.0,31.0,28.0,36.013886210738214,{},{}
445,445,9,0,14.848166666666517,11.04536101718726,76.05918747922567,10.0,18.0,19.026297590440446,21.02379604162864,16.0312195418814,55.03635162326805,37.05401462729781,31.5,29.0,32.0,14.5,24.5,5.5,4.5,10.04987562112089,10.0,10.0,32.0,28.0,35.05709628591621,{},{}
446,446,9,0,14.881533333333184,14.0,79.05694150420949,10.04987562112089,17.0,20.024984394500787,23.08679276123039,16.0,57.0087712549569,40.01249804748511,33.0,28.0,31.0,13.5,27.5,8.5,3.5,9.219544457292889,9.0,9.5,32.0,28.0,36.05551275463989,{},{}
447,447,9,0,14.914899999999848,18.0,81.05553651663777,9.055385138137416,16.0312195418814,21.02379604162864,23.08679276123039,16.0,59.033888572581766,43.01162633521314,34.0,29.0,32.0,14.5,28.5,11.5,5.5,10.198039027185567,9.0,9.0,32.0,28.0,35.05709628591621,{},{}
448,448,9,0,14.948266666666514,17.029386365926403,80.05623023850174,10.0,16.0,21.02379604162864,23.08679276123039,15.0,58.00862004909271,42.01190307520001,33.5,28.0,31.0,14.5,28.5,10.5,4.5,10.198039027185567,10.0,10.0,32.0,28.0,35.0142828000232,{},{}
449,449,9,0,14.98163333333318,15.0,79.02531240052139,10.04987562112089,17.0,20.024984394500787,22.09072203437452,16.0,58.00862004909271,41.01219330881976,33.5,30.0,32.0,15.0,27.0,8.0,5.0,10.04987562112089,10.0,10.0,32.0,28.0,35.05709628591621,{},{}
450,450,9,0,15.014999999999846,12.0,77.00649323271382,11.0,19.0,20.024984394500787,23.021728866442675,17.029386365926403,59.00847396772772,40.01249804748511,34.0,31.0,32.0,14.5,27.5,7.5,3.5,9.055385138137416,10.0,10.0,32.0,28.0,34.0147027033899,{},{}
451,451,9,0,15.048366666666512,10.04987562112089,73.00684899377592,12.0,19.0,19.026297590440446,20.024984394500787,17.0,58.00862004909271,39.01281840626232,34.0,32.0,33.0,15.5,25.5,5.5,3.5,10.04987562112089,10.04987562112089,9.5,32.0,28.0,35.0142828000232,{},{}
452,452,9,0,15.081733333333178,10.0,72.00694410957877,12.0,18.027756377319943,18.027756377319943,19.0,19.026297590440446,59.033888572581766,41.01219330881976,36.0,34.0,35.0,15.5,24.5,5.5,3.5,10.04987562112089,10.0,10.0,32.0,28.0,35.0142828000232,{},{}
453,453,9,0,15.115099999999844,6.0,68.0,14.0356688476182,18.0,17.0,18.0,19.0,57.0087712549569,39.01281840626232,36.0,34.0,34.0,15.0,23.0,4.0,2.0,11.04536101718726,10.0,10.0,32.0,28.0,36.013886210738214,{},{}
454,454,9,0,15.14846666666651,5.0,66.007575322837,13.0,19.0,16.0,17.029386365926403,20.024984394500787,57.0087712549569,38.01315561749642,35.5,36.0,35.0,15.5,21.5,2.5,2.5,11.04536101718726,10.04987562112089,10.0,32.0,30.0,34.0,{},{}
455,455,9,0,15.181833333333175,5.0,66.007575322837,13.0,18.0,16.0,18.027756377319943,21.02379604162864,57.0087712549569,39.01281840626232,36.5,36.0,35.0,14.5,21.5,2.5,1.5,11.04536101718726,10.04987562112089,10.0,32.0,30.0,34.0,{},{}
456,456,9,0,15.21519999999984,9.055385138137416,68.00735254367721,14.0,19.0,17.029386365926403,18.027756377319943,21.02379604162864,63.0,44.0,39.5,38.0,37.0,16.5,25.5,5.5,3.5,11.04536101718726,11.04536101718726,10.5,31.0,30.0,34.0147027033899,{},{}
457,457,9,0,15.248566666666507,19.026297590440446,70.0,12.0,19.0,18.0,20.0,18.0,68.00735254367721,49.01020301937138,39.5,38.0,38.0,20.0,30.0,10.0,8.0,11.04536101718726,11.04536101718726,10.0,32.0,31.0,35.0142828000232,{},{}
458,458,9,0,15.281933333333171,21.02379604162864,74.0,12.0,20.0,18.0,20.024984394500787,18.027756377319943,71.0,51.0,40.5,38.0,38.0,20.0,33.0,12.0,8.0,11.04536101718726,11.04536101718726,10.5,31.0,30.0,34.0147027033899,{},{}
459,459,9,0,15.31529999999984,8.0,71.0,13.0,20.0,17.0,19.0,21.095023109728988,62.03224967708329,42.04759208325728,38.0,37.0,37.0,16.0,25.0,5.0,3.0,10.04987562112089,10.04987562112089,10.0,31.0,30.0,34.0147027033899,{},{}
460,460,9,0,15.348666666666505,1.4142135623730951,73.0,13.0,16.0312195418814,18.0,20.0,22.02271554554524,52.009614495783374,36.0,35.5,34.0,34.0,12.0,18.0,1.0,0.0,10.04987562112089,10.04987562112089,9.5,31.0,29.0,35.0,{},{}
461,461,9,0,15.38203333333317,1.4142135623730951,74.0,14.0,18.0,19.0,20.0,20.09975124224178,51.0098029794274,33.015148038438355,33.5,32.0,32.0,12.0,19.0,0.0,1.0,10.04987562112089,10.04987562112089,9.5,30.0,29.0,35.0142828000232,{},{}
462,462,9,0,15.415399999999837,3.0,77.0,13.0,19.026297590440446,20.024984394500787,22.0,19.0,54.00925846556311,35.0,33.5,33.0,33.0,14.0,21.0,1.0,1.0,11.04536101718726,9.055385138137416,9.5,31.0,30.0,35.0142828000232,{},{}
463,463,9,0,15.448766666666502,15.0,80.00624975587844,10.0,16.0,21.0,23.0,18.027756377319943,59.00847396772772,43.01162633521314,35.5,31.0,32.0,13.5,27.5,10.5,3.5,10.04987562112089,9.055385138137416,9.0,32.0,30.0,35.0142828000232,{},{}
464,464,9,0,15.482133333333168,16.0,82.00609733428362,11.0,16.0,22.0,24.020824298928627,17.029386365926403,60.00833275470999,44.01136216933077,36.0,31.0,32.0,14.5,28.5,11.5,4.5,11.180339887498947,10.04987562112089,10.0,32.0,30.0,35.0142828000232,{},{}
465,465,9,0,15.515499999999834,17.0,83.00602387778854,11.0,15.0,22.0,24.0,17.0,60.0,45.0,36.5,31.0,32.0,14.5,28.5,12.5,4.5,10.04987562112089,10.04987562112089,10.0,31.0,30.0,35.0142828000232,{},{}
466,466,9,0,15.5488666666665,15.0,83.00602387778854,11.0,15.0,21.0,24.020824298928627,17.0,58.0,43.0,35.5,29.0,30.0,12.5,28.5,12.5,2.5,10.04987562112089,11.04536101718726,10.5,31.0,30.0,34.0,{},{}
467,467,9,0,15.582233333333166,14.0356688476182,84.00595217006948,11.04536101718726,16.0,21.02379604162864,23.021728866442675,16.0312195418814,57.0087712549569,41.01219330881976,34.0,28.0,29.0,12.5,28.5,11.5,1.5,10.04987562112089,10.04987562112089,10.0,31.0,30.0,36.013886210738214,{},{}
468,468,9,0,15.615599999999832,15.0,85.0235261559999,10.0,15.0,22.0,23.021728866442675,17.029386365926403,57.0087712549569,42.01190307520001,34.5,27.0,29.0,11.0,29.0,12.0,1.0,10.04987562112089,10.04987562112089,9.5,31.0,30.0,36.05551275463989,{},{}
469,469,9,0,15.648966666666498,15.0,85.0235261559999,10.0,15.0,21.0,24.020824298928627,16.0,56.0,41.0,33.5,26.0,28.0,11.0,29.0,13.0,1.0,10.04987562112089,10.04987562112089,9.5,31.0,30.0,37.05401462729781,{},{}
470,470,9,0,15.682333333333164,14.0,84.02380615040002,10.0,15.0,22.0,24.020824298928627,17.0,56.0,41.0,34.0,26.0,28.0,10.0,29.0,13.0,1.0,10.198039027185567,9.0,9.0,32.0,29.0,35.0142828000232,{},{}
471,471,9,0,15.71569999999983,15.0,84.02380615040002,10.0,15.0,21.02379604162864,24.020824298928627,17.0,57.0,42.0,34.5,27.0,29.0,11.0,29.0,13.0,1.0,10.04987562112089,10.04987562112089,10.0,31.0,29.0,36.05551275463989,{},{}
472,472,9,0,15.749066666666495,16.0,85.0235261559999,10.04987562112089,15.0,21.02379604162864,23.021728866442675,17.0,58.00862004909271,43.01162633521314,35.0,27.0,29.0,11.0,30.0,14.0,1.0,11.04536101718726,11.04536101718726,10.5,31.0,29.0,37.05401462729781,{},{}
473,473,9,0,15.78243333333316,15.0,80.05623023850174,9.0,17.0,19.026297590440446,21.095023109728988,16.0312195418814,57.0087712549569,40.01249804748511,32.5,27.0,30.0,12.5,28.5,10.5,3.5,10.04987562112089,10.04987562112089,10.0,32.0,30.0,36.05551275463989,{},{}
474,474,9,0,15.815799999999829,16.0,77.02596964660685,7.0,16.0,18.027756377319943,20.09975124224178,16.0312195418814,55.00909015790027,39.01281840626232,31.0,28.0,30.0,13.0,26.0,9.0,5.0,11.04536101718726,10.04987562112089,10.0,31.0,29.0,37.05401462729781,{},{}
