,video_id,frame_seq,gap,time_seconds,m1,m3,m4,m5,m6,m7,m8,m9,m10,m11,m12,m13,m14,m15,m16,m17,e1,e2,e3,b1,b2,b3
0,18,0,0,0.0,0.9930236884157808,39.13319765949743,5.661106030364799,7.85054156473796,9.930236884157695,10.625817485677532,8.542312765630841,22.861122112662667,15.010761021846465,14.394562571132155,11.2347805433227,17.554344598941668,5.968477163640131,8.074998515513187,1.0532606759364853,0.35108689197886633,5.111902308583743,5.790273357594184,5.266303379682512,23.171734870603018,11.234780543322671,15.15784874779011
1,18,1,0,0.0333333333333333,1.001402946876825,38.76477242584348,5.8391324105952425,8.614393872409634,10.014029468768484,10.831829017095714,8.614393872409662,23.8871863869682,15.285752577128086,14.516025695954681,12.037679845425828,18.410569175357125,6.726938737149709,8.143136366023327,1.0621482216552067,0.3540494072183833,5.155037181569232,5.007014734384242,4.956691701057707,22.65916206197801,11.329581030989004,16.14713733525378
2,18,2,0,0.0666666666666666,0.9945203708388247,39.192179101510675,5.669638432954716,9.249574121718464,10.068751348671723,10.641832686973654,7.862373878215203,23.587121634645598,14.343176766211778,13.713025915842081,11.251713571973028,17.580802456207834,6.680704933358982,8.790401228103917,1.0548481473724678,0.3516160491241749,5.119606952917039,5.669638432954716,5.274240736862339,22.503427143946027,10.548481473724706,15.358820858751127
3,18,3,0,0.0999999999999999,0.9914850057307508,38.50231311253882,5.652334189442231,8.529076516691251,10.724550081047443,10.609352861952633,8.671952059314336,23.65060658712694,15.13436177594553,14.372258305437981,11.21737233595158,18.22823004592135,6.309771938972801,8.413029251963678,1.4021715419939937,0.0,5.103981454668942,5.652334189442203,5.608686167975804,22.43474467190316,10.516286564954584,15.311944364006804
4,18,4,0,0.1333333333333332,0.9899049489407075,38.44095480564218,5.643326479830998,8.515484354243133,10.022023763370912,10.70745915372376,8.658132206613747,23.612916353477296,15.110243255797927,14.349354293584867,10.499527531891346,17.49921255315226,5.5997480170087215,9.09959052763918,0.6999685021260689,0.6999685021260689,5.095847614513002,5.772088137742503,5.249763765945687,23.098960570160983,11.199496034017443,15.79200921732376
5,18,5,0,0.1666666666666665,0.9933420869230944,39.956560358396516,5.662921181132165,8.545051733155566,9.933420869231178,11.434226098385135,8.008579937006914,23.00825593426654,14.480324809934817,13.69677905117598,10.535983885519954,17.559973142533266,6.321590331311967,8.428787108416032,0.7023989257012886,5.684341886080802e-14,5.113541365218279,5.792129923973927,5.267991942759977,23.179164548143945,10.535983885519983,15.340624095654833
6,18,6,0,0.1999999999999998,1.5706117451909818,38.57442910131499,5.662921181132157,7.8530587259550515,10.74463748543314,10.744637485433072,8.884721725086356,23.850555155023603,16.017159874013856,14.750377439727941,11.2383828112213,18.262372068234612,6.321590331311967,8.428787108416032,0.7023989257012886,5.684341886080802e-14,5.113541365218252,4.96671043461556,4.916792479909304,23.179164548143945,10.535983885519983,16.017159874013892
7,18,7,0,0.2333333333333331,0.9882841555470205,39.753108251636874,4.941420777735087,8.643956054148735,9.882841555470234,10.68992759266024,8.643956054148735,23.050549477729948,14.406593423581215,13.627037348467127,10.48233642189777,17.47056070316296,5.590579425012152,8.385869137518227,0.6988224281265332,0.0,5.762637369432481,5.762637369432494,5.241168210948899,22.362317700048607,9.783513993771265,15.766152609333599
8,18,8,0,0.2666666666666664,1.565177152862596,38.44095480564218,4.949524744703513,7.82588576431327,10.592445515971196,10.707459153723702,8.658132206613747,22.928643330087255,15.110243255797927,13.999370042521804,10.499527531891346,17.49921255315226,5.5997480170087215,8.39962202551311,0.6999685021260689,0.0,5.095847614513002,5.643326479831004,5.249763765945687,22.398992068034886,10.499527531891346,15.287542843539065
9,18,9,0,0.2999999999999997,0.9810288441190781,37.97608146058398,5.5927248968899015,8.439129213463085,9.810288441190725,10.61144940054146,7.909307399803352,22.723050821601106,14.300829993785001,13.526996890215827,10.405382223242924,16.6486115571887,5.896383259837648,8.671151852702451,1.0405382223242725,0.34684607410812873,5.283002006133852,5.720331997513978,5.202691111621448,21.50445659470205,10.405382223242924,14.974755395915784
10,18,10,0,0.333333333333333,0.6973934810625906,38.17871041933705,5.622565996309966,8.484157870963768,9.862633192293288,10.668068905771994,8.626280955115,23.391288460818146,14.908569817889386,14.296566361783533,11.158295697001762,17.434837026565248,5.927844589032162,8.717418513282666,1.0460902215938859,0.34869674053135213,5.077101178203684,4.931316596146639,5.2304511079695715,21.61919791294096,10.460902215939171,15.733914094120735
11,18,11,0,0.3666666666666663,1.5428498379527376,37.66576470739211,5.562824201079958,8.996283186072393,9.68437884044977,10.441343855518046,7.867021430264571,23.821921257468894,14.894695029247224,13.799668466947566,11.039734773558052,16.559602160337107,6.209850810126397,9.65976792686331,0.0,0.6899834233473712,5.023155143750878,4.878919575552402,5.174875675105341,22.769452970463504,11.729718196905452,15.06946543125265
12,18,12,0,0.3999999999999997,2.887884071652271,37.65340157172401,5.646924393157832,8.520913417181799,9.905360646879076,11.293848786315657,7.985957062499235,25.000000000000014,16.485805701843393,14.708710135363816,11.2066362936105,17.510369208766434,6.6539402993312535,10.15601414108454,0.3502073841753486,0.3502073841753486,5.099096481667745,5.646924393157832,5.253110762629916,21.71285781887036,11.2066362936105,15.11987681957912
13,18,13,0,0.433333333333333,2.8917880103148725,37.59324413409349,5.654558095175022,9.224971723572041,9.918751046021496,11.309116190350045,7.841461212401374,25.597296822208808,16.373451707040708,14.728593863640214,11.923147413423038,17.53404031385739,7.013616125542967,10.520424188314394,0.0,0.7013616125543081,5.105989611518267,5.654558095175022,5.260212094157225,22.443571601737432,11.92314741342301,15.82343922118271
14,18,14,0,0.4666666666666663,2.9156946327210833,37.80495182059252,5.7013047393872816,9.301235237673676,10.000750084385555,10.701269904858778,7.906287144194864,25.808911542086566,16.50881222657068,14.850356223403992,12.728876762917707,17.67899550405241,7.425178111701996,10.253817392350413,0.3535799100810664,1.0607397302431423,5.148201200063871,5.000375042192774,4.950118741134702,21.92195442502495,12.021716942755603,15.265482476596858
15,18,15,0,0.4999999999999996,2.899213481851512,38.385205225744144,5.66907774877288,8.554341671564758,10.640780290542367,11.446657065397103,7.766684261975409,24.86055050818142,16.309733798062375,14.766413632627234,11.953763416888705,17.579063848365763,7.031625539346294,9.844275755084823,0.0,0.7031625539346464,5.119100662671256,4.97211010163628,5.273719154509706,21.09487661803891,11.250600862954087,15.1791933580555
16,18,16,0,0.533333333333333,2.1214794604862846,38.506134684764845,6.403604525783766,8.602970514028886,10.000750084385555,11.511727845188856,7.906287144194836,25.001875210963878,16.402449696719295,15.20393613348503,12.021716942755603,16.971835683890305,6.71801829153992,10.253817392350413,0.3535799100810664,0.3535799100810664,5.148201200063898,5.701304739387246,5.303698651215711,21.214794604862874,11.314557122593527,15.95425274737459
17,18,17,0,0.5666666666666663,1.6013636613700544,39.70606951207914,5.773798791734484,7.910152972815302,10.837340235445597,11.547597583468969,8.006818306850244,23.194911033148497,15.309572614623304,14.323032014085555,11.458425611268439,16.471486816198393,6.087288605986373,8.95189500880349,0.3580758003521396,0.3580758003521396,5.213662350511296,5.773798791734484,5.371137005282094,21.484548021128376,11.458425611268467,16.013636613700545
18,18,18,0,0.5999999999999996,0.7139215614635646,39.58242796324971,5.75581964058674,7.981885710176221,10.096375546923044,10.803593618155926,8.139958198291241,22.542292339838905,14.56119989230875,13.921470448538912,11.422744983416521,16.420195913661246,6.068333272440043,8.210097956830566,1.0708823421953184,0.35696078073175386,5.197427419781252,5.755819640586768,5.354411710976478,21.41764684390597,12.136666544880029,15.261899820684027
19,18,19,0,0.633333333333333,0.7105793405683585,39.31372916274476,5.684634724547152,7.1412339916504495,10.049109405739554,11.391453410577231,8.644570775226953,21.506033276879215,14.370577813373776,14.211586811367937,11.369269449094332,15.63274549250471,4.974055383978737,7.816372746252341,0.0,0.7105793405684153,5.72887379427844,5.72887379427844,5.329345054262944,20.606800876483447,12.07984878966272,15.889037089179045
20,18,20,0,0.6666666666666663,0.7206938143846742,41.306507972635075,5.044856700692833,7.242883195477274,10.192149666212211,10.906076401123713,8.767618659913714,21.09799599481293,13.862822310560322,13.693182473309037,11.531101030154957,15.855263916463116,5.044856700692833,7.206938143846855,0.7206938143846742,0.7206938143846742,5.096074833106106,5.096074833106106,5.0448567006928045,20.90012061715592,12.251794844539688,16.00199956341483
21,18,21,0,0.6999999999999996,1.0152153468421181,41.938348144525996,5.025059592817115,6.500549993578675,10.863278600547149,10.863278600547094,8.025982028947428,20.304306936842703,13.808421600088925,13.280514638159445,10.050119185634173,15.075178778451232,4.666126764758701,7.537589389225673,0.3589328280583004,1.0767984841751286,5.226140862270223,5.787617948264495,5.74292524893383,20.81810402738509,12.921581810101088,16.75874248344382
22,18,22,0,0.733333333333333,1.0141966965598648,43.3205663256655,5.020017531161216,6.611753543561528,10.141966965598414,10.85237856653217,8.017928891369394,20.39771195384591,13.79456645831562,13.267189189497515,10.040035062322431,15.060052593483647,4.661444850363978,7.53002629674188,0.3585726807972378,0.3585726807972378,5.22089703899547,5.070983482799211,5.020017531161216,21.514360847833814,12.908616508700305,15.330816796015688
23,18,23,0,0.7666666666666663,1.0009764282585876,42.84366207259356,5.004882141293027,6.409376428881671,10.710915518148422,10.710915518148358,7.113274028282131,19.319104383968945,12.91608723078468,12.386451354017197,9.20136386298418,14.863741624820591,4.954580541606845,7.077972202295541,0.0,0.7077972202295655,5.836645401050045,5.004882141293027,5.308479151721599,20.526119386657,12.740349964131923,15.826826987186688
24,18,24,0,0.7999999999999996,3.573891028377318,43.26622798954,4.34782608695653,5.203663883780113,10.816556997385012,11.63574617619301,7.991463283628361,21.034405790163905,15.870651734291178,13.938175010671586,9.292116673781067,15.010342319184787,4.2886692340527475,8.577338468105609,2.8591128227018885,0.7147782056754863,5.054245162774751,5.762726127021976,5.360836542566005,21.443346170263993,12.151229496482927,15.280212782289679
25,18,25,0,0.8333333333333329,0.7139215614635077,44.02066051864113,4.3426153236423435,6.5820315749330005,10.803593618155876,11.621801018752224,7.981885710176267,19.049803282365914,12.468104056205593,12.136666544880029,8.567058737562377,14.992352790734174,3.926568588049406,6.782254833903551,0.35696078073175386,1.0708823421953184,4.515236409857307,5.048187773461518,4.9974509302447245,21.41764684390597,11.422744983416521,16.969721791951347
26,18,26,0,0.8666666666666663,1.599109863373165,44.327371563036714,5.056829397099853,5.897225790985789,10.939594609510284,11.53134521498423,7.2930630730068335,19.779896620963683,13.885578402693687,12.872586088773971,7.15143671598554,15.018017103569662,3.933290193792061,8.224152223383442,1.0727155073978452,1.7878591789964275,5.20632451586104,5.20632451586104,5.006005701189906,21.454310147956704,10.012011402379812,16.30778479543685
27,18,27,0,0.8999999999999996,0.7169057448120384,44.56940226703361,5.779878895910832,6.609544385983548,10.966549146610472,11.670380004108868,6.801165063796679,19.303277934972453,12.703602163976406,12.187397661805107,6.452151703308573,15.055020641053375,4.301434468872401,7.885963192932763,0.0,2.150717234436229,4.534110042531144,5.069289136282054,5.018340213684468,22.22407808917407,10.036680427368935,16.34796624694225
28,18,28,0,0.9333333333333328,1.0158437362437316,44.65670324172839,5.923335958717116,7.499376511242543,11.151169841057339,12.544744744752903,6.622490928630124,19.540144413291245,12.04106966815731,11.852114909643007,6.464789950714334,15.08450988500013,4.309859967142927,7.901409939762004,0.7183099945237927,2.154929983571435,3.86821770312266,4.542991297516674,4.3098599671428985,22.267609830238314,9.338029928809618,16.58347398189187
29,18,29,0,0.9666666666666662,1.0140402531268038,45.57544100304578,5.22009169713315,6.802388813737756,11.131372557454604,12.377938746384846,6.802388813737756,19.728230656419882,12.92652759565517,11.83107319980428,5.736277915056576,15.774764266405668,4.30220843629246,7.887382133202834,0.0,2.1511042181462017,4.534925875825156,5.22009169713315,4.660725805983532,22.22807692084433,8.604416872584892,16.35090777571616
30,18,30,0,0.9999999999999996,2.006784365234012,45.78921711194833,5.1652773992912175,5.850731548503663,11.54991138745843,12.390979400389659,6.730959385270516,19.52107163051833,13.702825626619347,12.061592080806946,5.676043332144474,15.609119163397253,4.257032499108391,7.804559581698641,0.0,1.4190108330361113,4.487306256847043,5.1652773992912175,4.611785207367376,22.704173328577838,8.514064998216696,16.380204514122855
31,18,31,0,1.0333333333333328,1.012194485942821,46.19090509103984,5.210590029006945,6.115196253933141,11.111111111111107,11.65123350774214,7.472436243744963,19.69232111473183,13.580014062111823,12.525267735571703,5.725836679118487,15.74605086757586,3.578647924449001,7.873025433787973,0.715729584889857,2.1471887546694575,3.85432177197364,3.854321771973619,3.578647924449058,22.903346716473976,8.588755018677745,15.631770087020866
32,18,32,0,1.066666666666666,2.9360266556507595,46.65147613035103,4.50365930241348,6.0841086840878,11.054626015885766,12.436135723392626,6.565155185786354,20.052666318962917,13.990369531677118,12.105548020876881,4.272546360309491,14.241821201031598,2.8483642402063083,9.969274840722164,2.848364240206365,2.848364240206365,3.1845680328904096,3.834727716064858,3.2044097702321324,23.4990049817022,9.257183780670573,15.762807558447134
33,18,33,0,1.0999999999999992,1.6061899766727785,47.05889940718123,5.0792186812186255,6.622490928630096,11.846671917434177,12.54474474475289,6.814486946274962,19.540144413291163,12.949517584669373,11.852114909642921,4.30985996714287,14.36619989047631,2.8732399780952846,9.33802992880959,1.4366199890476423,2.8732399780952846,2.5899035169338944,3.2123799533454807,2.8732399780952846,22.985919824762135,9.338029928809618,14.998753022484987
34,18,34,0,1.1333333333333324,1.414425742149092,46.18592796493964,5.00075016879219,6.52018050564152,11.512591451475126,12.35094181546971,7.616915728926393,19.457995376585465,13.001950438859694,12.022618808267282,4.950490097521822,14.14425742149092,2.4752450487609394,8.840160888431797,1.0608193066117906,3.1824579198354286,2.5498922693273793,2.5498922693273793,2.121638613223638,23.338024745460075,9.900980195043672,16.81025804182169
35,18,35,0,1.1666666666666656,0.7047673127930807,46.026215969806586,4.983457460345903,7.35798676302071,11.623320288513955,12.30823197621699,6.686009786587145,19.17174364095093,11.814052954681312,11.276277004688893,4.228603876758314,13.390578943068022,2.4666855947756403,9.514358722706277,1.0571509691895926,3.171452907568778,1.9933829841383517,2.541074683546318,2.114301938379157,23.25732132217078,9.86674237910276,16.071167409195965
36,18,36,0,1.1999999999999988,0.9882841555470406,45.782203504614614,4.250770881140036,7.295920344942003,11.376004936002387,12.063545508833114,7.526547892766397,18.568173495343203,11.289821839149583,10.831747635961051,3.4941121406325806,13.277626134403818,1.3976448562530095,9.084691565644789,0.6988224281265616,3.4941121406326374,2.519640097054377,2.519640097054385,2.096467284379571,22.362317700048635,9.783513993771294,16.61081948971044
37,18,37,0,1.233333333333332,0.9916068621812444,46.47876202705227,4.265062382757166,7.320449932709426,10.725868160089,12.245441429019369,6.65190105237735,19.073938832244448,11.753783465848123,10.868165016051478,2.804687746077775,11.919922920830686,1.0517579047792083,10.868165016051478,2.454101777818096,3.8564456508569833,1.9832137243624084,2.217300350792474,1.7529298412986236,22.437501968622485,9.816407111272326,16.187811188415168
38,18,38,0,1.2666666666666653,3.581545828477702,45.87154379105345,3.782533975255863,6.0012990518992,11.584259847947841,12.12528542947599,7.33326007585141,20.65817215933739,14.666520151702764,12.29198119977326,3.5119946285066703,12.64318066262399,1.0535983885519613,11.589582274071972,4.5655930170586885,3.863194091357343,2.532535342446943,3.141223490381989,2.809595702805325,23.179164548143973,10.535983885519983,16.21613843337752
39,18,39,0,1.2999999999999985,0.9916068621812042,46.621343350986166,5.104608749141202,6.464485840947253,11.564023823954315,13.098972765537436,6.651901052377403,19.073938832244504,12.640556850186314,11.56933695257095,2.804687746077775,12.621094857350158,1.4023438730388875,10.517579047791799,2.1035158095583597,4.207031619116719,2.5281113700372595,2.5281113700372595,2.1035158095583597,23.1386739051419,9.816407111272326,16.857316657080677
40,18,40,0,1.3333333333333317,0.9849229617232514,45.626496404793656,5.070201265633921,7.94070277963026,10.811744793687277,12.341049338008391,7.271106628902312,19.82119225512211,11.90086942695074,11.491354135483789,4.17867423108504,13.928914103616705,2.0893371155424916,9.750239872531665,0.6964457051808495,3.4822285259041905,2.511070700606174,2.511070700606174,2.0893371155424916,23.67915397614837,9.750239872531665,17.61883756010855
41,18,41,0,1.366666666666665,1.5517402827563627,44.108746381461444,4.388984306309455,6.583476459464164,10.615536819211206,12.119479040489253,7.912353981802723,20.409956824728628,13.827042115623602,12.491268320404743,5.5516748090688,15.267105724939142,2.7758374045344,9.021471564736771,1.3879187022672,2.0818780534007715,2.502106023599914,3.1034805655127506,2.428857728967614,23.594617938542342,9.715430915870371,16.021295724339282
42,18,42,0,1.399999999999998,0.6905754580458847,43.22031481341779,5.027465221414269,7.873771664404986,11.241753989598337,12.060381888350804,7.209819449530335,20.310433543275735,12.449526117807341,11.73978278678004,6.215179122412962,15.883235535055348,4.143452748275308,8.286905496550617,0.6905754580458847,1.3811509160917694,2.4899052235614683,3.088347335567305,2.4170141031605965,23.479565573560052,9.668056412642386,15.286539405473267
43,18,43,0,1.4333333333333311,1.9723347957584667,42.9634100990898,5.076607392832159,7.111354238489013,11.50058931459733,12.356642078350735,7.510427146648584,21.390968825396477,14.375736643246643,12.551861779659191,6.973256544255094,16.73581570621218,4.881279580978571,8.367907853106033,0.0,1.394651308850996,2.5142434027276153,3.7552135733243026,3.1379654449147836,23.709072250467244,9.762559161957114,15.435961371964487
44,18,44,0,1.4666666666666646,1.5532370183662216,42.12108457747866,5.056973353040869,6.589826570860341,9.945569598778649,11.456110194832258,8.786435427813808,21.966088569534488,15.376261998674149,13.892574232943758,8.335544539766289,18.06034650282689,4.8624009815303,7.640915828119091,0.0,0.6946287116471694,3.4731435582359267,2.864027548708047,2.43120049076515,24.312004907651584,10.419430674707826,16.260841238400246
45,18,45,0,1.4999999999999978,1.526797631484354,40.740042186335494,4.8281580416409025,7.12868991916708,10.444902831108015,11.261102912607464,8.636871669777062,21.592179174442638,14.468371313802207,13.314690838350089,8.19365590052314,17.752921117800156,4.779632608638508,7.510851242146202,0.6828046583769378,0.6828046583769378,3.053595262968683,3.053595262968683,2.7312186335076944,23.89816304319254,8.876460558900106,15.763769644350845
46,18,46,0,1.533333333333331,0.6828046583769378,39.413860194126094,4.970892945896696,7.785170916245913,9.776274919812412,10.599978800063603,9.109750373485525,22.040951294449357,14.257379838334197,13.656093167538586,9.559265217277016,19.11853043455403,5.462437267015446,6.828046583769321,1.3656093167538756,0.0,3.0535952629686576,3.053595262968683,2.7312186335076944,23.89816304319254,8.876460558900078,15.984047247886798
47,18,47,0,1.5666666666666642,1.3836606606450346,41.27856554189793,5.5777144411506,7.734898237486274,10.740094908097829,10.582969063229427,8.751038392823075,22.332300208537017,14.659621873479992,13.836606606450147,8.993794294192611,18.679418918707682,5.534642642580081,7.610133633547548,1.3836606606450346,0.6918303303224889,3.4591516516125465,3.7256203473610063,3.113236486451285,24.905891891610196,9.685624624515071,15.314317187440379
48,18,48,0,1.5999999999999974,1.526797631484354,39.91926207648664,5.630551456303739,7.633988157421659,9.776274919812424,10.599978800063603,8.445827184455569,22.697478552889184,15.114525422109867,13.997495496727083,9.559265217277016,18.435725776177094,5.803839596203943,7.852253571334643,1.0242069875654352,0.3414023291884405,3.0535952629686576,3.981401116572155,3.0726209626961634,23.89816304319254,9.559265217277016,15.984047247886798
49,18,49,0,1.6333333333333306,1.3683232646016563,40.66591364379451,4.837753296275649,7.800642799451134,9.961543730359052,10.621044700316387,9.305604264947947,22.28519339378481,14.497125075735651,13.683232646016421,9.578262852211509,18.47236407212219,5.13121224225614,7.183697139158653,1.026242448451228,1.026242448451228,3.0596638348436844,3.0596638348437097,2.736646529203284,23.945657130528787,8.89410121991068,16.015813193018413
50,18,50,0,1.666666666666664,1.37457856297533,40.8518181226991,5.54110333499635,7.836303486862561,9.1695827084829,10.669598872681252,9.348144893124159,23.042135522718635,15.213796786450926,14.433074911240567,9.622049940827026,18.556810600166443,5.154669611157374,7.90382673710792,1.0309339222314975,1.0309339222314406,3.073651107226737,3.073651107226712,2.7491571259505747,24.055124852067564,9.622049940827026,16.73658770399592
51,18,51,0,1.699999999999997,1.526797631484354,40.740042186335536,5.504947147573698,7.785170916245898,10.444902831108061,11.261102912607424,8.63687166977707,22.891783558460197,15.11452542210984,13.997495496727055,8.876460558900106,18.435725776177065,5.462437267015446,8.19365590052314,0.6828046583769378,0.682804658376881,3.053595262968683,3.677015616438957,3.072620962696192,24.580967701569477,9.559265217277016,15.114525422109867
52,18,52,0,1.7333333333333305,0.9636791806145892,41.32037874767621,5.61916694422784,7.769429940784274,9.756508095772968,10.57854651450681,8.619408625422382,22.845498254368234,15.083965094489173,13.969193711768355,8.858513085511674,18.39845025452422,5.451392668007202,8.177089002010746,0.6814240835009286,0.6814240835008718,3.047421144426986,3.669580993202905,3.066408375754037,24.531267006032294,9.539937169012546,15.73189659829652
53,18,53,0,1.7666666666666635,1.5336773928058713,40.426293135132866,4.993291825956268,7.160811848208729,9.150798975458912,10.647742382253098,9.150798975458924,22.34121076513706,15.182631584477862,14.06056831406147,8.230576574084807,18.51879729169076,4.45822897762929,7.887635883497921,0.3429406905868859,1.028822071760544,2.909948254305255,3.6935842757655966,3.0864662152818028,25.37761110342808,9.602339336432237,14.774337103062354
54,18,54,0,1.7999999999999967,1.3600408018360781,39.91320062103547,5.482499746302606,7.753425496928204,9.901246491271948,10.752066611409388,9.24927742842527,22.798438238773485,15.052893255973189,14.28042841927899,8.840265211934621,18.360550824787225,4.760142806426302,8.160244811016582,0.6800204009180106,1.3600408018360781,3.662021931157346,3.0411436850788167,2.7200816036721562,24.480734433049662,9.52028561285266,14.40937395598675
55,18,55,0,1.83333333333333,1.5141438116690162,39.911406314264354,4.929695093370845,7.0696086395682345,9.859390186741674,10.512128112443655,8.565290855382313,22.056663405161057,14.989258996919109,13.54291396241004,7.448602679325546,17.605788151133055,4.401447037783271,8.464321226506286,0.33857284906019913,1.6928642453012799,3.385728490602537,3.6465411828210583,2.708582792482048,24.37724513233809,8.802894075566542,15.216956979763275
56,18,56,0,1.8666666666666631,1.3749033305080047,39.68210159688572,5.668871656697957,7.8381549466608,9.84280993275805,10.672119746637875,8.695652173913057,22.612875867731873,14.808162057327326,13.749033305079934,8.249419983047972,17.87374329660389,4.81216165677796,8.249419983047915,0.6874516652540024,1.3749033305080047,3.437258326269989,3.0743773095067337,2.749806661015981,25.43571161439783,8.936871648301917,15.44855478646948
57,18,57,0,1.8999999999999964,1.3899282381202056,40.96163559279698,5.059415155864453,7.923810098779882,9.950371902099857,11.461641875596348,9.679730088980198,23.101677754937427,15.241753048178085,13.899282381201829,8.33956942872112,18.76403121462249,4.517266773890583,7.99208736919104,1.0424461785901258,1.0424461785901258,3.474820595300457,3.7424963161836726,3.127338535770434,25.713672405223434,9.034533547781223,15.6173761888606
58,18,58,0,1.9333333333333296,1.383528227579916,40.77302520821055,4.891510958423906,7.887324425088097,10.739066951079012,10.739066951079066,9.635159173088928,22.75472855114055,14.901055041681387,13.835282275799443,7.6094052516896795,17.985866958539305,3.804702625844868,8.647051422374602,0.34588205689505,1.729410284474909,3.4588205689498523,3.7252637604203493,3.112938512054882,25.595272210228984,8.301169365479666,15.970614734725318
59,18,59,0,1.9666666666666628,1.371375732499871,39.93506412836787,4.991883016045965,7.818044543868679,9.983766032091985,9.98376603209197,9.550526838083337,22.793320823528003,15.0383089412568,13.713757324999165,7.542566528749546,18.513572388748912,4.114127197499727,8.22825439499951,0.6856878662499639,2.0570635987498918,3.4284393312498196,3.0664893605633554,2.7427514649998557,25.370451051248494,8.22825439499951,16.298614517994096
60,18,60,0,1.999999999999996,1.5234276438715877,40.15611939655914,5.618123556057224,7.767987283647906,9.919842122289781,10.128216276628203,9.489376865798455,22.647380085360478,14.942021878714662,13.966599859046767,7.494273095098265,17.7137364065959,3.7471365475491325,8.516219426248028,1.0219463311497634,2.384541439349448,3.972613264031944,3.6688996115252865,3.0658389934492902,25.208009501694193,8.175570649198107,16.590679607324706
61,18,61,0,2.033333333333329,1.5234276438715877,39.679368489159124,4.817501205098072,7.974383420645923,9.919842122289781,10.772260176286464,10.128216276628203,22.647380085360478,14.675598446101146,13.966599859046767,6.812975540998423,17.7137364065959,2.725190216399369,8.85686820329795,0.0,3.4064877704992114,3.8540009640784576,3.6688996115252865,3.4064877704992114,24.52671194759435,8.175570649198107,16.194257989505783
62,18,62,0,2.0666666666666624,1.533244680281703,39.93506412836793,5.528192312588071,8.02577070687741,9.326363290996547,10.193482958874046,10.193482958874046,23.434078789433787,15.40891833357633,14.742289124374167,7.542566528749546,18.513572388748912,3.4284393312498196,8.913942261249474,0.0,3.4284393312497627,3.4284393312498196,3.69254216600843,3.085595398124809,25.370451051248494,8.22825439499951,15.666129632410936
63,18,63,0,2.099999999999996,1.5357377920848534,39.15378484801343,5.663521139548506,8.038820902933088,9.34152829805679,10.210057934158218,10.859306069076741,23.47218345673053,15.433973797107825,15.109662034355779,7.554831017177889,17.856873313329572,2.4038098691020195,9.271838066536532,0.3434014098717739,3.7774155085890015,2.913857587071766,3.6985463743231106,3.434014098717199,25.41170433050746,7.554831017177889,15.433973797107834
64,18,64,0,2.133333333333329,1.531948736950736,38.58564995007779,4.98766373024846,8.474321691966544,9.318480375461567,9.97532746049696,11.484507896059146,24.70193114895432,16.284838451420878,15.414936812400413,7.536191330506881,18.497924174880552,2.055324908320017,10.276624541600313,0.6851083027734148,4.110649816640148,3.425541513866767,4.333005361312101,3.7680956652534405,25.349007202614047,7.536191330506881,15.652888160596095
65,18,65,0,2.166666666666662,1.9329311107412634,38.300580012474825,5.635414161391226,7.791894412250751,9.295168069965559,9.950371902099922,11.455776778349335,23.996777291567636,16.244098211206182,15.718070003673745,7.517337827844017,17.76825304763122,1.7084858699645338,9.909218045794319,1.025091521978709,4.4420632619077765,3.416971739929079,3.680191192167842,3.4169717399290676,25.28559087547518,8.200732175829785,15.357377920848805
66,18,66,0,2.199999999999996,0.9650918226009766,38.9040951229224,4.968114228795471,7.987556102120047,9.281955931254267,10.144946819903542,11.254807983389972,23.738120118515006,15.754957735350358,15.354516875149102,7.506652694517356,17.74299727795011,1.706057430572173,9.895133097318308,1.023634458343281,4.435749319487513,3.8603672904039867,3.051888310622304,2.729691888915397,24.56722700023866,7.506652694517356,16.22100887304785
67,18,67,0,2.2333333333333285,0.9697090800053678,38.25130519287648,4.991883016045965,8.02577070687741,9.148217164354552,10.193482958874029,11.494223150269928,24.07731212063227,16.051541413754858,15.427976990624074,8.22825439499951,17.827884522498948,2.0570635987498918,9.599630127499381,0.6856878662499071,3.4284393312497627,3.878836320021411,3.9982129629826337,3.085595398124809,25.370451051248523,8.228254394999539,16.298614517994107
68,18,68,0,2.2666666666666617,1.5394821252653144,38.40691663230383,4.868269932955098,7.849849397555199,8.70862600232478,10.024381331238702,11.540983191541581,23.948721506393102,16.11684123690675,15.490740070076129,8.261728037373928,17.90041074764349,2.0654320093434535,9.638682710269563,0.6884773364478178,4.130864018686964,3.442386682239112,3.707563922748543,3.442386682239146,25.473661448569572,8.2617280373739,16.11684123690675
69,18,69,0,2.299999999999995,1.5234276438715877,38.18306598527212,4.9599210611448905,7.767987283647961,8.617808141029156,9.266648589762612,11.236247112114448,23.698972387830235,15.948766841291846,15.329194967246451,8.175570649198107,18.39503396069574,2.384541439349448,9.197516980347928,0.34064877704992114,3.7471365475491325,3.8540009640784576,3.6688996115252865,3.4064877704992114,24.52671194759435,8.175570649198107,15.948766841291908
70,18,70,0,2.333333333333328,1.526940016790197,38.92948470849467,4.971356518866617,7.129354722854036,8.637677122699646,9.288013520144345,11.262153094733428,23.106795355618548,15.985537879919077,15.364537537984006,8.194420020258121,18.43744504558083,2.390039172575314,8.535854187768905,0.3414341675107835,3.072907507596767,3.9817724120235303,3.9817724120235543,3.4143416751075506,25.26612839579596,8.19442002025815,16.231595025779338
71,18,71,0,2.3666666666666614,1.5198691752918687,39.40537466873716,4.948335526823599,7.320659368667107,8.597678402922162,9.896671053647175,10.55187714779278,22.594479646818844,15.274496172058633,14.613682409294142,8.156473902861876,18.352066281439193,3.0586777135732177,7.816620823575931,0.33985307928594466,2.3789715550013284,3.398530792859117,3.0397383505836615,2.7188246342873015,25.149127867157404,7.4767677442900435,16.787503739993117
72,18,72,0,2.3999999999999946,1.5198691752918687,39.40537466873716,4.948335526823599,6.44825880219159,8.407500858523365,9.896671053647161,9.731911154038274,20.850478045897027,14.402715280050755,13.93397625072231,7.4767677442900435,17.67236012286736,3.0586777135732177,7.136914665004099,0.3398530792858878,2.3789715550013852,3.8449986715231517,3.0397383505836615,2.718824634287273,25.828834025729208,8.156473902861848,15.52946364702404
73,18,73,0,2.433333333333328,1.533244680281703,40.41488724010618,4.991883016045965,5.858519697358478,9.326363290996563,9.326363290996547,9.98376603209197,20.62769750068564,14.770168664033699,14.056601258124147,7.542566528749546,17.827884522498948,3.085595398124781,6.514034729374657,0.34284393312498196,3.0855953981248376,3.428439331249797,3.69254216600843,3.0855953981248376,26.05613891749846,8.22825439499951,15.666129632410987
74,18,74,0,2.466666666666661,0.9679131735650346,40.83630152913252,4.982638021807428,6.740735250007881,8.657278609636167,9.96527604361491,10.174604573518744,21.480259226641,14.742814232096489,14.030568356866866,8.213015623531817,17.794867184318946,3.4220898431382807,6.8441796862765045,0.6844179686276561,2.7376718745105677,3.0608102057474897,3.0608102057474897,2.3954628901967965,25.323464839223107,8.213015623531817,16.268429396101098
75,18,75,0,2.4999999999999942,1.5814156020342083,42.197431416217086,5.148716174677578,6.042580530933454,9.6193755688827,10.979170723074576,9.619375568882683,20.619136792812863,14.57993144841098,13.790995868626283,7.779536131019938,17.68076393413628,3.5361527868272447,6.365075016289097,0.7072305573654489,2.8289222294618526,3.5361527868272447,4.123827358562563,2.8289222294617957,25.46030006515619,8.486766688385416,16.810678440157186
76,18,76,0,2.5333333333333274,1.3925874883581173,40.707883455530684,5.741785307414011,7.269520109466198,10.65124616628463,10.809385724548513,8.61267796112106,22.018741521323978,14.754199917451023,13.925874883580946,8.35552493014859,17.407343604476182,4.525909337163796,8.007378058059032,0.3481468720895009,1.7407343604476182,3.113920288584422,3.1139202885843966,2.785174976716206,23.673987302087596,8.355524930148562,16.299818650654217
77,18,77,0,2.5666666666666607,1.3427658241845961,38.10356810308139,5.412862085091427,7.654942971991366,9.775482755634238,10.422665615404648,8.49239673731306,21.868952204967652,14.226348849147563,13.427658241846018,8.056594945107577,17.455955714399806,4.699680384646115,8.056594945107634,0.6713829120922696,1.3427658241845961,3.3569145604614734,3.0025156607403134,2.6855316483692206,24.169784835322815,8.056594945107605,15.339299776947438
78,18,78,0,2.599999999999994,0.9555497043061475,37.52890291080758,5.447471451553087,8.357646538414196,9.674203421132693,10.489307227202742,8.783783783783752,23.29856709400901,14.956718662958531,13.851351351351298,8.783783783783747,17.56756756756755,5.0675675675676075,9.121621621621614,0.337837837837867,1.0135135135134874,3.378378378378386,3.0217134831078054,2.702702702702709,25.0,8.108108108108098,16.06062746487127
79,18,79,0,2.633333333333327,1.5108567415539154,38.347198982872165,4.918993168432793,8.357646538414196,9.674203421132693,10.489307227202742,8.546696378833422,23.29856709400901,14.956718662958531,13.513513513513487,8.10810810810807,17.56756756756755,4.7297297297297405,9.459459459459481,0.0,0.6756756756756772,3.82219881722459,3.0217134831078054,2.702702702702709,24.324324324324323,8.108108108108127,14.8187244590955
80,18,80,0,2.6666666666666603,2.173399540921566,38.34064062669746,5.003541494954672,8.5012989087853,9.348144893124159,11.335065211713701,8.693598163686246,24.357594193566023,15.867305208720193,14.089430270496734,7.560182096364088,17.182232037191113,4.123735688925819,10.996628503802356,0.687289281487665,2.061867844462995,3.4364464074382,3.073651107226737,2.7491571259505747,24.74241413355523,8.247471377851724,15.702717677706433
81,18,81,0,2.699999999999993,1.5368255536133304,39.00631587728295,5.003541494954742,8.5012989087853,9.840484951047872,10.669598872681238,8.693598163686174,23.69902604784502,15.213796786450853,13.745785629752902,7.560182096364088,17.182232037191113,4.123735688925876,10.30933922231469,0.687289281487665,1.37457856297533,2.915921469460426,3.073651107226737,2.405512485206742,25.429703415042866,8.247471377851724,16.08902958333398
82,18,82,0,2.7333333333333267,1.5198691752918687,37.91761381924553,5.479966243511886,8.597678402922108,9.731911154038329,10.74709800365268,8.212920762558687,23.643615608035876,15.04593720511377,13.594123171436422,7.4767677442900435,16.992653964295528,4.7579431100027705,10.19559237857726,5.684341886080802e-14,1.359412317143608,2.883749003642389,3.398530792859083,2.3789715550013852,24.46942170858557,8.156473902861848,15.274496172058623
83,18,83,0,2.76666666666666,0.9719738231535157,38.51887010028397,4.859869115767402,8.693598163686246,10.007082989909415,10.669598872681252,8.934760659339391,23.25639067294698,14.563398773811814,13.40214098900907,6.872892814876423,17.182232037191113,3.780091048182044,9.965694581570858,0.3436446407438325,1.7182232037191056,3.4364464074382,3.073651107226712,2.7491571259505747,24.74241413355523,7.560182096364116,15.44490566517456
84,18,84,0,2.799999999999993,1.5234276438715877,38.66626225294396,4.9599210611448905,8.61780814102921,9.919842122289781,10.576582249980616,8.617808141029156,23.698972387830235,15.081164246801025,13.625951081996845,7.494273095098265,17.032438852496057,4.087785324599054,10.219463311497691,0.6812975540998423,2.043892662299527,3.4064877704992114,3.9726132640319682,3.0658389934493187,25.208009501694193,8.175570649198107,15.565822768813373
85,18,85,0,2.8333333333333264,0.9657216607025539,38.271099813104925,5.505460525094956,8.637677122699593,9.777186630615498,10.79709640337449,8.25112948597691,23.106795355618548,14.469720597710216,13.315932532919533,6.828683350215101,17.07170837553781,4.438644177639844,9.901590857811925,0.34143416751072664,1.7071708375538037,2.897164982107662,3.053880033580394,2.7314733400860405,24.58326006077445,7.51155168523664,15.98553787991912
86,18,86,0,2.86666666666666,0.9657216607025539,38.75541012481539,4.971356518866672,8.446614821050062,9.110599925886332,10.60096732741814,8.63767712269961,22.893918388601783,14.469720597710216,13.315932532919533,6.828683350215101,16.3888400405163,3.4143416751076074,10.243025025322652,5.684341886080802e-14,2.0486050050645304,2.897164982107662,3.6773585256643706,3.0729075075967955,25.26612839579596,7.51155168523664,15.601710902108708
87,18,87,0,2.899999999999993,0.9679131735650748,39.67853776763868,4.982638021807483,8.465782730167447,10.625024110235037,11.287710306889947,8.657278609636185,22.945871574145375,14.502556745119163,13.34615038823921,6.844179686276561,17.11044921569129,3.7642988274520803,9.924060545100986,0.34220898431379965,2.395462890196825,3.4220898431382465,3.6857035580241146,3.079880858824424,25.323464839223107,8.897433592159473,15.637115875933407
88,18,88,0,2.933333333333326,0.9679131735650748,38.18046356958764,4.982638021807428,7.803565483255208,9.799374007301813,10.625024110235092,8.657278609636167,22.29354303566403,14.50255674511909,13.346150388239153,7.528597654904161,17.110449215691233,4.10650781176588,8.897433592159473,0.6844179686276561,1.3688359372553123,2.903739520695204,3.0608102057474897,2.737671874510596,23.954628901967823,7.528597654904189,15.38038093380987
89,18,89,0,2.9666666666666592,0.9635002410196144,37.34728776569183,5.618123556057224,8.427185334085836,9.919842122289781,10.576582249980616,8.617808141029156,23.492420027265524,15.081164246801025,13.966599859046767,8.175570649198107,17.7137364065959,4.769082878698896,9.538165757397792,0.0,1.3625951081996845,3.4064877704992114,3.972613264031944,3.4064877704992114,24.52671194759435,7.494273095098265,15.081164246801087
90,18,90,0,2.9999999999999925,0.9513029883089683,37.699694538892366,4.897131859822519,8.320502943378443,9.63120869857339,11.094003924504586,8.508712596230342,22.552101566547478,14.253680956667976,13.117119482928103,7.399400733959453,17.489492643904157,4.372373160976053,9.0810827189502,0.3363363969981492,1.0090091909944476,3.9223227027636476,4.512426281971409,3.699700366979698,24.888893377863553,7.399400733959425,16.380652974017984
91,18,91,0,3.0333333333333257,1.5012578303701312,37.16939762628437,5.536365323582657,7.858335511225429,9.775482755634238,10.422665615404648,8.492396737313086,23.35409102761098,15.500078154906282,14.099041153938316,8.727977857199875,19.4701044506767,6.042446208830711,8.056594945107577,0.6713829120923265,0.6713829120922696,3.3569145604614734,3.6155076303109217,3.356914560461462,24.841167747415113,7.385212033015307,16.58193471631755
92,18,92,0,3.066666666666659,1.5205718425394084,38.11148841403266,5.607591881119943,7.753425496928204,9.736410419722047,10.556755500872516,8.840265211934597,23.6545465451007,15.918869451825943,14.28042841927899,8.840265211934621,19.040571225705293,5.7801734078034315,8.50025501147553,1.0200306013771296,0.3400102004590053,3.96516624526654,3.662021931157346,3.4001020045902237,25.84077523488574,8.160244811016554,15.91886945182596
93,18,93,0,3.099999999999992,2.1459029831724976,37.8555776554029,4.940239665228663,7.737163237999358,9.880479330457327,10.534613456498606,8.5836119326898,23.399200071970476,15.66656150477648,13.911179182378618,10.178911596862378,19.679229087267316,6.785941064574899,7.4645351710324235,1.3571882129149344,0.6785941064574672,3.9568495908791728,4.552147653509055,4.071564638744974,25.78657604538472,8.14312927748989,16.76003807884975
94,18,94,0,3.1333333333333253,0.9576286299845854,37.7747777578561,5.583886474566879,8.375829711850333,10.358337384785582,11.167772949133813,8.56529085538234,23.349256230518538,14.989258996919089,13.881486811470296,10.157185471807537,19.63722524549459,6.771456981205034,7.448602679325518,1.354291396241024,0.677145698120512,3.948403991542089,3.9484039915420652,3.385728490602503,25.05439083045863,8.125748377446058,16.095569499491283
95,18,95,0,3.1666666666666585,2.145211600700703,38.500422837608475,5.594027450782671,8.391041176174063,9.712858623572668,10.37714930969361,7.940181327992404,24.041687984825142,15.661513939205348,13.90669717852137,10.175632081844924,19.67288869156681,7.462130193352948,8.140505665475871,1.3567509442460164,0.6783754721230366,4.550681009806591,5.1663536762720215,4.748628304860972,25.778267940673743,8.140505665475928,15.49906102881612
96,18,96,0,3.199999999999992,2.4410358649294133,37.94341818960999,6.241830155547346,8.374293919087151,9.693473217518427,10.510200607845753,7.068312355598694,23.993704388864703,15.630255911172465,13.878941501009052,10.155323049518813,20.310646099037598,8.462769207932354,7.78574767129777,1.6925538415864594,1.0155323049518756,4.541598534438906,4.281860161504851,4.0621292198075025,25.04979685547974,7.447236902980478,15.468127232377022
97,18,97,0,3.233333333333325,2.1689473692111165,39.101254767367216,6.323513886160681,8.483884143671458,9.986583651912529,10.647742382253167,7.160811848208675,24.12314145801603,15.640501906946874,14.060568314061527,10.28822071760598,20.57644143521196,8.573517264671636,7.887635883497921,1.714703452934316,1.0288220717605725,5.223516976555697,5.223516976555697,4.458228977629261,25.37761110342808,6.8588138117373205,15.670550929667082
98,18,98,0,3.266666666666658,2.1643196524090595,39.01782741627607,6.310021889132709,7.803565483255208,10.625024110235083,11.287710306889892,6.740735250007884,22.945871574145333,15.15023756686332,13.34615038823921,9.581851560787129,19.848121090201886,8.555224607845616,7.186388670590361,1.711044921569112,1.0266269529414558,4.591215308621248,4.591215308621248,4.106507811765908,25.323464839223107,6.8441796862765045,15.63711587593342
99,18,99,0,3.2999999999999914,2.467704079735918,38.546769977981725,6.310021889132709,8.465782730167447,9.309090815937623,10.625024110235037,7.145533372678584,24.255834606547406,15.801015803768856,14.030568356866837,10.266269529414757,21.21695702745717,8.897433592159473,7.528597654904161,2.0532539058829684,1.3688359372553123,4.591215308621222,4.3286393048180924,4.106507811765908,24.63904687059548,6.159761717648877,14.742814232096448
100,18,100,0,3.3333333333333246,1.5267976314843288,38.26753107943312,6.295147903552793,8.44582718445561,9.941785891793385,11.445891779230129,7.1286899191671065,23.35551274873764,14.912678837690072,13.656093167538614,10.242069875653954,20.48413975130788,8.535058229711638,7.169448912957762,2.389816304319254,1.0242069875654067,4.580392894453012,5.200085353825624,4.438230279450039,25.263772359946415,6.828046583769293,14.97507525597432
101,18,101,0,3.366666666666658,1.532812333808135,39.07920000381665,6.319947156540407,9.145637537318313,10.486049725781296,11.305465164984708,7.156772847079887,24.109534984665824,14.971426193730817,13.70989030058027,10.282417725435181,20.56483545087039,8.568681437862665,7.883186922833687,2.3992308026015507,1.0282417725435096,5.220570691775204,4.990475397910276,4.7984616052031015,24.677802541044457,7.540439665319127,15.661712075325516
102,18,102,0,3.399999999999991,0.9675506592551658,38.66572619679355,6.307658584971487,8.462612024913856,9.961543730359004,10.465660540660155,7.800642799451121,23.401928398353334,14.942315595538574,14.02531346216685,10.946586116813165,19.840687336723846,7.867858771459453,7.183697139158653,2.394565713052856,0.34208081615039987,5.210419759340562,4.980771865179518,4.78913142610574,24.629818762829586,7.5257779553090245,16.26233635116976
103,18,103,0,3.433333333333324,1.532812333808135,38.904455962837886,6.319947156540436,7.815840000763303,9.814787806042828,10.641736604638448,7.815840000763318,23.447520002289977,15.631680001526675,14.395384815609304,10.282417725435181,19.879340935841356,7.540439665319127,7.540439665319184,1.3709890300579843,0.6854945150290064,5.2205706917751815,5.220570691775156,4.798461605203073,24.677802541044485,8.225934180348162,15.404573305291652
104,18,104,0,3.466666666666657,0.9719738231535157,39.00631587728296,6.336494085696234,8.501298908785245,9.840484951047872,11.335065211713701,7.836303486862561,23.508910460587682,15.010624484864142,14.089430270496734,10.309339222314662,19.931389163141716,7.560182096364088,7.560182096364088,2.061867844462938,0.6872892814876082,5.2342392259021615,5.234239225902135,4.811024970413513,24.74241413355523,8.247471377851724,16.33667972364668
105,18,105,0,3.4999999999999907,1.3709890300580128,40.23449894449539,6.207416843668465,7.815840000763318,10.48604972578129,11.15904222976768,8.670895964176808,22.981963986386905,15.174067937309442,14.395384815609276,10.282417725435181,19.879340935841384,6.854945150290149,6.854945150290121,2.056483545087019,0.0,5.2205706917751815,5.2205706917751815,5.141208862717605,23.99230802601548,8.225934180348162,15.404573305291715
106,18,106,0,3.533333333333324,0.6810131204570666,39.481144649803824,5.61577805615191,7.764744241152319,9.915700705938606,10.572166652420673,8.423667084227949,21.98312040599629,14.219971428322811,13.620262409141333,8.853170565941895,19.068367372797866,5.788611523885066,7.150637764799228,1.702532801142695,1.0215196806855715,5.186441407517386,5.186441407517386,5.107598403428,25.197485456911494,8.853170565941866,14.669471557928984
107,18,107,0,3.566666666666657,0.6810131204570666,40.63314875856206,5.61577805615191,7.764744241152319,9.915700705938606,10.572166652420673,9.085848276400611,22.63792507296802,14.873551058907827,14.3012755295984,9.534183686398961,19.068367372797866,5.448104963656505,7.49114432502779,1.3620262409141333,1.3620262409141333,5.186441407517386,5.615778056151938,5.107598403428,25.197485456911494,9.534183686398933,15.722408779671126
108,18,108,0,3.5999999999999903,0.6841616323008566,39.49218944959793,5.515887421105903,7.8006427994510785,10.621044700316387,11.283482699885113,8.654036183076887,22.084754446342643,14.285714285714297,13.68323264601645,9.578262852211509,19.156525704423018,6.157454690707397,6.841616323008225,2.052484896902456,0.6841616323008566,5.210419759340562,4.980771865179533,4.78913142610574,24.629818762829615,8.89410121991068,16.015813193018467
109,18,109,0,3.633333333333324,0.6854945150290632,40.90053446203495,5.652732582492347,7.156772847079871,10.486049725781234,10.486049725781301,8.479098873738494,21.470318541239628,14.313545694159757,13.709890300580241,8.911428695377168,18.508351905783343,5.483956120232108,6.854945150290121,1.3709890300580128,0.6854945150290064,5.2205706917751815,5.65273258249232,5.141208862717576,24.677802541044457,8.225934180348162,15.404573305291715
110,18,110,0,3.6666666666666567,0.6810131204570666,40.63314875856207,5.61577805615191,7.764744241152319,10.572166652420728,11.231556112303876,8.423667084227935,21.983120405996274,14.219971428322795,13.620262409141333,9.534183686398961,19.068367372797923,6.129118084113628,6.810131204570666,2.0430393613712567,0.6810131204570098,5.186441407517386,4.957850352969276,4.426585282970933,24.5164723364544,8.853170565941866,15.722408779671126
111,18,111,0,3.69999999999999,1.367107971991743,40.78475136989642,6.189844605901751,6.970910226374278,10.456365339561435,11.127452705775871,7.793714565610674,21.223222985849986,14.273026258369185,13.671079719917714,9.569755803942371,19.1395116078848,6.835539859958828,6.151985873962985,2.050661957987643,0.0,4.976348133305742,5.510988419975689,5.1266548949691355,24.607943495851856,9.569755803942371,16.001588557716147
112,18,112,0,3.733333333333323,0.6802878498708651,40.435659717919776,5.484655988695003,7.102413666939915,9.740239705972577,10.406403064055374,8.605036280522881,21.307241000819705,14.204827333879788,13.605756997417956,9.524029898192566,18.36777194651424,5.782446723902609,6.4627345737735595,1.7007196246772196,0.3401439249354894,5.180917911292772,5.609797321684074,5.102158874031716,24.49036259535231,8.843742048321673,15.058813490915037
113,18,113,0,3.766666666666656,1.367107971991743,41.44953235395375,5.510988419975662,7.642365894888745,9.78700365857837,11.273461140292047,8.646349997735355,22.065139608559935,14.48424928137861,13.671079719917685,9.5697558039424,19.13951160788477,6.151985873962957,6.835539859958885,2.050661957987643,0.0,5.205792062953522,4.97634813330577,4.784877901971186,23.924389509855985,8.8862018179465,14.484249281378638
114,18,114,0,3.7999999999999896,0.9684350024882824,41.371561441783896,5.64689791279377,7.149385728538397,10.630752356365404,10.475226175277196,7.807772602534969,21.448157185615074,14.298771457076679,13.353345669259085,9.587017403570599,18.489247849743293,6.505476095280045,6.505476095280073,1.7119673934947741,0.3423934786989662,4.98532430060277,4.98532430060277,4.793508701785299,23.967543508926525,8.902230446172695,15.388672925117618
115,18,115,0,3.833333333333323,0.9701425001453292,42.265268734227526,5.530663187549731,7.161991178929168,10.493695586342474,10.49369558634248,8.67721831274625,22.143914314693127,14.982342548323134,14.06288398168573,9.603920767980497,19.207841535960995,6.1739490651303015,6.859943405700392,1.371988681140067,0.0,4.994114182774396,4.994114182774369,4.8019603839902345,24.00980191995123,8.917926427410464,15.415805487340881
116,18,116,0,3.866666666666656,0.6778453815809371,40.29048173677183,5.58965621219083,7.728626460955585,10.369040483640187,11.17931242438159,7.728626460955585,21.230740648063968,13.5059735468519,12.87906225003826,9.48983534213346,18.301825302685955,6.43953112501913,6.43953112501913,2.372458835533365,0.33892269079046855,5.162316626978338,5.162316626978338,4.74491767106673,23.724588355333623,8.13414457897153,15.23268040995973
117,18,117,0,3.899999999999989,0.6802878498708651,41.25147950405659,5.609797321684089,7.756474884163308,10.560907425138945,10.560907425138945,7.756474884163293,21.307241000819705,13.554639382762703,12.925469147547062,8.843742048321673,18.36777194651424,6.12259064883807,6.802878498708992,2.0408635496126806,0.6802878498708935,5.1809179112927985,5.609797321684074,5.102158874031744,23.12978689561055,8.16345419845078,15.705664607952395
118,18,118,0,3.9333333333333225,0.9684350024883227,40.7030823700085,5.5209289532149874,7.149385728538342,10.475226175277202,11.147524026029402,7.807772602534969,21.261504712730755,14.117244781984434,13.353345669259056,9.587017403570599,18.48924784974332,6.505476095280073,6.505476095280017,1.7119673934947741,0.3423934786989662,5.646897912793757,4.98532430060277,4.793508701785299,23.28275655152862,8.902230446172695,14.510375476982025
119,18,119,0,3.966666666666656,0.9574310970608939,41.562876812600564,5.582734669590979,6.904133826353519,10.356200739530317,11.165469339182014,8.236133717699213,21.515587938462243,14.614551420049699,13.878623435637877,9.478084297508786,18.279162573766996,5.754551180630358,7.1085632231315685,1.6925150531265842,0.3385030106252884,5.155924249148457,5.582734669591007,5.077545159379696,23.69521074377201,8.801078276258181,14.34550039599571
120,18,120,0,3.999999999999989,0.9590368434267067,40.82952236468043,4.7951842171336345,7.080004650720176,10.37356954210252,11.039343091149515,8.388146549108265,21.055172844649103,13.980244248513767,13.223758380198149,9.493980375526888,17.631677840264217,5.42513164315821,6.781414553947798,1.3562829107895311,0.6781414553947798,5.164571457966972,5.467351203199018,5.086060915460848,24.413092394212043,9.493980375526917,15.2393338414151
121,18,121,0,4.033333333333323,0.9653840941345058,41.76890222303016,4.969618788600145,6.961483703838341,10.442225555757544,11.258216425893753,8.443662319420307,21.19452355015731,14.253725335059144,13.311277968536217,9.55681495176961,17.748370624714994,5.461037115296961,6.82629639412113,1.3652592788242828,0.6826296394120845,5.198752449100336,4.969618788600118,4.778407475884791,23.89203737942401,8.874185312357497,15.75972901778088
122,18,122,0,4.066666666666656,1.344919662782786,41.146629628464545,5.421544486054822,6.857771604744109,10.286657407116136,10.946852953304056,8.317868741435337,20.87876779747524,14.041373509313,13.449196627827945,9.414437639479559,17.483955616176303,5.379678651131172,6.724598313913987,1.344919662782786,0.672459831391393,5.1213014986843755,4.895581468656417,4.707218819739751,22.19117443591611,8.741977808088166,15.524940767585083
123,18,123,0,4.099999999999989,0.6824229722288351,42.425638496599866,5.5018698954689995,6.959376103837801,10.439064155756743,11.254807983390027,8.44110598754251,21.022615352551927,14.06850997923753,13.648459444577043,8.871498638975083,17.060574305721275,4.776960805601988,7.506652694517356,0.6824229722288919,1.3648459444576702,5.830624430614042,4.825459113005003,4.776960805601959,23.20238105578096,10.236344583432782,15.106076439055075
124,18,124,0,4.133333333333322,0.6788911628847245,42.0803008167386,5.473395538218924,6.9233585743100505,11.05154744487828,11.05154744487828,8.397419918616631,20.913814986267056,13.995699864361015,13.577823257694888,9.504476280386427,16.972279072118624,5.091683721635576,7.128357210289835,1.0183367443271152,1.0183367443271152,4.942402268662386,4.942402268662386,4.752238140193185,23.082299538081344,10.18336744327118,15.027896506533153
125,18,125,0,4.166666666666655,0.6824229722288919,41.75625662302685,4.825459113004995,7.780819024584499,10.326933469470832,10.594053437621728,8.44110598754251,21.188106875243417,13.407484090160425,12.96603647234818,8.871498638975055,17.060574305721275,4.776960805601931,7.506652694517413,0.6824229722288351,0.6824229722288635,4.577832465933506,4.825459113004995,4.776960805601959,23.20238105578096,10.236344583432782,15.10607643905502
126,18,126,0,4.199999999999989,0.6779076806832904,42.68665757932,5.465466451220042,6.913328984437172,10.36999347665569,11.03553751456151,8.385254915624197,20.8835179873845,13.975424859373671,13.558153613666008,9.490707529566208,16.947692017082517,5.0843076051247635,7.118030647174663,1.016861521024964,1.0168615210249357,5.16279108280646,4.935242410161697,4.74535376478309,22.370953462548925,10.168615210249527,15.458673560021062
127,18,127,0,4.233333333333322,0.6824229722288919,43.09542944148871,5.501869895468965,6.959376103837801,11.109041135570628,11.109041135570617,8.44110598754251,21.0226153525519,14.068509979237504,13.648459444577014,9.553921611203918,17.74299727795014,5.459383777830794,6.824229722288521,1.3648459444576986,0.6824229722288635,4.577832465933481,4.316021839729984,4.094537833373124,21.837535111323234,9.553921611203918,15.75495773535041
128,18,128,0,4.266666666666655,1.52226222817517,43.66000930882872,4.813815837076364,6.276447956654189,11.08223630141598,11.227651430654747,8.420738572991036,20.971890207947265,14.695941941632672,13.61552728711959,9.530869100983722,17.700185473255488,5.446210914847825,6.807763643559838,0.6807763643559781,0.6807763643560065,4.956126742536421,4.956126742536421,4.765434550491875,22.465620023747334,9.530869100983722,15.524089612540521
129,18,129,0,4.299999999999988,0.9461792365704765,42.78781108074434,4.730896182852411,6.168333954803084,10.234493259702731,10.891340921691677,8.275688418515891,19.95967286140003,13.79281403085982,13.0464702107395,9.366696561556552,16.726243859922448,5.017873157976737,6.355972666770526,1.0035746315953418,0.33452487719844726,5.095331126020748,4.870755733405561,4.348823403579843,22.747691649494527,10.035746315953475,15.44621302671326
130,18,130,0,4.3333333333333215,0.6656320431263225,42.68876347762439,5.366497097210903,6.949402552391091,10.182212330321084,10.835704613068534,7.5893729773115,20.024353803232735,13.07759467558512,12.647008819399929,8.65321656064205,16.640801078157807,5.325056345010495,6.65632043126314,1.3312640862526166,0.6656320431263225,4.209826679741156,4.209826679741138,3.9937922587578782,21.30022538004198,9.984480646894696,15.178745954623016
131,18,131,0,4.366666666666655,0.9388947077358368,41.80454385787533,4.694473538679269,6.770466022006755,10.807489697816305,11.364117184339836,8.21197481269885,20.451963051641908,13.686624687831435,12.946026885873522,9.29458340524252,16.597470366504524,4.979241109951374,6.97093755393189,0.9958482219902862,0.33194940733008593,4.833256326089185,4.833256326089185,4.647291702621288,21.244762069125812,9.95848221990272,15.780694674207567
132,18,132,0,4.399999999999988,0.9450588595080568,42.52764867786146,4.725294297540135,6.161029989962829,11.438726341792707,11.438726341792707,8.265889121383056,19.936038481376052,13.776481868971747,13.031021799481806,9.355605394499776,15.36992314810675,4.343673933160602,7.016704045874803,0.3341287640892858,0.3341287640892574,4.8649882394788495,4.06485185299421,4.009545169071316,21.384240901713724,10.692120450856862,14.594964718436563
133,18,133,0,4.433333333333321,0.6690797049197386,42.6797337632037,4.73110796503047,6.82330094306945,10.788586070437164,10.788586070437113,8.1397059177377,19.81425068975948,12.991177953860959,12.712514393475232,8.698036163956743,15.388833213154243,4.014478229518488,7.359876754117266,0.6690797049197386,0.6690797049197386,4.231631607479562,4.8709737765031615,4.683557934438284,21.410550557432003,10.705275278716016,15.257364739641671
134,18,134,0,4.466666666666654,0.6735113958671377,42.862002770166036,4.762444752240675,6.868495500307272,10.963971182749713,11.62660934701694,8.193619765018896,19.945491608838804,13.077225827246817,12.796716521475531,9.429159542139871,15.490762104944054,4.377824073136367,7.0718696566049175,0.33675569793356885,1.0102670938007066,4.9032369735954475,4.259660082038915,4.041068375202798,21.552364667748265,10.10267093800698,16.661751751304276
135,18,135,0,4.499999999999988,0.9547436732016851,42.96346529407512,4.7737183660083495,6.224167250688334,10.885752734534268,11.654131745706096,8.213015623531827,19.992706386227802,13.769509074613833,13.164561649509182,9.451480158621962,15.527431689164644,4.3881872165030416,7.088610118966471,0.3375528628079394,1.0126585884237898,4.26974350873358,4.91484386936588,4.38818721650307,21.603383219707354,10.801691609853691,16.04707990660636
136,18,136,0,4.533333333333321,1.5060172647796908,42.86200277016604,5.430022469897175,6.209468256690437,10.963971182749713,12.19781016900287,7.530086323898399,20.092776421464926,13.88479312608691,13.1334722194091,9.429159542139871,15.490762104944082,5.051335469003504,7.0718696566049175,0.33675569793356885,1.0102670938007066,4.259660082038915,4.762444752240675,4.377824073136367,21.552364667748265,11.449693729741256,16.661751751304276
137,18,137,0,4.566666666666654,1.3502114512317291,42.96346529407512,4.7737183660083575,6.884754537306902,11.555948599854393,12.319523435297716,7.54791147238184,20.532539058829546,13.653168349161952,12.827008786701242,9.451480158621962,15.527431689164644,5.06329294211892,7.763715844582322,0.33755286280791097,0.33755286280791097,4.7737183660083575,4.7737183660083495,4.725740079310981,20.928277494091503,11.476797335469541,15.890101584969713
138,18,138,0,4.599999999999987,1.5214163310624549,43.12886584977081,5.4855445929739135,6.1612665499672445,11.646538903554871,12.322533099934489,7.607081655312216,20.693499358454282,14.545249376738386,13.607961353335781,10.886369082668637,15.649155556336154,5.783383575167704,7.144179710501277,0.340199033833386,0.340199033833386,4.1386998716908465,4.1386998716908465,4.082388406000746,21.092340097670444,12.24716521800218,17.34681512021888
139,18,139,0,4.63333333333332,0.9578262852211222,42.33982227712718,5.46044995961578,6.906983568704116,10.920899919231557,12.359299882193232,7.572281660192296,20.72095070611235,13.813967137408238,13.207066498832631,10.159281922178963,15.57756561400771,5.418283691828748,7.450140076264574,0.6772854614785899,2.842170943040401e-14,4.283529368781197,4.789131426105772,4.4023554996109056,20.995849305836487,12.191138306614732,17.267458921760266
140,18,140,0,4.666666666666654,0.0,42.93156491504878,5.46044995961578,6.906983568704076,10.920899919231557,12.266161404299643,8.239533254795495,20.5988331369887,13.697250778863728,13.54570922957194,10.836567383657552,15.57756561400771,5.079640961089467,7.111497345525237,0.3386427307393092,0.3386427307393092,4.930712585976257,4.119766627397756,4.4023554996109056,20.318563844357897,11.513852845136142,15.811388300841891
141,18,141,0,4.699999999999987,0.6758608345763264,42.25076315319314,5.448964250334653,6.892455167955821,10.897928500669309,11.56887398324794,7.556353847212264,20.555504801285416,13.66843948280569,13.179286274238734,9.462051684068854,14.868938360679607,4.731025842034427,8.110330014916144,2.842170943040401e-14,0.6758608345763264,4.920341145576623,4.920341145576635,4.393095424746264,21.62754670644304,11.489634187797861,16.065028641696934
142,18,142,0,4.73333333333332,0.9588384379724199,42.57933663248978,5.4662201180827275,6.91428230599042,11.037059272861717,11.704114719613072,7.580283430276982,20.742846917971242,13.828564611980822,13.221022650275415,9.492016261736183,16.272027877262047,5.4240092924206635,7.458012777078466,0.6780011615525723,0.6780011615526007,4.288055853491904,4.124120060990741,4.0680069693154906,21.01803600813014,10.848018584841356,16.11590363314014
143,18,143,0,4.766666666666653,1.5080366290861895,41.26623131120253,5.437303391448207,6.877705218533764,10.316557827800594,10.978672376807744,7.540183145431042,20.775907087093675,13.903410745086402,13.151082419265975,8.76738827951064,16.860362075981982,5.395315864314256,7.41855931343207,0.6744144830392997,0.6744144830392713,4.524109887258633,4.26537170681826,4.383694139755335,22.930092423335537,10.116217245589212,15.57006740510022
144,18,144,0,4.7999999999999865,0.6837616827558008,42.12771091934329,6.303971232360143,7.79608267302553,10.459542489056023,11.941384418714689,7.138681547018631,21.41604464105587,13.623855012645368,12.991471972359506,8.205140193069184,17.777803751649856,6.153855144801895,7.521378510313355,1.3675233655115449,0.683761682755744,4.324488588515381,4.324488588515363,4.102570096534578,23.24789721369595,8.205140193069155,16.0064506142098
145,18,145,0,4.83333333333332,1.3717627623474868,41.267038104613825,6.210920065605793,7.820250953473408,10.844736846055602,11.497467051505797,7.160811848208675,21.482435544626007,13.666089704417745,13.031746242300926,8.230576574084807,19.20467867286453,6.858813811737349,6.858813811737292,2.057644143521202,0.685881381173715,4.337894738422224,5.223516976555697,4.458228977629261,24.005848341080622,6.8588138117373205,16.056071481976883
146,18,146,0,4.866666666666653,1.3869505459352922,41.24866473016715,6.393526109158629,7.906834641516376,10.097152385406659,10.964806817923906,7.24009440613269,21.929613635847822,14.041804058923494,13.176030186385418,7.628228002644192,19.41730764309429,6.588015093192723,7.281490366160398,1.7336881824191437,1.0402129094514976,4.651973553212662,4.385922727169539,4.160851637805905,24.965109826835544,6.934752729676518,15.844051000346075
147,18,147,0,4.899999999999986,1.5328123338081223,39.92380318328219,6.207416843668437,7.815840000763303,9.980950795820561,10.641736604638448,7.383001875635953,22.328609376158827,14.525368354384453,13.367143043065738,8.225934180348162,19.193846420812378,6.854945150290149,7.540439665319127,2.0564835450870476,0.6854945150290064,4.598437001424379,5.2205706917751815,4.455714347688598,24.677802541044457,6.854945150290121,15.0340684179256
148,18,148,0,4.933333333333319,1.3827344269536752,40.26583430365733,6.374090760964585,7.8827990652558055,10.066458575914323,10.732905401281213,7.8827990652558055,22.519900753042148,14.649808603458538,13.827344269537122,8.987773775199116,20.049649190828802,6.913672134768547,6.913672134768575,2.0741016404305697,0.691367213476866,4.63783226024658,5.265295830673098,4.493886887599558,25.580586898643674,7.605039348245413,15.795887492019295
149,18,149,0,4.966666666666653,1.536571535858005,40.02171578448906,6.335446743660053,7.68285767928994,10.005428946122285,10.667835323428697,7.8350082453711405,22.842778087237683,15.211282138967812,14.087101466525866,8.933283856821276,19.928094757524406,6.871756812939452,7.558932494233375,2.0615270438818527,0.6871756812939509,4.6097146075739515,5.002714473061142,4.810229769057628,24.738324526582034,8.933283856821305,16.086370270979884
150,18,150,0,4.999999999999986,1.55458779001635,40.80607874621112,6.2956007202358,8.457871991658982,10.122742293825313,10.792915365601294,7.258443475823191,22.93214598851259,14.516886951646383,13.557039504324052,9.038026336216035,18.771285467525672,6.952327950935427,8.34279354112249,1.390465590187091,0.6952327950935455,5.2947352231879945,5.061371146912614,4.86662956565479,25.028380623367553,9.733259131309609,14.731718809383285
151,18,151,0,5.033333333333319,0.6813924445416433,40.501315769608674,6.948866742265581,8.28949686017301,9.756055094816402,10.578055345776898,6.948866742265554,22.320153380127874,14.047265106716116,13.62784889083386,9.539494223583688,18.397596002625704,7.154620667687766,7.836013112229466,1.7034811113542219,0.34069622227085006,4.960611873989003,4.818172181847082,4.769747111791844,23.167343114417548,10.220886668125388,16.196513509559843
152,18,152,0,5.066666666666652,0.9627631674152518,40.73864967140706,6.164692172184378,7.611311140875687,9.747234168956776,10.302015770850666,7.76204480627025,22.299972639425956,14.69594194163266,13.955915469297594,10.2116454653397,17.01940910889951,6.126987279203803,8.169316372271794,0.6807763643559497,0.6807763643560065,4.956126742536421,4.956126742536421,4.765434550491875,23.146396388103312,10.892421829695678,16.841477145982036
153,18,153,0,5.099999999999985,0.9611386626644237,40.46496503049482,6.1542902664403565,7.598468303169557,10.396304193202415,11.063536847457895,7.5067329285761835,22.011963994415726,14.417079939966372,13.932367153626984,10.874042656489337,16.311063984734034,6.116648994275266,8.155531992367003,2.842170943040401e-14,0.6796276660305693,4.94776409249791,4.805693313322131,5.097207495229384,21.748085312978702,12.233297988550532,17.32717365533737
154,18,154,0,5.133333333333319,1.5303692599062815,41.20645340183915,5.517824836986002,7.559466498943804,11.035649673972005,11.71507414400923,8.241290680367813,22.750574626549835,15.196189162624924,14.37244072247131,12.319234904975389,15.741244600801906,5.817416482905031,8.555024239566308,0.3422009695826773,0.3422009695826773,4.839452522410078,4.839452522410078,4.790813574157113,20.532058174959047,13.003636844140715,17.91251293979317
155,18,155,0,5.166666666666652,0.9593677930575695,41.430917667779134,5.427003776983952,7.46213019335292,10.198219528243632,10.87518612543116,8.168722407501912,21.750372250862295,14.310346261507858,13.90669717852137,12.210758498213892,14.24588491458286,5.087816040922434,8.479693401537418,0.3391877360615183,0.3391877360615183,4.7968389652879395,5.427003776983952,5.087816040922462,19.67288869156681,15.602635858828847,17.01357028554034
156,18,156,0,5.199999999999985,0.6654698969771857,40.59911802046541,5.9892290727946715,7.9856387637262,10.004206192143318,10.647518351634972,7.985638763726229,21.970587163826078,13.990703385891976,13.9748678365209,13.309397939543715,13.9748678365209,5.656494124306079,8.318373712214793,0.33273494848859286,0.33273494848859286,4.70558276828084,5.323759175817486,4.991024227328893,18.6331571153612,15.971277527452457,15.320267536988311
157,18,157,0,5.233333333333318,0.6792669502632407,40.778652961453,5.434135602105954,7.471936452895704,10.868271204211908,11.567499341637294,8.179457225842643,21.747153364588364,14.280769820153534,13.924972480396491,12.90607205500163,14.264605955528111,5.434135602105954,8.151203403158945,0.6792669502632407,0.0,5.476425232922966,5.434135602105954,5.434135602105954,18.340207657107584,16.30240680631786,15.682095310280486
158,18,158,0,5.266666666666652,0.6836338469644829,41.707267844523464,5.469070775715693,7.550982643290978,10.254507704466903,10.959484286948175,8.232041625486156,21.918968573896414,14.3725785657348,14.014493862771474,12.98904309232475,13.672676939289204,5.12725385223348,8.545423087055724,0.34181692348221304,0.34181692348221304,4.834021290372147,5.4690707757156645,5.127253852233423,18.458113868040442,15.723578480182596,16.46408325097231
159,18,159,0,5.299999999999985,0.691185529004656,41.52293829606902,6.220669761041904,7.634393697711983,10.390796909969458,11.080546959645073,8.32297591900215,22.214922256832814,14.580574707463473,14.514896109097776,13.132525051088464,15.206081638102432,5.875076996539576,7.948633583553544,0.345592764502328,0.345592764502328,4.887419746172034,4.887419746172034,5.18389146753492,20.044380341135025,15.897267167107088,16.031928776723344
160,18,160,0,5.333333333333318,0.6890818588289278,41.488221878093135,6.239901623399638,6.925186974001619,11.046822561214379,11.046822561214439,8.297644375618646,22.14730962976447,15.22231580232012,14.815259964822133,12.403473458920843,15.848882753065539,5.857195800045929,7.924441376532798,0.3445409294144781,0.3445409294144781,4.8725445517057135,5.512654870631508,5.512654870631479,20.67245576486806,15.159800894236582,15.408338784034136
161,18,161,0,5.366666666666651,0.683186985685154,40.45251620947634,5.5080295688768635,6.8659442321042965,10.270552437652187,10.952320555674945,8.907668480563606,21.9578465361265,15.092093798272943,14.688520192230811,12.980552728017926,16.396487656443725,5.8070893783238375,7.173463349694089,0.34159349284260543,0.34159349284260543,4.9736763307142375,5.5080295688768635,5.465495885481232,20.49560957055465,14.346926699388263,15.949160770655425
162,18,162,0,5.399999999999984,0.977460601037206,40.98929488221285,5.52935215468878,6.946162677499857,10.39054871522892,11.08028228952379,9.090909090909093,22.289531126105395,15.346442726312187,14.860133915726067,12.441042348049734,16.588056464066312,5.52935215468878,7.602859212697041,0.6911690193360869,0.0,4.887303005186123,5.572382781526333,5.52935215468878,20.73507058008289,12.441042348049734,15.455009111773798
163,18,163,0,5.433333333333318,0.6796276660305693,40.30484300322991,5.479333416413129,7.598468303169566,10.284632810918781,10.958666832826259,8.183800818871163,21.917333665652553,14.336761320926346,13.932367153626984,12.233297988550532,16.311063984734034,6.116648994275238,7.475904326336433,0.6796276660305693,0.0,4.94776409249791,4.94776409249791,5.097207495229384,21.068457646948133,12.912925654581102,15.333099037604818
164,18,164,0,5.466666666666651,0.9899049489407075,40.814826638041595,6.299716519134819,7.731404806642522,10.59244551597125,11.286652959662003,7.825885764313214,22.573305919324035,14.848574234110446,14.349354293584867,12.599433038269638,16.799244051026193,6.9996850212609445,7.699653523386985,0.6999685021261257,5.684341886080802e-14,5.095847614513017,4.949524744703485,5.249763765945659,21.69902356590879,13.299401540395706,15.79200921732376
165,18,165,0,5.499999999999984,0.6842096734233678,41.3310217503166,5.516274741018424,7.64969670318803,10.353971164736837,10.353971164736894,8.323769928734599,22.16036728461927,14.514278994933063,14.02629830517921,11.631564448197395,16.421032162161026,5.815782224098683,7.868411244368843,0.3421048367116839,0.3421048367116839,5.642137507187889,4.838092998311021,4.7894677139636315,21.210499876124658,12.315774121620763,14.626732201117175
166,18,166,0,5.533333333333317,0.9730085108210507,41.561247311726696,6.230294378866628,6.914524632075141,11.094003924504591,11.094003924504593,7.599439406294443,21.505469236931127,14.595127662315592,14.104428781152507,11.696355574614273,16.51250198769074,6.5361987034609115,7.224219619614701,1.0320313742306553,0.34401045807689457,5.008867875722988,5.547001962252296,5.160156871153362,20.640627484613447,11.696355574614302,15.522459391543919
167,18,167,0,5.56666666666665,0.6918303303225457,41.791362415296774,6.264790091315106,7.6415157610519735,10.469292629566683,11.155428882301152,8.33074035505559,22.310857764602265,14.675937540047205,14.528436936772636,12.452945945805112,17.295758258062648,6.572388138063786,7.264218468386304,1.0377454954837617,0.34591516516127285,4.891979180015722,5.577714441150572,5.18872747741878,21.446740239997666,11.761115615482595,15.608403692583742
168,18,168,0,5.599999999999984,0.6842096734233678,40.73777730431188,5.516274741018452,7.64969670318802,10.353971164736837,11.032549482036904,8.32376992873457,22.16036728461926,14.514278994933063,14.02629830517921,11.631564448197395,17.105241835584394,6.1578870608103955,7.5263064076571595,0.6842096734233678,0.0,4.838092998311049,4.838092998311021,4.7894677139636315,21.210499876124686,11.631564448197395,15.43647383627226
169,18,169,0,5.633333333333317,0.6753520134531641,40.306691981258716,5.444862003291883,7.5506650541132485,10.219930446692526,10.889724006583766,8.216011844388843,21.87348300652969,14.32637965202182,13.844716275790063,10.805632215250796,16.883800336329358,5.74049211435198,7.766548154711501,0.33767600672658205,0.33767600672658205,3.4436330951419163,3.4436330951419163,3.3767600672658773,21.611264430501564,12.156336242157124,15.236635918610961
170,18,170,0,5.66666666666665,0.688852933405002,41.696945753682506,5.553709899782693,7.7016099279686285,10.424236438420637,11.213713319997106,8.380257624403978,22.310754440176478,14.612777413527752,14.12148513480264,11.71049986788509,17.221323335125163,6.199676400645046,7.57738226745505,0.688852933405002,0.0,2.17834424244813,2.4836945726455153,2.066558800215006,22.043293868960177,12.399352801290092,16.213672427270062
171,18,171,0,5.699999999999983,0.9664655553706719,40.68923290718331,6.1883990222378635,7.640581087677161,10.341633052023301,11.019402754384128,7.548337290608622,22.133960304632502,14.496983330559884,14.009584133709211,11.617703915758852,17.084858699645366,6.833943479858135,7.517337827844017,0.6833943479857965,2.842170943040401e-14,2.4640133630251486,3.0562324350708767,2.3918802179503587,21.18522478756026,11.617703915758852,15.4180792559647
172,18,172,0,5.7333333333333165,0.9687303228651507,40.88225603925081,5.47996624351191,7.658485646810503,10.365867122493999,11.045225076792097,8.472929867557065,22.301846837703227,14.64353724969427,14.04241349899928,11.64492826746283,17.809890291413723,6.507459914170397,7.192455694609407,1.0274936706584867,0.34249789021947663,3.063394258724193,3.063394258724193,2.7399831217559267,21.91986497404764,11.644928267462802,14.787026616468774
173,18,173,0,5.76666666666665,0.6842096734233678,40.73777730431182,6.195782108087905,8.238975494252157,10.353971164736837,11.032549482036847,8.323769928734581,22.836618953067905,14.626732201117179,14.368403141890894,12.315774121620763,17.789451509007762,6.842096734233763,7.526306407657131,1.3684193468467356,0.0,3.0598786812751886,3.0598786812751886,2.7368386936934996,21.210499876124686,11.631564448197423,14.770056898267288
174,18,174,0,5.799999999999983,0.687159457292779,40.826756700803244,5.540056658875331,7.682676289442616,10.398609494641205,11.762275251236229,8.359655598321153,22.25590567949339,14.576853360245753,14.086768874501985,12.368870231270023,17.178986432319476,6.528014844281387,7.215174301574223,1.7178986432319334,0.3435797286463753,3.700466926302719,3.700466926302719,3.4357972864638953,21.98910263336893,11.681710773977244,14.833733980426484
175,18,175,0,5.833333333333316,0.0,40.05987747188691,6.195782108087877,8.323769928734581,11.032549482036908,11.8112902515951,7.64969670318802,22.16036728461924,13.837284299215085,13.684193468467527,11.631564448197395,17.105241835584394,6.842096734233735,7.526306407657131,1.3684193468467356,2.842170943040401e-14,3.488798476174727,4.1618849643672995,3.7631532038285798,21.210499876124658,11.631564448197395,15.4364738362722
176,18,176,0,5.866666666666649,0.6825501298154677,40.06168083848875,6.180754301565067,8.218991942940287,10.328857712925245,11.005790145414386,8.303580709383827,22.781228965932204,14.59125521084458,14.333552726125532,11.60335220686352,17.746303375203013,6.484226233247256,7.849326492878248,1.0238251947232584,0.34127506490776227,4.151790354691918,4.151790354691918,4.095300778893005,21.159054024280522,10.920802077048023,14.734232275398634
177,18,177,0,5.899999999999983,0.9563796486642003,40.361034174895245,5.452202862359282,7.560844994026107,10.23370913732649,11.00875648246535,8.227088816589283,22.01751296493063,14.456841785072198,13.863381966664747,10.82020055934808,16.906563373981385,5.7482315471536936,7.777019152031414,1.0143938024389172,0.33813126747961064,4.277059813420973,4.113544408294665,3.719443942275916,21.64040111869619,10.82020055934808,14.59850175683505
178,18,178,0,5.933333333333316,0.6753520134531641,39.63919371593299,6.115572585635076,7.550665054113259,10.21993044669253,11.658383332968018,8.216011844388843,21.987868532437894,14.437377058468494,14.182392282516673,10.805632215250796,16.883800336329358,5.74049211435198,7.766548154711529,1.0130280201797461,0.33767600672661047,4.2713011697854055,4.775459884007264,4.389788087445623,21.611264430501592,10.130280201797632,15.236635918610961
179,18,179,0,5.966666666666649,0.6762625349592781,40.361034174895245,6.123817708549178,8.227088816589312,10.3448275862069,10.904405724718522,8.227088816589283,22.682534982078348,14.456841785072198,14.201513234144358,10.82020055934808,16.906563373981385,5.7482315471536936,8.453281686990692,1.0143938024389172,1.0143938024388603,4.277059813420973,4.113544408294637,4.057575209755527,21.64040111869619,10.14393802438883,14.598501756834997
180,18,180,0,5.999999999999982,0.9665106951644972,40.78858354255212,5.5099587136101915,7.640937949081194,11.01991742722044,11.797766553726824,8.314239373880461,22.25074717059397,14.609984876915172,14.010238466122814,10.934820266242184,17.085656666003445,5.809123266441162,7.859402066361554,1.02513939996021,0.34171313332007003,4.322367230736786,4.9754183223609205,4.442270733160882,21.869640532484397,10.251393999602072,15.584516681806708
181,18,181,0,6.033333333333316,0.9600086017156053,39.84324845844407,6.14705434578921,7.589534386936855,10.384080715116305,11.05052886907471,8.25830625111644,22.76860316081059,15.179068773873738,14.594814733816207,11.540086068598868,17.649543399033575,6.4488716265699395,7.806528811110979,1.01824288840578,0.33941429613526,3.6556038451718824,4.129153125558206,4.41238584975838,21.043686360386147,10.182428884057828,15.671975030147312
182,18,182,0,6.066666666666649,0.6780011615525723,39.79468313863832,6.102010453973264,7.580283430276992,10.260019331865973,10.93244023616551,7.580283430276982,21.28966831624489,13.711724917101478,13.560023231051701,11.526019746393956,17.62803020036722,7.119012196302151,6.44101103474955,1.6950029038814591,1.0170017423288868,4.935922961162642,4.288055853491904,4.068006969315547,21.01803600813014,10.170017423288783,15.958252052995224
183,18,183,0,6.099999999999982,0.6818516412682243,40.69460597442878,6.1744292187548835,8.295083229457424,10.318287663190013,10.994527356009648,7.623333102227751,22.75791576616787,14.464257579118158,13.977958645998598,11.591477901559813,17.72814267297386,7.159442233316355,7.841293874584608,1.0227774619023364,0.34092582063411214,4.147541614728698,4.312408425463299,4.091109847609346,21.137400879314953,10.227774619023364,16.04888158183912
184,18,184,0,6.133333333333315,0.683394347985768,40.1112314830785,6.868028197434462,8.313851066691404,11.124853987249603,11.12485398724966,7.640581087677143,22.921743263031445,14.6093025340207,14.351281307702124,12.301098263744677,18.451647395617016,7.859035001836872,7.175640653851076,1.7084858699645338,0.341697173992884,4.322165359441747,4.975185951049934,4.783760435900717,21.185224787560287,10.250915219787231,16.085192585476314
185,18,185,0,6.166666666666648,0.6927094983730626,39.973599733121375,6.272751296614169,8.42717476217083,11.16960504115668,11.16960504115662,7.74472763510989,23.120314538038027,14.694587510757989,14.20054471664804,13.161480469088417,19.395865954446094,8.658868729663425,6.5807402345442085,2.4244832443057476,1.731773745932685,4.381079543383259,5.043001269504362,4.502611739424992,21.47399444956531,10.39064247559611,16.304445185945383
186,18,186,0,6.1999999999999815,2.17834424244813,39.64945572729134,6.237828615518049,8.294887748474867,10.424236438420637,10.537423648283292,6.237828615518043,22.8985325308425,14.612777413527752,13.43263220139761,13.088205734695094,18.59902920193514,9.643941067670056,6.888529334050077,2.0665588002149775,2.755411733620008,4.190128812201993,4.1901288122019835,4.133117600430012,21.354440935555175,10.332794001075086,16.37384730542235
187,18,187,0,6.233333333333315,4.90420033369179,39.23360266953446,6.280440804377653,7.0729383073093635,10.49544704057245,11.29031703889706,6.242027962051452,24.432566591748664,17.3943627616916,14.911511242678472,13.87117324900322,19.419642548604514,10.40337993675243,7.62914528695174,0.6935586624501866,3.4677933122508193,4.386450128564794,5.049183277299608,4.854910637151136,21.50031853595499,9.709821274302243,15.815570855806083
188,18,188,0,6.266666666666648,4.827586206896541,39.79734633449245,7.033130363576254,7.033130363576266,9.75319698188345,11.2267728248963,6.2450931987154545,25.0659059936362,18.05000321145157,15.51724137931032,13.793103448275843,20.0,10.689655172413808,7.931034482758605,0.3448275862069181,3.1034482758620925,4.361762289887413,5.020765440883098,4.482758620689651,21.379310344827587,9.65517241379311,15.726557587574293
189,18,189,0,6.299999999999981,4.876539322923321,39.62944106196508,7.0012305224120714,7.788766729290981,9.852097211319817,10.656672499880827,6.308420244334629,25.92618270724545,18.16636964746685,15.674590680824963,13.93296949406664,20.89945424109996,11.146375595253318,8.359781696439995,0.6966484747033235,3.483242373516646,4.405991817089464,4.92604860565991,4.87653932292335,22.292751190506607,9.753078645846642,16.083378962903062
190,18,190,0,6.333333333333314,4.876539322923321,38.13792514843351,7.0012305224120714,7.788766729290981,9.974488204806706,10.656672499880827,5.616559563017288,25.23368097733861,17.471854858765706,14.97794220612164,13.93296949406664,20.202805766396636,11.494699832604994,8.01145745908832,0.34832423735167595,3.1349181361649983,4.405991817089446,4.405991817089446,4.179890848219998,21.596102715803283,9.05643017114329,16.559145206747864
191,18,191,0,6.366666666666648,4.92604860565991,38.82526389136235,7.0012305224120714,7.694733905171166,9.294449920277843,10.656672499880772,5.573187797626645,25.166275488934698,17.47185485876571,14.97794220612164,13.93296949406664,20.202805766396636,11.494699832604994,8.01145745908832,0.34832423735167595,3.1349181361649983,4.405991817089446,4.405991817089446,3.83156661086835,22.292751190506635,9.753078645846642,15.215032350119715
192,18,192,0,6.399999999999981,4.147014116016578,37.156361937199414,7.048568633571075,7.634211342462447,9.221344867513826,9.896034343334403,5.572382781526368,24.348384650586482,16.717148344579062,14.514549406058023,13.823380386721936,20.043901560746775,11.404288819045576,7.2572747030289975,1.7279225483402456,3.1102605870124194,4.2042170129205525,4.37133669849406,4.147014116016578,22.80857763809115,9.67636627070533,16.428900039529744
193,18,193,0,6.433333333333314,3.499842510630458,38.44095480564218,7.0345963850694835,8.515484354243133,8.515484354243076,9.899049489407018,6.338484371316917,25.353937485267654,16.857473841053782,15.049322795710935,13.999370042521804,20.99905506378272,11.199496034017443,7.699653523387013,1.3999370042521946,3.499842510630458,4.426989514189733,4.426989514189707,3.8498267616934925,23.098960570160983,9.799559029765277,14.615771417558799
194,18,194,0,6.466666666666647,4.2528482788210225,38.39677032580103,7.130101250556223,7.026510738296727,9.196065988357066,9.88767140697318,5.636839974843139,24.027244968112505,17.01139311528412,14.682442954231675,13.284115053828657,20.275754555843747,11.186623203224116,6.9916395020151185,1.3983279004029896,3.495819751007531,4.421901081034628,4.421901081034628,3.845401726108321,23.072410356649783,9.788295302821126,14.815018492676906
195,18,195,0,6.4999999999999805,2.8524895269256745,37.9940217028641,6.378360487311948,7.6415157610519735,9.099607278892185,9.905502875705002,7.055312708819604,23.88568637274934,16.283752027668505,14.528436936772607,13.144776276127601,20.06307957935266,9.685624624515071,6.918303303225059,1.3836606606450061,2.7673213212900123,3.725620347360985,3.7256203473610063,3.8050668167738024,23.52223123096519,8.993794294192583,15.97214346208928
196,18,196,0,6.533333333333314,0.6926762613460369,38.172684265181225,6.386159585991337,7.744356033850854,9.241453984073974,9.917614764731926,7.744356033850854,22.55190517925876,14.807727178259958,14.199863357593983,11.775496442882826,19.394935317689374,7.965777005479595,6.580424482787407,2.424366914711186,1.0390143920191122,4.380869333967125,4.380869333967125,3.8097194374032597,24.24366914711169,9.004791397498622,15.128277900885655
197,18,197,0,6.566666666666647,0.6929589286752389,39.32809020880352,6.388765649999388,7.7475163506662845,9.425260432141178,9.921661944971751,7.066822198866788,21.347184379031464,13.614482790641107,13.16621964482951,9.701425001453316,19.402850002906632,7.622548215427571,6.23663035807715,2.771835714700927,5.684341886080802e-14,4.040610178208829,3.533411099433366,3.4647946433761945,24.946521432308515,8.315507144102838,15.57231513935931
198,18,198,0,6.59999999999998,0.6941097885315912,40.240412615644935,6.399376053609115,7.760383355023154,9.938139750463844,10.775481615548454,7.078558712596634,21.382637587773388,13.63709359924797,13.18808598210012,8.329317462379038,18.74096429035285,6.594042991050117,7.288152779581594,1.735274471328978,0.34705489426573877,4.656230013013901,4.38993575595527,3.8176038369237233,25.682062175668676,9.023427250910629,14.309439869454327
199,18,199,0,6.633333333333313,0.9781149836858246,39.923389922495424,5.703341417499343,7.732677904963955,9.902659462707296,10.737011922222072,7.732677904963965,20.63335818482431,12.920747144368844,12.79518714827148,8.299580852932849,17.9824251813545,5.533053901955242,6.916317377444045,2.0748952132332192,0.6916317377443875,4.6396067429783745,4.374263186665149,3.8039745575942447,25.59037429654299,8.991212590677264,14.898203574393836
200,18,200,0,6.666666666666647,0.6952327950935455,40.131255479897106,5.605145989114139,7.77293895008175,9.954218757470803,10.792915365601349,7.258443475823218,20.740788052590656,12.988020447373009,12.514190311683763,7.647560746029001,17.38081987733858,5.561862360748307,7.647560746029001,2.0856983852805797,0.6952327950935455,4.053868983909304,4.397038273081452,4.171396770561245,25.7236134184611,9.733259131309609,14.731718809383285
201,18,201,0,6.69999999999998,1.3832634754888318,41.939353259554544,4.890574918429035,8.414063238233378,9.902659462707252,10.737011922222058,7.22084733334205,20.80650828209977,12.46856847087859,11.7577395416549,6.916317377444074,16.599161705865725,4.841422164210826,8.29958085293282,0.6916317377444443,1.383263475488775,4.374263186665131,4.374263186665149,4.1497904264664385,25.59037429654299,10.374476066166096,14.655413772195244
202,18,202,0,6.733333333333313,1.3766610617554988,41.58564724812385,4.86723186081405,7.695769290156006,9.855393373497801,10.529432426242154,7.18638172180493,20.044487619747663,12.409055117735605,11.701619024921968,6.883305308777608,15.831602210188578,4.4741484507054565,7.915801105094317,1.0324957963165957,1.0324957963166526,4.617461574093599,4.353384521213177,3.785817919827707,24.779899111599462,9.636627432288691,15.23684582424614
203,18,203,0,6.766666666666646,1.3766610617554988,41.58564724812385,4.867231860813985,7.695769290156006,10.52943242624221,11.352237936585993,7.019621617494801,19.866416389025463,12.197248082984808,11.70161902492194,6.19497477789983,15.1432716793108,3.7858179198276503,8.604131635972067,0.3441652654388463,1.7208263271944588,4.013622213301562,3.509810808747381,3.441652654388804,24.091568580721685,9.636627432288662,15.033365714810735
204,18,204,0,6.799999999999979,1.3766610617555557,43.07981393431914,5.011121904936867,7.6957692901559955,10.685763410115765,11.352237936585993,6.346093930739577,19.383563742320487,11.762197267672018,11.01328849404419,5.506644247022081,15.1432716793108,4.129983185266553,8.259966370533164,0.6883305308777494,2.064991592633305,2.4818110235471216,3.70677335055914,3.441652654388804,24.091568580721713,9.636627432288691,15.696351113045361
205,18,205,0,6.833333333333313,1.5465355809927828,42.460781460189814,4.890574918429099,7.732677904964021,10.737011922222003,11.4066828349987,6.561394779997688,18.81441736767198,11.173652680795348,10.720291935038261,5.533053901955242,14.524266492632506,3.8039745575942447,7.953764984060683,1.0374476066165812,2.420711082105413,3.458158688722017,3.7245508935984564,3.458158688722051,24.207110821054187,10.374476066166068,14.441694666684045
206,18,206,0,6.866666666666646,1.5361726194614522,43.52007125281511,5.00141569537076,6.333801969221332,10.509037616520773,11.85941181004661,6.333801969221359,19.16217563043005,12.834168337350874,11.678953767785146,5.495978243663586,14.426942889616925,3.778485042518696,8.587466005724366,0.34349864022897236,1.7174932011449187,3.0723452389229298,3.503012538840263,3.0914877620607797,23.357907535570234,9.617961926411255,15.665948325761887
207,18,207,0,6.899999999999979,3.4946110294372468,43.953303715059846,4.846153559399206,6.318611188083318,10.483833088311707,11.830968589038436,5.855629625331968,20.445944265764336,14.128844139945075,11.993618155828756,5.482796871236019,13.706992178090047,4.112097653427043,10.280244133567464,2.7413984356179526,1.3706992178089763,3.064976627726712,3.49461102943723,3.0840732400702393,22.616537093848535,8.909544915758516,14.794664723281397
208,18,208,0,6.933333333333312,0.6880209161537891,43.32347027793456,5.547001962252289,7.016464154456257,11.20016906043158,12.555203546525052,5.673565819872555,18.358687864832394,11.347131639745095,11.008334658460512,6.192188245384045,13.760418323075669,4.472135954999601,7.91224053576849,0.34401045807686614,1.7200522903844444,3.0769230769230607,2.8367829099362774,2.752083664615128,22.016669316921025,8.944271909999173,15.689290811054718
209,18,209,0,6.9666666666666455,0.9692307118798237,44.62673331585385,5.651537655977999,6.989222058874448,11.731295636999622,12.506456763596518,6.318611188083345,18.45360297227958,11.488552923914346,11.30826854692424,6.168146480140507,14.392341786994507,4.112097653427014,7.538845697949512,0.6853496089044882,1.3706992178089763,2.4710631565244023,2.825768827988993,2.7413984356180094,21.24583787603953,9.594894524663005,16.29057423267939
210,18,210,0,6.999999999999979,0.9652716505845912,43.651202045517984,4.96903994999955,6.9606728618690905,11.782642087151972,11.782642087151972,6.292801266165038,17.7200320012499,10.792065137302917,10.579527012140261,6.82550129815499,14.333552726125504,4.436575843800767,6.484226233247284,1.0238251947232584,1.0238251947232584,2.158413027460589,2.460969491124397,2.047650389446517,21.159054024280522,8.873151687601506,15.39903282589465
211,18,211,0,7.033333333333312,0.6983281088887452,44.66025284238953,4.937925412883918,7.1215773082278835,12.0550122357425,12.0550122357425,6.438267045676833,18.63371807065991,11.51712221714411,11.173249742219525,6.983281088887196,14.664890286663137,4.539132707776673,7.332445143331597,1.047492163333061,1.0474921633331178,2.517857803696092,2.2083073782064115,2.0949843266661503,21.648171375550362,9.078265415553375,15.924330968217513
212,18,212,0,7.066666666666645,0.9771105787283287,44.86736015900601,5.570387347352215,7.046044586806615,12.608134530134105,12.608134530134102,5.697484780509372,17.763537090125467,10.725986318706095,10.709283500912704,6.90921516187916,14.509351839946248,5.18191137140937,6.5637544037852535,1.0363822742818627,1.0363822742818911,2.184885675570721,2.184885675570721,2.0727645485637822,21.418567001825437,8.291058194255015,15.755434668593987
213,18,213,0,7.099999999999978,0.6844019391652978,43.50126777355143,4.839452522410078,6.4928068883950445,11.2874459422243,11.814609272900263,5.643722971112178,17.110048479132526,10.624775266061263,10.266029087479524,5.475215513322411,15.056842661636637,4.790813574157113,6.1596174524877085,1.3688038783305956,1.3688038783305956,2.9036715134460303,3.060738519812563,2.737607756661191,21.900862053289643,7.528421330818304,16.26804838013064
214,18,214,0,7.133333333333312,1.390465590187091,45.02404017336511,4.9160382391392075,6.40972966253294,11.466072994256296,12.988020447373009,5.733036497128148,17.380819877338585,10.992595682703643,10.428491926403126,5.561862360748336,15.99035428715149,5.214245963201591,5.9094787582951085,1.7380819877338922,1.0428491926402899,3.1091755800327,3.743943180903489,3.476163975467699,22.2474494429934,6.952327950935455,15.853746953772848
215,18,215,0,7.166666666666645,0.6880209161537891,43.88796926441053,5.673565819872526,6.343239424027185,11.347131639745102,12.015768732164101,5.008867875722972,17.200522903844522,10.878565864408392,10.320313742306695,5.504167329230228,15.824481071536951,5.848177787307122,5.848177787307151,1.7200522903844444,0.34401045807689457,2.4806946917841732,3.0769230769230607,2.7520836646150997,22.704690233074814,6.8802091615378345,13.93136175098067
216,18,216,0,7.199999999999978,1.5449474773134015,44.07299480964862,4.885552893641688,5.903236022030019,11.39496956101873,12.066425533979825,5.697484780509372,17.937365832032604,12.066425533979832,11.054744259006696,5.527372129503334,15.891194872322103,5.181911371409399,6.563754403785197,1.0363822742818911,1.0363822742818627,3.089894954626803,2.848742390254672,2.763686064751653,22.800410034201292,8.291058194255015,14.64036444722618
217,18,217,0,7.233333333333311,0.6927094983730626,42.38567099346454,5.712228859321648,6.386466016239617,10.753743266502244,11.424457718643284,4.898195836919328,17.660696247276896,11.276493649229513,10.73699722478267,6.927094983730768,15.239608964207633,6.234385485357677,6.234385485357677,1.3854189967461537,0.6927094983730626,2.4975996153850715,2.856114429660831,2.7708379934923073,22.166703947938373,8.312513980476893,14.678251110475985
218,18,218,0,7.266666666666644,1.3823380386721738,41.48165904433737,5.699525743754606,7.048568633571075,10.572852950356605,11.399051487509212,4.887303005186086,18.978851873089546,11.931427188749288,11.058704309377532,7.602859212697069,15.20571842539411,6.566105683692911,7.2572747030289975,1.0367535290041303,0.34558450966804344,3.7220590787103887,3.524284316785524,3.4558450966804344,22.117408618755093,10.367535290041445,14.248814359386541
219,18,219,0,7.299999999999978,0.698634804181296,40.212487157465134,6.441094636561542,7.716673631354311,10.002928114844849,10.572263003798035,4.940094076095277,18.378212318190684,10.687057498186457,10.828839464810045,9.08225245435679,14.671330887807102,6.986348041812903,6.287713237631664,2.0959044125438595,0.0,3.7622635605164207,4.249629609236198,3.8424914229971137,22.356313733801358,11.876791671081975,15.08145267405827
220,18,220,0,7.333333333333311,1.5421158465515485,37.647845693672224,6.245093198715483,7.617490356680888,10.436376517532128,11.22677282489636,4.827586206896541,20.10673067188035,12.490186397430904,11.724137931034477,10.34482758620689,15.862068965517238,8.275862068965523,6.896551724137936,2.0689655172413666,1.3793103448275872,2.8435211211155993,3.7139067635410425,3.1034482758620925,21.379310344827587,11.034482758620697,13.39068126823969
221,18,221,0,7.366666666666644,5.521576303742336,38.87225011841086,5.564546417208537,7.716637473824884,9.760860118037865,11.129092834417074,5.564546417208516,24.31414385627043,16.6221458213829,13.803940759355811,11.73334964545245,15.874531873259201,8.282364455613504,10.352955569516837,2.07059111390339,2.0705911139033617,2.8457552900296594,2.8457552900296594,2.760788151871168,22.776502252937092,13.113743721388005,15.433274947649833
222,18,222,0,7.399999999999977,5.5363653235826575,39.598076504235046,6.2667400338087225,8.333333333333366,11.094335995801602,12.476030658673789,4.844319658134822,24.952061317347606,16.62350733655752,13.84091330895663,13.14886764350885,16.609095970747973,10.034662148993618,10.034662148993561,1.0380684981716968,3.806251159963125,2.188440547662051,2.188440547662051,1.7301141636195894,21.453415628882823,13.148867643508822,15.474611514754326
223,18,223,0,7.4333333333333105,5.544246926399876,37.978324919865884,6.227199971382835,8.939829548169598,11.08849385279981,12.39731301147441,4.813754372091324,25.481274987955796,16.56150815731787,13.753583920260894,13.753583920260951,17.191979900326146,10.659027538202196,9.971348342189174,0.3438395980065252,3.7822355780717203,2.835373961701638,2.835373961701638,2.4068771860456764,20.630375880391398,13.753583920260922,15.376974289975768
224,18,224,0,7.466666666666644,7.595664983973167,37.97832491986589,5.501433568104403,8.939829548169598,10.338085166905326,12.397313011474466,5.544246926399876,27.54153033716819,18.618207807658788,14.78510271428047,14.441263116273944,17.879659096339196,10.659027538202224,11.346706734215275,1.719197990032626,4.469914774084771,2.83537396170161,2.83537396170161,2.750716784052173,20.630375880391398,14.441263116273973,14.587878683452116
225,18,225,0,7.499999999999977,4.816146413076467,37.94109417529938,6.230294378866655,10.343222347059456,11.029814356267654,11.777021051695124,5.547001962252296,26.912085668516788,16.56973786810618,14.104428781152535,14.448439239229401,17.200522903844558,10.320313742306723,11.008334658460512,0.0,4.128125496922678,2.8367829099362774,2.8367829099362774,2.752083664615128,19.952606568459686,13.76041832307564,16.64100588675689
226,18,226,0,7.53333333333331,6.813983960885637,37.38941155400184,5.424133963660438,8.840256795509136,10.192826683963286,11.546209120964747,6.139702760224656,27.19683973842288,18.356606884704703,14.916368400066233,14.238351654608664,16.950418636438883,9.492234436405795,11.526284672778445,2.03405023637265,4.068100472745357,2.144077207380469,2.712066981830219,2.712066981830219,20.3405023637267,14.238351654608692,16.39903727862401
227,18,227,0,7.566666666666643,6.023875085937732,38.20401334423034,5.396225954042657,8.726857988641187,10.062077723688645,11.398099584279038,6.726577263426999,26.84797100663647,18.121136652671794,15.05968771484433,14.055708533854698,16.063666895833904,8.36649317491353,11.713090444878844,2.342618088975769,3.0119375429688944,2.759674806094204,2.7596748060942176,2.6772778159723316,19.410264165799305,14.05570853385467,14.86130364491425
228,18,228,0,7.599999999999976,8.14924450170202,39.34519455440695,4.737305440625107,8.14924450170202,10.849254793658556,12.200426909791622,6.801332922505889,27.821253876525212,19.672597277203508,15.56543216205381,13.535158401785907,16.24219008214311,8.121095041071555,12.858400481696663,4.060547520535806,3.3837896004464483,2.7903443875015044,3.4508018405137846,3.3837896004464767,19.625979682589588,14.211916321875208,15.026464395358325
229,18,229,0,7.63333333333331,8.254447035965255,41.220968840720616,4.7984616052031015,8.254447035965192,11.673550948152405,12.357928114932127,6.889134615002156,28.180411883574685,19.926560339505656,15.766373845667317,13.709890300580298,16.451868360696324,8.22593418034819,13.024395785551235,4.112967090174095,3.4274725751450887,2.8263662912461873,2.8263662912461736,2.741978060116054,19.879340935841384,14.395384815609276,15.220448283690189
230,18,230,0,7.666666666666643,8.837200818100996,39.52116352018131,4.80680355783581,7.508467185946786,10.897777419282429,12.311424146302745,6.831751466214107,27.945682725502586,20.438809085186502,15.974939940413407,14.275478244624736,16.99461695788662,8.837200818101053,12.23612420967828,4.078708069892741,4.078708069892798,2.8028240313711796,2.8028240313711796,2.3792463741041274,20.393540349463905,14.955262922940193,15.694047990528789
231,18,231,0,7.699999999999976,7.528421330818276,39.106848975569186,5.475215513322439,8.241290680367841,11.654945051635169,12.338231423437392,6.878154363465189,28.09384512934251,19.85945276357265,16.083445570384583,14.37244072247131,17.1100484791325,8.897225209148928,12.319234904975417,3.422009695826489,3.422009695826489,2.1642689627983396,2.7376077566612196,2.7376077566612196,19.84765623579375,14.372440722471339,15.87458458389618
232,18,232,0,7.733333333333309,8.889525315703793,39.75516578723804,4.835264332510535,7.552924337182645,11.644858554677258,13.010365699564195,7.552924337182622,28.79317697163172,21.242169768865207,16.753336171903328,14.360002433060032,17.09524099173811,8.205715676034345,12.992383153720937,4.786667477686649,3.419048198347639,2.8194193721730043,2.735238558678077,2.735238558678077,19.830479550416214,14.360002433060032,15.860846299553863
233,18,233,0,7.766666666666643,8.282712768772827,40.04279504825188,5.502734850987508,8.282712768772827,11.71352473083934,13.141200214342264,6.9127251035539565,28.96296154676563,20.681060976624224,16.508204552962525,14.44467898384221,17.883888265709402,9.28586506104142,12.725074342908613,3.783130210053912,3.783130210053912,2.836044627548619,3.4392092818671927,3.0952883536804734,20.635255691203184,14.444678983842238,15.9543728684659
234,18,234,0,7.799999999999976,8.246108175527354,40.004013587183124,5.540187460954431,8.359852971813936,11.016264210665137,13.128472957318964,6.871756812939481,28.934910908334757,20.626720187237257,16.492216351054736,14.430689307172855,17.86656771364258,9.27687169746821,12.712750103938049,3.7794662471167157,3.779466247116659,2.833297917330744,2.833297917330703,2.7487027251758036,21.302446120112307,15.117864988466806,16.62056238286336
235,18,235,0,7.833333333333309,8.219949365267894,39.94177443911756,5.522612538396052,8.333333333333304,11.725239069257048,13.08682600996184,6.884122394404459,28.90000363685461,20.595489170548365,16.43989873053573,14.384911389218757,18.494886071852704,9.589940926145857,12.329924047901784,3.424978902194937,3.424978902194937,2.8243099558523457,2.82430995585236,2.7399831217559267,21.23486919360863,13.699915608779776,16.666666666666668
236,18,236,0,7.866666666666642,8.959463173481694,40.2325847354156,4.858951120081914,7.68267628944256,11.762275251236174,13.128162998211904,7.589924282173219,29.064489436892163,21.401459673454536,16.83540670367313,14.430348603148389,19.92762426149062,9.620232402098935,11.681710773977215,3.435797286463867,4.122956743756674,3.503839481685714,3.503839481685714,3.0922175578174915,21.30194317607615,13.743189145855581,16.041899054104068
237,18,237,0,7.899999999999975,8.876237823829241,39.85886023125821,5.4885945183875045,7.611311140875687,10.977189036775002,13.094994828495569,6.841717787576482,28.794506487130835,21.202659373714738,16.679020926721506,13.61552728711959,19.061738201967415,9.530869100983693,12.253974558407663,4.084658186135869,4.084658186135869,2.8069128576636784,2.8069128576636646,2.7231054574239124,21.784843659391356,12.934750922763612,16.68943772023832
238,18,238,0,7.933333333333309,8.81401510018361,39.12483821016971,5.466220118082755,8.248240121981434,11.704114719613072,13.04161273672323,6.91428230599042,29.350481557802592,21.116226173600623,16.611028458038362,13.560023231051701,19.662033685024966,9.831016842512497,12.543021488722786,3.0510052269866037,3.729006388539233,3.032113372110813,3.6511479943892806,3.051005226986632,23.052039492787884,12.8820220694991,15.460805251818565
239,18,239,0,7.966666666666642,8.88798529071021,39.33697712733815,4.820186795498135,8.29296293255571,10.991717057228634,12.439444398833615,6.951772259393153,28.92112077298868,20.63130043455375,16.019417817508128,12.951869724793795,19.086965910222403,9.202644278142998,12.611031047825463,3.749225446650769,3.7492254466508825,3.0485538042484666,3.475886129696596,3.0675480927143326,22.49535267990501,12.951869724793795,16.863766397230826
240,18,240,0,7.999999999999975,8.876237823829245,39.284984485486724,5.488594518387526,7.611311140875631,11.08223630141597,12.423002881851637,6.942583932487796,28.882895022458214,21.279026287065744,16.679020926721535,12.934750922763612,19.061738201967444,9.190480918805719,12.59436274058561,3.744270003957922,3.0634936396019157,3.044524456350289,3.666092918858816,3.063493639601944,23.146396388103312,12.93475092276364,16.181869450720086
241,18,241,0,8.033333333333308,8.056425895488017,38.60828694657368,4.730896182852411,7.480203655804975,10.124559961480198,12.209012330852026,7.48020365580503,27.723213095078453,20.249119922960425,16.057194105525554,12.711945333541081,18.73339312311313,8.363121929961238,11.708370701945682,3.010723894785997,3.0107238947860537,2.992081462322015,2.99208146232199,2.6761990175876065,22.747691649494527,12.042895579144158,15.256681762639177
242,18,242,0,8.066666666666642,7.518329475646064,38.91561705758029,5.4215444860548505,8.180826931036448,10.286657407116191,11.608456529651729,6.857771604744082,27.96980244771949,19.789065837150176,15.80280603769782,11.431817133653766,18.156415447567696,8.069517976696773,12.776736796436523,3.362299156956965,2.017379494174179,2.424588402771536,3.428885802372027,3.0260692412612684,22.863634267307503,12.104276965045159,15.17138531713523
243,18,243,0,8.099999999999975,6.8372829297613125,38.15946030823768,4.810695482006481,8.276633459382365,10.970073532438331,11.74440439029407,7.757013384902223,27.62696595464823,19.350719850001976,15.647706828731089,10.885361272160765,18.369047146771265,7.143518334855514,12.586198970935868,3.7418429373052504,1.7008376987751035,3.0425509705243794,3.6637165272365686,2.7213403180402054,22.45105762383156,10.885361272160765,15.349059013166817
244,18,244,0,8.133333333333308,6.837282929761363,38.96366372597894,4.810695482006424,8.415280180898764,10.295337919385359,11.881541365733748,7.606377426310935,27.62696595464823,19.242781928025707,15.647706828731032,10.205026192650678,18.369047146771265,6.803350795100471,12.926366510690912,3.401675397550207,1.360670159020117,3.0425509705244047,3.6637165272365473,3.0615078577952204,23.131392703341618,10.885361272160765,15.059858963544482
245,18,245,0,8.166666666666641,6.150881945928017,38.23768446254457,4.80303186214146,8.263448469222016,10.390546593983002,11.862613620924805,7.744656169174962,26.91412664677461,18.65160194826948,15.283153799888737,10.188769199925844,18.339784559866473,6.7925127999505435,12.226523039910944,2.7170051199802288,1.3585025599901428,3.037704071745369,3.657880088230397,3.0566307599777076,23.09454351983186,10.868020479920887,15.035868038583924
246,18,246,0,8.199999999999974,6.110557993568175,38.64656206844794,5.440397374440769,8.209274953077438,9.661640517111978,11.78484469758681,7.045100503195963,26.73768301312134,18.52932577470465,15.182960498968214,9.447175421580198,17.544754354363192,6.747982443985848,12.821166643573122,3.373991221992924,0.6747982443985734,3.3739912219928896,3.633899757651398,3.0365920997936087,22.943140309551893,10.121973665978771,15.387767503266149
247,18,247,0,8.233333333333308,6.0803160660099795,38.60156932292994,4.888292264421056,8.168646208747123,10.271341239420872,11.073978630336041,7.655805743813986,26.732148337423144,18.57162674910861,15.10781809920499,9.40042015061644,18.129381719045995,6.378856530775465,12.421983770457416,3.021563619841004,1.0071878732803157,3.002854067691016,2.7684946575840175,2.350105037654089,23.50105037654106,10.743337314990185,15.311611487627959
248,18,248,0,8.26666666666664,6.051194177103379,38.416685741017595,4.7251887927832765,7.619137991358111,10.222146287176754,11.670355422068898,7.6191379913581265,25.949848926029173,18.34931414636168,15.035458669936872,9.355396505738497,18.042550403924224,6.3483047717510885,11.694245632173136,3.0070917339873517,1.0023639113290983,2.4093829859811935,2.4093829859811935,2.33884912643461,22.052006049240703,10.023639113291239,15.883945452567069
249,18,249,0,8.299999999999974,6.120040380458151,38.85376359397304,4.778948645631683,7.556181270586479,10.338446630780483,11.803132463937924,7.910567579622928,26.24508793570239,18.692960102965053,15.206521474207818,9.46183558395154,18.24782576904937,6.420531289109988,11.82729447993944,3.0413042948415523,1.0137680982805364,2.43679523985336,2.786581966061419,2.365458895987871,22.97874356102517,10.813526381658903,14.960475645658121
250,18,250,0,8.333333333333307,6.120040380458213,38.195730233450256,4.778948645631618,7.556181270586423,10.338446630780439,11.80313246393798,8.548843226090339,26.90679653907967,19.353266974451298,15.882366873061471,10.137680982805193,18.92367116790308,6.420531289109988,11.827294479939383,3.0413042948415523,1.0137680982805364,3.0224725082345802,2.7865819660614326,2.703381595414726,23.65458895987885,10.813526381658903,15.411646298785854
251,18,251,0,8.36666666666664,4.80303186214146,38.38821525665781,5.476298895181803,8.401874321266847,10.390546593982947,11.862613620924805,7.744656169174962,26.377348435227155,17.98413170725288,15.283153799888737,9.509517919930772,18.339784559866473,6.452887159952979,11.886897399913494,2.3773794799827215,0.3396256399975073,2.449075318946698,3.0377040717453436,2.7170051199802288,22.415292239836788,9.509517919930744,15.489312338349869
252,18,252,0,8.399999999999974,4.92867823040914,38.261323370655745,4.78715548530447,8.236133717699213,10.356200739530268,11.823401862701395,8.374102004386469,26.290158357014263,18.06477380983332,15.232635478139144,10.15509031875942,18.9561685950176,6.431557201880992,11.17059935063537,1.6925150531265558,1.0155090318759221,3.027662969386168,2.7913673347954897,2.708024085002478,22.34119870127077,9.478084297508815,15.438112561482228
253,18,253,0,8.433333333333307,4.310004518503365,38.513694903490105,5.494199285880442,8.290459222095093,10.424510197351584,11.764022916244244,7.769971144472661,25.797096306881738,17.52057921818819,14.992374104496747,10.222073253065986,19.08120340572313,7.155451277146199,10.562809028168147,1.0222073253065673,1.0222073253066242,2.457080617031897,3.6698366092241383,3.0666219759198157,22.488561156745106,9.54060170286158,15.08501581476175
254,18,254,0,8.46666666666664,2.7913673347955172,38.261323370655674,5.458197040472638,9.693251071027186,10.356200739530268,11.823401862701338,7.719056280741103,25.628053768793425,15.934829232110458,14.217126446263194,10.155090318759449,18.956168595017573,7.1085632231315685,10.493593329384794,0.3385030106252884,1.0155090318759221,3.027662969386168,3.3850301062531685,2.3695210743771895,23.69521074377201,10.155090318759449,16.27632865003508
255,18,255,0,8.499999999999973,2.7913673347955172,38.92048676514401,5.458197040472638,9.032386904916672,10.356200739530323,11.823401862701338,7.924152316488867,25.122306013159474,16.09224941819594,14.217126446263194,10.155090318759449,18.95616859501763,7.108563223131625,9.816587308134103,0.33850301062534527,1.015509031875979,3.027662969386168,3.0276629693861428,3.046527095627823,23.018204722521375,10.155090318759449,15.629897710718392
256,18,256,0,8.533333333333307,3.457856514034193,38.701622573100906,5.467351203199018,8.388146549108292,10.37356954210258,11.706536566826037,7.732002221820884,25.00862118538187,16.624842133039763,14.580041290987737,10.850263286316448,18.309819295659025,7.120485281645188,9.833051103224307,0.3390707276973899,1.0172121830921697,3.390707276973876,3.651903499850941,3.051636549276509,23.056809483422455,10.172121830921668,15.65611124349839
257,18,257,0,8.56666666666664,3.435260791115801,38.584240897112295,5.555555555555518,8.861272459448553,10.305782373347391,11.630038986453755,7.033739624193115,24.845199749997676,16.013905540524977,13.811056425680022,10.105651043180558,18.190171877724993,7.410810764999042,10.105651043180558,0.0,0.6737100695453364,3.0129230252591186,3.0129230252590933,2.6948402781814877,22.906142364542575,10.105651043180558,15.362953298749241
258,18,258,0,8.599999999999973,2.8006247737556205,38.76496040986129,5.601249547511172,8.934155703694731,10.390546593982947,11.202499095022413,7.744656169174962,25.049549494350003,16.145618609295507,14.264276879896101,10.188769199925787,17.6605332798714,6.452887159952979,10.528394839923351,0.3396256399975641,0.3396256399975073,3.0377040717453947,3.463515531327662,3.0566307599777645,23.773794799826902,10.868020479920858,14.835071882395358
259,18,259,0,8.633333333333306,2.1444715748289833,39.36726506857027,4.7951842171336345,9.590368434267269,10.262142362938334,11.039343091149572,8.577886299315907,25.00862118538187,15.464004443641796,13.901899835592957,10.172121830921668,17.631677840264246,5.764202370855628,10.511192558619086,0.3390707276973899,0.3390707276973899,3.390707276973899,3.0327407852467125,2.7125658215790907,22.378668028027676,10.172121830921668,15.65611124349839
260,18,260,0,8.66666666666664,2.140881016800304,37.97273604494443,5.458197040472694,9.574310970608883,10.244960126491474,11.823401862701338,7.924152316488867,24.96674844310058,15.438112561482221,13.878623435637905,10.155090318759449,17.602156552516362,6.431557201880992,10.493593329384737,0.3385030106252884,0.33850301062534527,3.3850301062531116,3.6457889998570403,3.046527095627823,22.34119870127074,10.15509031875942,14.98616711760239
261,18,261,0,8.699999999999973,3.446148876926787,38.70653394890265,4.778948645631683,8.359745898184284,10.338446630780428,11.146327864245702,7.910567579622955,24.424121399061825,16.06466173875771,13.854830676500484,8.785990185097859,16.896134971342036,5.406763190829452,10.813526381658903,1.351690797707363,0.0,3.0224725082345802,3.0224725082345802,2.703381595414726,22.97874356102517,9.46183558395154,14.960475645658066
262,18,262,0,8.733333333333306,1.5357377920848534,38.814994185042806,5.537181355029913,9.163092499311778,10.506062939587135,11.994495592908507,8.038820902933068,24.155549383893888,14.999999999999995,13.73605639486891,8.928436656664815,17.856873313329572,5.837823967819304,9.958640886279966,0.3434014098717171,0.3434014098717171,3.071475584169732,3.698546374323158,3.090612688845482,23.35129587127713,9.61523947640822,16.51185966007347
263,18,263,0,8.766666666666639,2.129636841632152,39.372372062140585,5.429529906174321,8.984947677912219,10.301808676506663,11.761303875664904,7.882533676309097,24.337565857890564,15.357029661243951,13.805731167558179,8.754853911134433,17.509707822268922,5.724327557280276,10.4384796632757,0.33672515042820805,0.33672515042820805,3.3672515042825015,3.6266408595265487,3.030526353854242,23.570760529977406,10.101754512847464,15.547807530862187
264,18,264,0,8.799999999999972,3.6742757916342055,39.075961613690765,4.824560475423225,7.628299905781057,10.32501030106278,11.252712018385845,7.9860685922413195,23.99703595743296,16.40350561643891,13.987065656507014,8.869846513882464,17.057397142081697,5.458367085466136,10.234438285249041,1.3645917713665199,0.0,3.4114794284163623,3.0513199623124403,2.3880355998914524,23.880355998914382,9.552142399565753,15.752023714609745
265,18,265,0,8.833333333333306,3.112562441546961,40.01186609501416,4.921393337391486,8.60892234178259,11.329898305854462,12.15494490016557,7.935508313361892,24.478676032700225,15.871016626723799,13.919802407023326,9.047871564565128,18.095743129130256,5.915916022984845,10.091856745091945,0.3479950601756059,0.34799506017554904,3.47995060175582,3.1125624415469355,2.435965421229099,23.66366409193961,9.743861684916311,16.732737347131096
266,18,266,0,8.866666666666639,3.6132281962905854,38.57288510077998,4.744401055630851,7.6501168343591806,10.263708766465545,11.065749730094701,8.487042618329932,24.423299254641876,16.773990795526007,14.42563208415234,9.393434845494568,18.1159100591681,5.703156870478836,9.7289146614051,1.006439447731566,0.335479815910503,3.0006226938201537,2.7664374325236545,2.348358711373635,23.483587113736434,9.393434845494568,15.490305971003783
267,18,267,0,8.899999999999972,2.1081851067789255,38.32608627147948,5.497474167490191,8.246211251235321,9.545214042184217,10.994948334980382,7.803133273813098,23.626726862225798,15.39119517415359,13.666666666666657,8.666666666666657,17.333333333333343,5.666666666666686,9.666666666666629,0.3333333333333144,0.3333333333333144,3.3333333333333486,3.5901098714230253,3.0,23.333333333333343,9.333333333333343,15.391195174153617
268,18,268,0,8.933333333333305,3.000622693820179,38.57288510077998,4.744401055630859,8.951718008346221,10.263708766465534,11.065749730094756,7.853381142672215,24.423299254641904,15.490305971003838,13.41919263642086,8.722475213673533,17.444950427347067,5.703156870478836,10.399874293226162,0.335479815910503,0.335479815910503,3.0006226938201537,3.6132281962905854,3.0193183431946977,23.483587113736405,9.393434845494568,15.077942429402652
269,18,269,0,8.966666666666638,2.7611595666783213,38.65623393349705,4.875340797083149,8.283478700035102,11.04463826671341,11.695450740908095,7.838398301702827,23.733504121116933,15.460753248843227,13.393591226587773,8.036154735952664,17.41166859456405,5.357436490635109,10.045193419940802,0.6696795613293602,0.6696795613293602,2.9948980445494797,2.994898044549505,2.6787182453175546,23.438784646528518,8.705834297282024,15.676796603405643
270,18,270,0,8.999999999999972,2.994898044549505,38.65623393349706,4.735349590380407,8.283478700035047,10.396222500592181,11.044638266713422,7.838398301702827,23.733504121116876,15.460753248843227,13.393591226587716,8.036154735952607,17.41166859456405,5.357436490635109,10.045193419940745,0.6696795613293602,0.6696795613293602,2.9948980445494797,3.4147091510728034,3.0135580259822348,23.438784646528518,9.375513858611413,15.460753248843211
271,18,271,0,9.033333333333305,2.7611595666783764,38.65623393349706,4.875340797083094,8.283478700035047,9.750681594166188,11.044638266713422,7.838398301702827,23.733504121116876,15.460753248843227,13.393591226587716,8.036154735952607,17.41166859456405,5.357436490635109,10.045193419940745,0.6696795613293602,0.6696795613293602,2.841209754228239,3.4147091510728034,3.0135580259822348,23.438784646528518,8.705834297282024,15.460753248843211
272,18,272,0,9.066666666666638,2.7664374325237095,38.07954531615581,4.884659850928356,8.299312297571047,9.606679949095415,11.889434967461465,7.853381142672235,23.778869934922987,15.490305971003838,13.419192636420803,8.051515581852527,17.444950427347067,5.3676770545683326,10.064394477315602,0.6709596318210629,0.0,3.000622693820128,3.0006226938201537,2.348358711373635,23.483587113736434,9.393434845494568,15.490305971003846
273,18,273,0,9.099999999999971,2.4253562503632793,38.17677387297692,4.756514941544962,8.183417732943573,10.289915108550494,11.094003924504586,8.744746321952059,23.839584557101727,15.746866383664296,13.789792276924402,8.072073527955752,17.4894926439041,4.708709557974203,10.090091909944647,0.6726727939962984,0.6726727939962984,2.853908964926945,3.0082841879809226,2.3543547789871013,23.543547789870956,8.744746321952078,15.529857391110662
274,18,274,0,9.133333333333304,3.599319916900252,38.42440777420971,4.726138590091251,8.267366030158223,9.731714983725059,11.023154706877632,7.823151383255561,24.329287459312592,16.0688712063102,13.70172704811182,8.02052315011423,16.709423229404706,5.0128269688214,11.028219331407172,1.6709423229405047,1.0025653937643142,2.409867289481918,2.9890724964610493,2.339319252116667,23.39319252116661,9.357277008466639,15.43067965027822
275,18,275,0,9.166666666666638,2.409867289481918,38.5810414740716,4.726138590091251,8.267366030158223,10.224201012913856,11.023154706877632,8.454373726823187,23.687338719988585,15.43067965027822,13.70172704811182,8.02052315011423,17.377800158580897,4.678638504233334,10.025653937642858,0.6683769291761905,0.6683769291761905,2.8356831540547507,2.9890724964610493,2.339319252116667,24.0615694503428,9.357277008466639,14.795154021940618
