,frame_seq,video_id,gap,time_seconds,m1,m3,m4,m5,m6,m7,m8,m9,m10,m11,m12,m13,m14,m15,m16,m17,e1,e2,e3,b1,b2,b3,m_0_16,m_1_15,m_2_14,m_3_13,label_measures
0,0,23,0,0.0,31.745031981226003,152.40921766423156,19.309749105852244,28.570528783103622,41.390457769048936,41.26854157559414,34.91953517934883,114.32619695281257,85.77035329920372,69.89767627310266,74.19982672005449,74.95229409860917,39.66811723900628,39.74990717145784,10.616333232212355,23.22834081624273,28.5705287831034,28.74634908124931,27.0561096549759,79.27080253205122,73.30013746308737,92.06059274555588,400.00000000000006,390.5155078958597,368.2560539314519,349.2097810553602,{}
1,1,23,0,0.0333333333333333,28.799078444234496,150.42922504316826,15.99948802457472,28.79907844423427,38.39877125897933,44.91270312887265,35.198873654064386,108.79651856710788,79.9974401228736,65.59013921334804,72.4075758220149,71.52155517973324,36.76985665468737,36.81908002370301,7.678845566440714,20.47692151050865,25.59918083931955,25.59918083931955,25.62076357264368,81.85846267301895,78.26515673487688,89.59713293761831,400.00000000000006,390.4006219138005,371.2019145759776,348.8035170562581,{}
2,2,23,0,0.0666666666666666,28.79631430763769,153.61366842590346,19.19754287175869,25.596723829011584,38.39508574351715,44.79426670077004,32.155486348718306,105.63495331422952,80.05372819896633,65.643234021848,72.07372487331713,72.00844070223593,39.98655478705314,33.58870602112461,7.540321759844346,20.40130346278216,25.59672382901136,25.795923127688187,25.656679234794865,82.45390807518015,71.29031482034588,89.58853340153985,400.00000000000006,393.56263512149184,374.4067758587509,355.1689554048295,{}
3,3,23,0,0.0999999999999999,28.34557799185785,148.0604089110887,15.747543328809815,25.19606932609607,34.644595323381985,37.79410398914387,34.78746024010098,103.98149484847656,78.80068164143223,64.60625269686238,71.29814178046763,70.46165564501666,36.19032662493714,33.090407417090546,7.602182819242216,20.19867991779301,25.19606932609584,25.392150643873,25.24219926389219,77.4487751293691,70.7076809789728,91.3357513070977,400.0000000000001,390.5517739797253,371.65536769601465,352.8012073087156,{}
4,4,23,0,0.1333333333333332,28.346456692913392,151.21390720198804,16.059903979819822,25.196850393701023,40.94488188976379,40.94488188976379,34.645669291338365,103.98471823130195,78.80312442958598,64.60790991424255,71.312198053585,70.50054089385821,36.26484189658754,33.06691268726468,7.532178442263557,20.17779699080484,28.346456692913623,28.52089807287401,26.817152557369354,77.48079246750763,70.67910546899839,91.33858267716538,400.0,393.7133856252033,374.81638301259176,352.76996597400097,{}
5,5,23,0,0.1666666666666665,25.396025584980865,152.37615350988565,19.047019188735703,25.39602558498109,41.26854157559387,41.26854157559399,28.57052878310344,98.4095991418011,73.01357355682,60.30827544530007,65.47238738689407,67.84064254482246,38.08943712334781,31.74119760278949,6.052207625816664,18.69934801780937,28.570528783103672,28.74634908124932,28.61641649163425,81.22786267366746,77.62614128765154,88.88608954743337,400.00000000000006,396.8255975749578,380.99328848766606,355.55852979657806,{}
6,6,23,0,0.1999999999999998,28.34557799185775,151.20921977945395,15.747543328809911,28.345577991857976,37.794103989143856,44.09312132066778,34.78746024010099,107.12960092764418,78.80068164143222,64.58030427537938,68.91487975087625,72.84359609945386,36.21886848626741,36.21886848626718,7.76002650669443,20.37412817134281,28.345577991857976,28.52001396437623,26.794819559204143,79.33734213016055,78.18470220971017,85.03673397557358,400.0,396.8505897394702,377.9541626163914,355.9084148373214,{}
7,7,23,0,0.2333333333333331,31.6531515625856,151.1811023622048,16.059903979819868,28.346456692913307,40.94488188976368,44.20683101612029,31.49606299212587,107.08661417322833,78.74015748031502,62.99212598425197,66.14173228346453,66.14173228346453,34.64566929133866,40.94488188976379,9.44881889763792,18.89763779527561,28.34645669291353,28.52089807287391,26.77165354330714,78.74015748031502,78.74015748031502,85.09767613295304,400.0,393.7133856252034,377.9658790372637,355.9194478492384,{}
8,8,23,0,0.2666666666666664,32.25806451612889,148.38709677419348,16.129032258064786,25.80645161290312,38.7096774193549,42.05937035614611,35.48387096774189,109.67741935483868,83.87096774193557,67.74108019419987,67.36825300002238,68.1139073883769,32.25765723533323,41.93495440593301,12.805803626087028,16.031569349620213,29.03225806451612,29.210919800443225,29.04810138980747,81.22769869661033,80.09300723607112,87.09677419354836,400.0,393.5616073929668,377.4193548387096,361.2903225806453,{}
9,9,23,0,0.2999999999999997,11.764705882352814,132.38561688149295,11.76470588235304,23.52941176470585,35.2941176470589,35.2941176470589,26.6334857004041,73.5882117835105,50.08643048801874,44.1009166223273,40.77406176051181,38.55615851930133,13.21098887155722,33.84713207238383,10.22164102470856,1.3500280598670995,26.63348570040436,26.63348570040432,27.95683107308264,82.99458215659547,78.86413916390666,94.30129142283178,400.0,397.0697166261761,382.3981873681178,355.99171873265294,{}
10,10,23,0,0.333333333333333,9.230496143207075,138.59412277580896,12.30732819094269,27.69148842962122,33.845152525092566,36.92198457282819,33.84515252509245,83.07446528886344,55.38297685924221,50.76497468620232,51.5341409693267,46.82299748519063,15.33525276979026,33.89138935016376,6.0091115869086025,2.868349264150993,27.69148842962122,30.921779386822298,29.26036735385287,78.1344749273751,75.82697607800219,89.28116245254427,400.00000000000006,396.9590341141095,387.72967354276255,363.18349949368434,{}
11,11,23,0,0.3666666666666663,9.959929638325532,141.76727477073248,15.748031496062938,25.196850393700743,37.79527559055123,40.9448818897638,40.94488188976391,91.39287010108286,66.21668044607448,61.37210858905814,58.27968422520985,58.03745777373365,17.2223006999684,33.09620748671864,7.51709421081614,4.2389629008362135,28.52089807287351,28.52089807287385,26.86291346872713,81.11356438438065,76.5274102364283,85.097676132953,400.0,393.7007874015747,378.0052456989605,359.1103701099648,{}
12,12,23,0,0.3999999999999997,12.798361914505776,147.2159360662121,15.99795239313211,28.79631430763789,38.39508574351711,41.59467622214355,35.19549526489077,92.78812388016654,63.99180957252866,57.58122780282838,52.85441059513346,52.5838520344239,17.5306032130502,40.05062458977818,10.814384823665478,4.352809785537374,32.15548634871799,28.973524068279737,28.854274739228003,79.19408224070594,77.8731198560638,89.64565073816887,400.0,396.8008222918669,377.6736750481359,361.610349570503,{}
13,13,23,0,0.433333333333333,21.69955923217954,148.92608562296584,12.399748132674253,27.89943329851678,37.19924439802207,40.29918143119069,34.239923661894494,96.14803401237316,68.2690314905716,57.40034849673634,54.26132902335803,51.1143626652372,18.5321352200458,43.45356577324583,12.015689731007114,5.753544553736447,28.071123739315933,28.071123739316047,27.98892806389381,76.73511907579768,75.38414866953372,83.92761073594221,400.00000000000006,390.6412684300016,375.2076502162247,356.61404006793333,{}
14,14,23,0,0.4666666666666663,25.389629809374792,155.64096760284156,15.868518630859414,28.563333535546583,41.38003393012038,44.54505452100021,31.737037261718605,101.5585192374994,72.99518570195282,60.26383663747288,54.220094968933154,53.28907471189973,22.03677608385169,47.74240318059037,18.42315508621391,8.576432367757207,28.56333353554681,28.73910955482804,28.65648791140348,80.2097621440887,75.53888085456447,82.76006786024077,400.00000000000006,396.8272026578813,380.897338529968,358.7548852265376,{}
15,15,23,0,0.4999999999999996,31.234752377721325,153.17772238203028,12.493900951088532,28.11127713994908,37.48170285326548,43.72865332880975,34.35822761549312,106.19815808425209,78.08688094430298,62.44959618632674,54.15452356157744,51.77323845447245,18.61660310554544,53.20043250873073,21.423680913920407,5.653580866868424,28.284271247461767,31.85332237524773,31.382499093634124,77.93583443253215,75.45992872514512,84.56488344576074,400.0,393.669416841209,378.0566482265491,359.3218545008794,{}
16,16,23,0,0.533333333333333,28.324513650584663,154.2433516044566,12.97610684173432,25.17734546718649,40.91318638417779,44.06035456757619,37.76601820077963,103.90422347675796,78.74212279140164,64.39123654866785,54.131752486046935,55.680655138302654,17.157689689161543,48.80640161463202,19.824357142013696,7.145710689530006,28.324513650584663,28.49881999516391,28.407194003739733,79.13774788225624,75.48106017744658,85.20634560980645,400.0,396.6555740468475,381.0153706096802,358.9979588808604,{}
17,17,23,0,0.5666666666666663,28.111277139949067,159.41967929443803,12.493900951088523,24.98780190217682,40.6051780910376,43.72865332880972,34.358227615493334,99.95120760870776,74.96340570653092,60.87895551378233,53.60229929260845,52.25743873687975,18.58789410953364,46.97405798223167,21.32564595512349,5.523534425313756,18.99935814063448,22.086305214969443,20.389046639527123,78.57828104185228,78.0979737005207,87.68012818221008,400.0,390.5468336426409,375.0252024051509,356.19945084248496,{}
18,18,23,0,0.5999999999999996,28.49881999516377,154.3396433742797,12.976106841734651,28.324513650584755,40.91318638417778,44.06035456757616,37.76601820077952,107.0037182355423,78.67920458495753,64.52676395800086,56.35603497808984,56.4537904594049,18.671296931162715,50.50699867940966,18.149934364148976,8.325508491993332,6.294336366796513,9.441504550194766,7.861169955746845,80.4201759617954,77.58526700366087,88.1768906576815,400.0,387.3063263325738,371.69908258969247,355.9779725620145,{}
19,19,23,0,0.633333333333333,28.303496200014983,154.12889943563852,15.724164555564087,25.15866328890249,44.02766075557907,44.02766075557897,34.73581484197273,103.82712411654198,78.68369429748554,64.54561569956081,56.15223145269806,60.22621328012269,23.486750655695914,45.62368805531696,19.46185294667339,9.890449858145756,6.289665822225453,9.944834859774346,9.49777691092413,80.8415430092598,76.81664530023772,85.14312051160506,400.0,390.4155220867445,368.4289533719888,355.71382859349086,{}
20,20,23,0,0.6666666666666663,27.84213781499739,147.7112437203682,12.298599072385588,27.671847912867115,39.970446985252586,43.04509675334887,37.0236859791938,104.5380921152759,76.8662442024088,63.04013799158338,58.400409171805904,58.33706816402719,21.377590125254528,46.08058315888161,17.672141170210352,11.401381400135731,9.22394930428919,12.677105755641984,10.878818085962848,78.66953166093595,75.4391402642309,89.21783872867064,400.0,390.7830263810511,369.27810930092073,350.63142031183764,{}
21,21,23,0,0.6999999999999996,18.722024709234105,143.6711255622751,12.481349806156068,24.96269961231191,37.444049418467976,43.684724321546,37.444049418467976,93.61012354617004,68.64742393385815,59.22336699306084,58.88768798986143,59.27132113637526,21.6752727780272,34.431074899609484,8.48788336661687,11.461040252098428,15.910661554391668,18.72202470923433,18.845978322488463,77.30207902252141,76.15117958298038,87.59204632524464,400.0,387.5378718809701,371.9620243802945,353.2740175720697,{}
22,22,23,0,0.733333333333333,15.613092696141477,143.9456022279099,15.61309269614148,28.10356685305425,37.47142247073922,40.71396458293449,31.381927931450104,90.60975989356776,62.53038751802499,54.73168220393654,62.19400274993609,59.4586183697304,29.48936318660185,29.77729838451773,0.8398109939225833,13.029067705715988,21.858329774597976,22.08024744147149,22.05103724042874,80.47788781762529,76.350816647491,84.54168921273708,400.0,396.7692061048029,381.4198977500502,359.58955753366496,{}
23,23,23,0,0.7666666666666663,10.033921826170207,143.1021594500413,15.865023417386633,25.384037467818885,35.04698223823336,41.37091952848992,35.046982238233475,85.67112645388868,60.2870889860698,55.5468689038903,60.39682157167863,56.53569420508984,23.464981353861504,27.13776104403132,1.0202165806028916,10.155078886921956,22.21103278434124,25.58158159475302,23.90445926550592,80.98950086015111,78.16428571386678,89.07048597845963,400.0,393.5677132696046,374.6296098493648,355.60309551576984,{}
24,24,23,0,0.7999999999999996,15.617376188860527,143.9850940794677,15.617376188860527,28.111277139949088,37.481702853265446,37.481702853265446,31.23475237772128,90.58078189539142,62.46950475544234,54.615801697688994,59.37636686379642,55.84356808828238,26.400937934502736,32.89621819441663,4.047668552214645,10.03600010891546,21.86432666440492,25.18226243734722,23.59687791985744,76.47004345025243,73.58677270072985,81.27040081592125,400.0,390.6342559878991,371.9034755443288,356.295300928057,{}
25,25,23,0,0.8333333333333329,22.086305214969137,146.9361899003749,12.49390095108859,24.98780190217718,40.60517809103763,40.60517809103763,34.49991162943797,93.70425713316384,68.71645523098667,57.80502171704029,60.146531276810265,58.39438126609821,24.83274424272986,34.389926119341226,8.840393235865577,11.771262344693696,24.98780190217695,25.182262437346875,23.510667416464912,81.68204777210872,77.92288956730795,87.51306522666117,400.0,390.6342559878992,372.02150475476543,356.295300928057,{}
26,26,23,0,0.8666666666666663,25.184362021510047,148.09202566112822,12.592181010754912,28.332407274198488,37.77654303226496,44.07263353764242,34.77129631438985,100.78662429013356,72.4734442666925,59.863849133351096,61.43755704957994,58.101296267174575,25.08490418469023,41.01082829692723,12.24344758826146,12.117550954963464,25.18436202151005,25.38035223048445,25.242274976313183,77.93001601165975,76.54515304537858,88.36984136811155,400.0,390.56065821909016,371.9492401190612,356.2302191429857,{}
27,27,23,0,0.8999999999999996,25.18763842170384,149.99135785104627,15.930061258670753,28.11727841908477,40.61384660534468,40.61384660534479,31.24142046564971,99.9725454900795,71.85526707099473,59.378846543892905,53.867215507870014,55.24121984546196,23.32684636775593,45.37337051184659,16.706643650267097,10.180123046704692,28.29030945789475,28.29030945789483,26.63694772650024,78.41192935667323,78.00597352965747,87.53174777636661,400.0,393.7534585603349,375.2223359271636,356.4945881588771,{}
28,28,23,0,0.9333333333333328,24.787589172468447,151.9503983441382,12.393794586234447,27.88603781902717,40.2798324052614,43.48879914444687,34.08293511214417,99.15035668987424,71.26431887084706,58.85157181961995,56.80756852372088,54.46482628457488,21.56423477173644,43.482239344685695,15.05487042941104,8.6241215984669,27.886037819027173,28.05764582532835,26.4069502727898,77.3262169940931,71.74451568606082,83.7154724720182,400.0000000000001,387.6158018455822,375.232237380104,356.658223238338,{}
29,29,23,0,0.9666666666666662,21.689140525910144,151.9503983441383,12.39379458623404,27.88603781902694,37.18138375870292,43.37828105181995,34.223483894454695,96.10187002747077,68.23625317563898,57.39498407074916,53.000436244078855,52.17157135150387,18.4148756793752,43.51540686017961,14.880470665754274,5.371982841499403,28.057645825328382,28.0576458253284,26.48457916180223,78.36682974891687,73.80025335963637,86.8118739116838,399.9999999999999,387.6158018455822,372.1364526911828,353.7120361087244,{}
30,30,23,0,0.9999999999999996,24.98094831382602,150.17815004375197,15.613092696141262,28.103566853054502,40.7139645829346,43.82803975404122,28.103566853054502,96.80117471607628,68.69760786302179,56.18134470098608,53.81680999134869,48.99315918368825,23.31431223702544,45.351775730846384,16.599033661654857,10.167499251441312,28.276513512199937,25.74977213150016,25.15864931054261,78.50255235996383,78.1242268064218,84.54168921273707,400.00000000000006,393.7595976695701,375.3512178994457,350.41568343542144,{}
31,31,23,0,1.0333333333333328,24.77941298798294,152.05809602901073,12.38970649399158,27.87683961148106,37.1691194819744,40.266546105472415,34.071692858476624,99.1176519519322,71.24081234045114,58.81436209834578,55.969010183965565,52.0449259503971,19.956547904981107,45.04879967740135,16.532745326687973,6.9179572643590745,28.04839101289361,31.12875231170223,31.11908233831923,78.55985368000756,76.87140309345205,86.9489087344248,400.0,390.58291807265215,365.9685253731944,347.4092258913896,{}
32,32,23,0,1.066666666666666,24.779412987983285,155.1498491300434,12.389706493991412,27.876839611480623,40.26654610547239,43.47445436721232,31.12875231170215,96.07017083263264,68.21374545249262,55.83327282624487,55.67696467163592,52.644586472226365,23.086714435711883,41.90621625060544,13.1767774335176,9.831782924889922,24.779412987982827,24.972251795081945,24.94678147555624,79.15444949387006,76.34090271091259,90.03873431096575,400.0,387.6241007536029,372.32304903032747,350.6801313678713,{}
33,33,23,0,1.0999999999999992,24.787589172468497,158.29403741168275,12.39379458623436,24.787589172468724,43.48879914444685,46.579896816883306,34.22348389445461,96.10187002747114,71.33164464766764,58.95190347502853,54.710759340134246,53.43841609966603,19.87839963966121,42.01088884731257,16.15561756569855,9.495450479790634,28.057645825328464,24.98049160842205,24.991334513394577,77.2987788437556,75.11537501134694,83.71547247201829,400.0,393.8078254480672,375.2322373801041,350.46727820514667,{}
34,34,23,0,1.1333333333333324,28.09415177915185,156.35931011981654,9.36471725971736,24.97257935924576,46.92752335499779,50.04261277939097,28.26704049883399,90.579404402033,65.62730188527165,51.577342117301896,50.55853042115768,45.97387778850862,20.089693133344326,42.31252325549008,16.587527927848214,13.18087631886624,18.72943451943449,18.987783751414728,17.256123103442633,81.82331434658386,77.87541902402472,93.6991843604698,400.0,393.763811311629,378.5349024208887,353.62056366261703,{}
35,35,23,0,1.1666666666666656,31.08683933684084,158.24053519131658,12.753821737159356,27.839305139615405,46.50183612575552,49.49209802598308,24.746049012991595,95.89093992534212,68.05163478572672,52.59940036891612,51.64304763493578,46.78771837011277,24.497343108879704,46.56702158534813,14.639553389390583,14.051028630018209,9.781734746401872,9.781734746401904,7.871518656607122,76.80248109810987,72.09428302312972,92.8492237548154,399.99999999999983,390.9758276865555,375.82743700906497,357.06681576386563,{}
36,36,23,0,1.1999999999999988,34.3488039315109,156.41171015209824,15.613092696141402,28.103566853054257,43.71665954919565,46.943249976820326,24.98094831382615,103.04641179453272,74.94284494147846,57.71836195809442,58.88832875454227,56.02840991878065,32.49907767910713,45.498708750749984,16.50953146098641,15.989546218120722,6.982387321515635,6.245237078456651,6.304821069746595,76.69782332269301,73.57791186549866,87.48906237412011,400.0,390.9388715540754,372.43035530592016,350.62431803233005,{}
37,37,23,0,1.233333333333332,33.578982249653485,149.8591845342943,15.263173749842428,27.64278334702648,36.63161699962188,39.8014876083996,27.473712749716466,103.83446348221526,76.31586874921237,59.486440979439976,61.267280869145225,57.59379948230935,31.975259723678164,44.40120980610618,16.163318102078847,16.051516494653697,9.157904249905409,12.58633551055106,10.788855116555624,77.57434389505738,75.6258015942135,82.64695000998073,400.0,393.8963556105948,375.6725671294774,351.26528925617737,{}
38,38,23,0,1.2666666666666653,25.380352230484224,157.68533217346874,18.888271516132544,28.33240727419881,44.07263353764241,47.22067879033125,25.3803522304842,97.5894028333511,69.25699555915229,56.68646867049051,54.14683820596315,49.49883528031819,26.55431224702465,45.72133462081706,16.73121328045613,10.150535598787428,15.740226263443484,19.148811706738243,17.402059063539127,79.25563751563095,75.40626052222774,88.20146425477452,400.0,393.8203352901888,375.0932577340234,356.23021914298573,{}
39,39,23,0,1.2999999999999985,28.071123739315947,152.18133643505433,15.499685165842516,30.999370331685256,43.399118464359205,46.499055497527664,24.99249136490041,99.19798506139246,68.1986147297072,54.27078205334783,53.7253073320544,48.302181842091386,26.14325946837903,48.15197865796699,16.60930999185507,13.19416391071195,18.599622199010973,18.856180831641108,18.63310026216186,77.53646473113463,71.60739167359475,93.04976226868229,400.0,390.7888380134672,375.4124858532739,353.7325638483495,{}
40,40,23,0,1.3333333333333317,27.460920891148664,140.6539894411931,15.256067161748929,27.46092089114866,39.66577462054794,39.66577462054794,27.46092089114889,97.63882983519514,70.1779089440465,56.41961749883558,61.64883066732796,56.90661292368759,31.830340309587427,38.31296793220781,10.194969795672025,16.006980767675714,24.40970745879856,21.57533708862045,21.49166694592668,73.78379863085297,73.08124785401742,82.4392472619628,400.0,393.9020820291877,381.9992487485478,360.508323898547,{}
41,41,23,0,1.366666666666665,25.182262437346854,144.22205101855948,18.99935814063483,28.111277139949067,40.6051780910376,40.6051780910376,24.987801902176823,96.82773237093572,68.71645523098667,56.243989669932034,63.25647685337367,55.1873135190026,34.24591343694442,37.56003409213213,8.885685814634826,14.841496847147027,25.182262437346964,22.086305214969443,23.51104435818252,78.67434251011855,78.0019122322542,81.45026913069975,399.99999999999983,396.9886648255842,387.7640720976559,366.100079613052,{}
42,42,23,0,1.399999999999998,18.57732048571602,139.87925975557044,18.57732048571602,27.865980728573803,37.28342694154716,37.15464097143181,28.03746530546108,92.93819177020116,65.09429948194348,55.80103950841976,62.6924200309004,54.62057154855029,30.708119226331743,34.28142764539575,5.758769371795324,14.660135879999416,24.769760647620977,24.96252433809795,24.853636236168768,77.91088535137851,74.20995877449104,83.59794218572151,400.00000000000006,393.9993278439977,381.63974053002846,357.15405272189486,{}
43,43,23,0,1.4333333333333311,24.60374062957916,135.63474521566602,18.452805472184373,33.96964970336759,37.03353372289399,39.98107852306614,24.79521231599401,101.67665122626424,67.73014765519947,55.43311304293138,62.115979102130495,57.75005009647453,35.23478083806458,41.71274770205241,7.132068141008404,16.131871253750433,27.67920820827645,24.79521231599424,24.698233761238043,81.029750967788,76.15945471238138,83.09455821028072,400.00000000000006,396.9259985005351,378.59493068679046,356.9662773283784,{}
44,44,23,0,1.4666666666666646,21.528273050881698,132.5665664400937,18.45280547218457,33.969649703367594,33.969649703367466,36.90561094436881,24.60374062957905,98.46300497298115,64.58481915264532,53.78568101824749,62.10305437158468,57.65127930056042,35.28942694201669,38.58469105152926,7.184626315692185,16.183232153207427,24.79521231599384,24.79521231599381,24.75408736112263,81.05082300128265,76.1396120688355,83.09455821028074,400.00000000000006,396.9259985005352,381.4695731417063,359.9479744862064,{}
45,45,23,0,1.4999999999999978,18.599622199010888,136.71390086853168,21.69955923217967,34.23992366189473,37.19924439802212,40.41823392521784,24.992491364900427,99.3915422894658,65.17244392722607,55.87415753489472,62.61019472420253,58.209528918923525,35.51512060541859,38.94668672072635,4.090871642091315,13.162280215427929,24.799496265348,24.992491364900427,24.89474121614444,81.56324275921202,76.876613110991,83.92761073594217,400.0,396.9856390319397,378.3955380064401,353.5151665388247,{}
46,46,23,0,1.533333333333331,24.972579359245906,140.6094270034593,21.85100693934017,34.33729661896312,37.588709528844674,40.70032485572756,31.37141456237409,112.41995392906406,78.1017169934204,65.625695737363,72.06952159142975,71.5312167289278,40.48369215933326,40.61035212698107,8.660375287898205,21.00972213352952,28.094151779151648,28.267040498834152,28.2610052813493,79.66911965027998,76.91426535394703,87.45975235834027,400.0,393.6276828940773,378.0326017557954,356.0782462012854,{}
47,47,23,0,1.5666666666666642,46.56453244130633,139.38419805740452,18.840910605761035,28.048391012894093,40.266546105472365,43.47445436721236,30.97426623497883,123.93577672493744,96.02022532843414,72.79183028080479,71.48248197639714,77.19600185017657,43.3910092636479,49.58065579357549,17.743653385792868,23.933299915721136,27.876839611481174,28.04839101289388,28.04386004713433,82.19533173973355,76.27549031495641,83.68785892951277,400.00000000000006,393.6779279654885,378.2032742001294,353.446102013931,{}
48,48,23,0,1.5999999999999974,42.74311046908128,146.6749637953573,15.265396596100748,30.53079319220081,36.63695183064127,42.743110469081394,33.722363294894215,122.16133029911128,91.643250105144,70.27650600184643,71.34154239680765,69.05250895092058,36.54505480620787,51.96423843475122,20.88743019371782,20.80794986573551,24.614712397552108,24.61471239755233,24.495837084108643,76.18984240372106,73.5193033835194,85.5407228378264,400.00000000000006,390.8418543132476,375.5783965493206,351.1572147276586,{}
49,49,23,0,1.6333333333333306,37.204831128458046,151.95136057559668,15.502012970190892,27.90362334634365,40.42430409630038,43.40563631653443,34.10442853441991,114.7148959794125,86.81127263306885,68.17691992827986,65.90013967093478,67.44961512385021,32.586417433252564,47.98630611835097,16.4276019957058,19.52655290153644,27.90362334634365,28.075339572295903,26.48338146564652,77.97972381407158,74.24833394786697,83.76826522577988,399.99999999999983,396.86364279972673,378.2618228272465,356.5597780708577,{}
50,50,23,0,1.666666666666664,27.269597333281265,154.55742081099973,15.149776296267596,30.29955259253474,39.389418370295154,42.419373629548645,33.46694970437966,106.09171031891876,75.80945636625223,62.178238904238015,61.24458459135417,63.01774320237723,28.723600331661373,43.96021105116051,13.016239538439322,16.044731679390225,24.239642074027792,27.93480721629588,25.930483227571813,76.26151194311592,75.44554514866286,84.89283636070884,400.0,393.9058372046396,378.7565270338107,354.5047653326568,{}
51,51,23,0,1.699999999999997,30.299552592534816,151.52805948591703,15.149776296267296,27.26959733328149,36.359463111041805,42.41937362954867,30.45067349305844,103.06302734807971,75.8094563662521,60.64868822606604,62.1164989091892,62.210188952792805,31.807769803423525,40.89570403297307,13.194681140840885,16.286452579759953,24.239642074027945,24.42828026591449,22.813525617477808,75.07695494102109,73.60914425789792,84.89283636070884,400.0,393.9058372046396,378.7928835885557,354.55655565657577,{}
52,52,23,0,1.7333333333333305,24.603740629579143,156.96940675159297,15.377337893487022,27.679208208276595,43.0565461017635,49.20748125915817,27.679208208276595,95.33949493961936,67.66028673134277,55.346280737473535,53.60765411744819,50.74213987333224,24.50175662665333,43.14369760803652,14.955408611144094,11.751828079800587,12.301870314789571,9.226402736092124,9.256576912172022,76.30639054555695,74.68045268794049,89.24156933209457,400.0,393.8520198919242,378.5949306867904,360.1581324223633,{}
53,53,23,0,1.7666666666666635,27.26021397669233,148.44762459435458,15.144563320384524,27.260213976692327,42.404777297076734,42.40477729707674,33.318039304846,102.9830305786152,75.72281660192286,62.07076112556547,61.57148930540666,62.48950523279564,28.72423520172447,40.91613093915407,13.101858893525788,13.02133118059669,6.057825328153898,6.772854614785841,6.095947868714575,75.72826123830032,72.95810791354756,84.863625083927,400.00000000000017,390.9175280816505,375.7805332561973,354.58982635451986,{}
54,54,23,0,1.7999999999999967,27.679208208276663,147.75053268988322,15.377337893486787,30.754675786974023,39.981078523066095,39.981078523066095,33.83014336567161,107.64136525440908,76.88668946743506,63.033407722314905,63.03340772231513,59.958607345616656,27.67320339028447,46.12200565047442,11.850793118524734,14.925593495222984,9.226402736092297,9.226402736092298,7.719030112336441,76.22942600564488,74.6920258172961,83.09455821028072,400.0,390.7780647143669,369.37633172470805,354.0129036715321,{}
55,55,23,0,1.83333333333333,24.421077999748004,143.60367384816703,18.31580849981072,33.57898224965359,36.63161699962189,42.73688649955896,30.526347499685063,106.8422162488974,73.26323399924378,61.02321360184692,61.79786061389109,60.15371185363415,30.46417943283905,45.814837569469546,11.58808693527294,14.63924761536532,12.210538999873886,15.565444157960874,13.825077796584084,76.83233629662573,73.2436654449109,85.52826696257466,399.9999999999999,393.979147945326,372.62155850011743,351.3846477102783,{}
56,56,23,0,1.8666666666666631,21.5327287347802,138.4588594395064,15.380520524842868,30.761041049685964,36.91324925962319,39.989353364591615,33.83714515465463,101.51143546396364,70.75039441427768,59.95622819811729,59.33973177384951,60.4790795959143,26.0879436244054,41.55498049654739,10.246326646378748,10.152681619907751,21.5327287347802,19.454990582988845,20.125876939079035,77.3507918651228,73.77667335480942,83.11175620308717,400.0,390.77420194504873,372.4119199511615,353.8723208907103,{}
57,57,23,0,1.8999999999999964,24.5971981447708,135.3195244875375,15.373248840481889,30.74649768096355,33.821147449059936,39.970446985252686,33.8211474490597,104.53809211527594,73.79159443431239,61.45381536727609,58.82008042296411,60.57590371917195,25.898393619066383,44.77349405330119,13.38815263358515,9.986244997182212,24.78861891613916,24.788618916139104,24.74613458092972,81.09708849360186,76.2685744290302,79.99999999999997,400.00000000000006,393.8553146304228,378.49425690633456,353.91876660192537,{}
58,58,23,0,1.9333333333333296,24.78758917246868,133.37732783521798,18.590691879351507,31.13902351634392,34.082935112144206,40.279832405261374,34.082935112144206,108.48995715195096,77.46121616396438,65.03786637310645,62.89016942180479,60.71134642773109,27.733304110283825,46.68906415872675,11.967963446020349,11.687829061067989,24.78758917246868,28.05764582532837,28.01343849523596,81.16115652925328,80.63201380212104,83.7154724720183,400.00000000000006,393.9418835416011,375.37292948939154,350.6179078665159,{}
59,59,23,0,1.9666666666666628,27.89357040137473,130.31749666473587,18.595713600916408,30.99285600152743,37.19142720183292,37.19142720183294,34.232728349057,111.61731893848044,80.64100522438748,66.70526894076397,65.4046091006935,64.4136301749254,30.720346698810545,46.69988187682088,14.988556252242232,14.493066789358409,27.893570401374724,28.0652247624664,27.99515465294849,75.93376018697927,73.58018523828036,80.64100522438737,400.0000000000001,390.8173334809072,375.4743253033394,350.89059839640186,{}
60,60,23,0,1.999999999999996,24.56890756733204,126.25227474423887,15.355567229582467,30.86430814981299,33.92155673488598,36.98110302120456,36.98110302120456,107.66431977846716,76.83923386755907,64.56619511057215,64.07048535924355,61.22015428910299,25.68396149072192,45.01664179254362,13.260235848044433,12.48568936159336,30.71113445916516,28.314266948017146,27.91465537170143,79.80926996393191,77.85741281807464,86.2102626407036,400.00000000000006,394.07304251744137,375.9323864215152,348.39206896607544,{}
61,61,23,0,2.033333333333329,18.703822578458663,128.41626816311162,18.703822578458663,31.32851509217048,34.43174546341582,40.52494891999401,37.53730809391025,106.17154040277036,74.88020597924842,65.52843657596259,64.03460382675735,59.79951098107245,24.3864346223354,44.25287015300296,11.742757435762767,7.831071680112245,31.17303763076444,28.7401206305698,29.95365667220836,82.66901234777151,80.89797352139408,87.50688663195041,400.00000000000006,394.015357612643,379.044141199718,351.1362840100341,{}
62,62,23,0,2.0666666666666624,18.568978001730024,133.65221769511302,18.568978001730017,30.94829666955004,31.10265322145274,37.266684139890906,37.266684139890906,105.2697110391056,74.34035966503791,65.04731035492773,62.8691421691085,59.95447107153791,24.147893340627206,43.76707728771703,11.580333016692748,7.615753513007576,31.10265322145281,31.56119372609901,29.765686827074205,79.77736858996332,76.54929199802996,89.96324368322755,400.00000000000006,391.1747172088429,372.9366059563701,345.52771867094697,{}
63,63,23,0,2.099999999999996,12.389706493991612,127.59743615941912,15.487133117489284,31.12875231170218,34.63028242729453,37.29795563771897,40.3855021876923,99.31105243232598,68.21374545249255,62.01360466590381,60.12878658687055,56.6372383421035,17.998467721917677,40.92527124065259,8.512580012683884,7.647417615750555,27.87683961148089,28.556862458541364,28.24137252846845,79.7185351460048,76.50507481453792,86.94890873442476,400.00000000000006,390.8775679553113,369.8929184533065,342.4162754287234,{}
64,64,23,0,2.133333333333329,18.57732048571581,130.6296683210062,15.481100404763286,30.96220080952658,34.198868582786865,37.28342694154722,37.28342694154711,102.2221643322372,71.28033921452689,61.98901221385859,59.86269907582732,56.634428034143866,20.96824123708666,43.892069739807766,11.702482526101448,7.527458919309538,30.96220080952635,31.11662670919085,31.211793580888752,79.94626988322148,76.65591670612162,86.91503947119408,400.00000000000006,391.117677620373,369.7488338316056,342.28289380110084,{}
65,65,23,0,2.166666666666662,18.584559740987267,130.68057240675515,15.487133117489584,27.8768396114808,34.21219528078143,37.29795563771901,37.29795563771901,99.1660374329454,71.3081159098694,62.02514873579321,61.03546797810418,55.80871647655886,21.13896243376462,40.71608492180076,11.86070533042971,7.917446061512464,31.128752311702016,31.58767759027497,29.72135025434909,78.10746104823988,78.23117114295133,83.85964397294984,400.0,393.970263100797,369.6464312553732,345.20677284211854,{}
66,66,23,0,2.199999999999996,15.481100404763126,130.6296683210063,15.48110040476336,30.96220080952649,34.19886858278685,37.28342694154729,40.36977079756648,102.22216433223728,71.28033921452706,63.54421703204707,63.75180249603568,59.13879218517923,21.081457120613777,40.7328810448621,8.718589487518784,7.795987425347221,31.11662670919073,31.57537322231056,31.276209907606244,75.5611088918281,74.45398641722272,90.00366146603038,400.0,390.9092809178738,372.8342694154727,348.44514686171186,{}
67,67,23,0,2.2333333333333285,18.73571123536948,134.85229808926996,15.61309269614143,28.2765135122,37.471422470739306,40.71396458293464,34.490449084738145,97.00242477679846,68.76853984667011,59.41062933036983,58.10540744019613,53.5601641520625,21.35957234389889,41.16823397123813,11.823774769807187,4.668087701326613,31.2261853922824,28.78912044558222,28.423126102485185,81.99864580619646,78.45151337525454,90.7710351797015,400.00000000000006,390.7767157686522,369.3148285987862,350.86062059861115,{}
68,68,23,0,2.2666666666666617,24.579777002424827,135.7462553568702,15.3623606265156,30.7247212530312,33.93656383921744,36.99746368754032,33.93656383921767,104.50922590663812,73.80331308526202,61.52526215795888,57.26450993095341,52.49246743670756,20.96290095686686,49.595155922343565,17.724729264342614,7.839784097690199,27.6522491277279,28.326793353025376,27.95053460915574,80.61343213494342,77.37526044241918,89.31333490496334,400.0,387.9110133453141,366.9128665302768,345.77257847909846,{}
69,69,23,0,2.299999999999995,27.88603781902745,142.8314252279285,12.39379458623412,30.98448646558553,37.31026242506599,40.398827738082886,37.31026242506599,108.48995715195086,77.52316036911667,63.584728098468304,56.963921439885326,57.0263818800604,19.69065376526737,51.42055737432611,19.284660904127804,9.197299815814633,31.13902351634424,31.598100221334462,31.3239107479194,79.02807193181434,73.89070072739469,83.88731419743597,400.0,393.9418835416011,375.73081713625504,351.0010371339703,{}
70,70,23,0,2.333333333333328,33.81016217949413,144.98383276050907,12.29460442890681,30.889811330348923,39.9574643939473,43.031115501174064,33.94958612019662,110.8220666999262,79.97401561947034,63.080823290062426,56.76046842734195,53.140070981706,21.01671398525877,55.87070973307573,23.900759408054,7.455564231266862,30.88981133034929,31.34521394745028,31.04951029647032,77.93058908402622,76.94878638690466,86.28149818829871,400.0,397.08431918457416,375.7907738564577,351.48648505078904,{}
71,71,23,0,2.3666666666666614,28.0941517791516,150.12783833817295,15.607862099528695,28.26704049883409,37.45886903886896,40.58044145877475,34.33729661896318,106.1793578301951,78.03931049764348,63.87735865795594,54.34249438998813,53.96857814418536,19.879880401842,51.97435816657094,19.31900603313784,6.294256804344968,28.26704049883422,28.77947570198037,28.417634681002937,79.14560536156546,75.40644290353885,87.62671353931042,400.0,390.8079017598719,375.640743705077,354.1162164635852,{}
72,72,23,0,2.3999999999999946,28.070228769831388,153.3351660635974,12.475657231036074,28.070228769831168,40.66566731352727,43.66480030862636,34.44953451086922,102.97141758986788,74.91889259009439,60.89838944500343,54.73960308082883,50.63374550471213,18.259445862087887,50.25414735144864,17.91858221425946,7.894092207665608,28.24297026960521,28.242970269605337,29.84106298717097,75.16043434619291,72.57296938313107,84.4414009509111,400.0,397.0954858755306,378.6752456053092,356.9215545591907,{}
73,73,23,0,2.433333333333328,21.515557750587032,148.04664203952117,12.294604428906718,27.83309455620046,37.01166050988026,39.95746439394745,37.01166050988037,98.54875139019678,70.76076242061487,60.012190155287726,53.61929952112541,50.317733590693024,14.9660606563466,46.5801117826561,17.473381952571117,4.640880411645412,27.83309455620051,28.33766302928446,29.51942557138932,77.85154757656255,73.97376495072444,83.21594629351279,400.0,394.0152185412831,376.0044020285236,357.865925709795,{}
74,74,23,0,2.466666666666661,21.67354056666855,149.13370776618905,15.48110040476322,27.865980728573884,43.347081133336985,43.45751973559695,31.11662670919097,96.0327485584269,68.18717410922523,57.36027993147036,53.68353696791269,50.964600994861485,21.22623878961485,43.65746056728676,14.243516858824703,7.461625426043611,27.86598072857365,28.545738685905867,28.20896072040523,75.80578874864682,73.90562326748045,86.74943429158544,400.0,393.99932784399743,375.6775385112628,354.32447816914686,{}
75,75,23,0,2.4999999999999942,22.022680432881337,154.67155866847048,15.730486023486602,31.460972046972977,40.89926366106508,47.29621171338529,31.617885599164108,100.72425632358554,69.28560381768413,58.28776125287891,52.09818575163922,47.91477919426893,18.42098537994525,50.69075715148324,17.90777937104872,4.828801992801118,28.4891218705516,29.00558304567188,28.615122920303747,78.92486348942407,76.37438514217934,88.31515705509776,400.0,397.0195176195536,381.729341867132,360.032304286588,{}
76,76,23,0,2.5333333333333274,28.31487484227592,154.67155866847054,12.584388818789073,31.61788559916404,41.02008892772808,44.157578527548864,34.607069251670566,107.01356109374508,75.50633291273556,61.27385828612478,55.65825461989175,50.71154557318255,18.62015952487696,53.807127649582526,21.14018111471045,8.1045138784134,28.31487484227569,29.00558304567172,28.591356062426257,78.33844892838897,76.87621417873265,85.17734996164957,399.9999999999999,390.73716685281016,375.2306229700285,353.2606282203906,{}
77,77,23,0,2.5666666666666607,27.853467002595245,145.75300662571937,15.47414833477498,30.94829666954996,40.351642017011166,43.43800434516504,31.102653221452723,105.26971103910569,74.34035966503806,60.42793234873466,54.41947316633218,53.21778132985173,22.74630976195272,51.415243575130944,19.31290451486552,9.356029298312706,27.85346700259501,28.024874571210884,28.06808789493789,77.59495858417085,75.01990464885534,80.99944386977869,400.0,390.7337359883189,375.5088336729473,351.0824753809351,{}
78,78,23,0,2.599999999999994,30.97426623497877,145.87531197526468,12.389706493991506,27.87683961148078,37.29795563771883,43.47445436721225,34.2121952807814,105.35804574384495,77.49758936030761,62.02245253472506,54.24622359154933,53.777776064852105,19.815330379296483,51.29500417335635,22.15756801278326,9.415795286616005,30.97426623497877,31.587677590274712,29.74641794527952,78.2307369584521,74.38946723953427,83.85964397294971,400.0,397.0630320089486,381.7884588290708,360.3812948806113,{}
79,79,23,0,2.633333333333327,31.215724199057373,147.01247388804984,15.607862099528685,31.2157241990576,40.70032485572749,43.70201387868035,31.37141456237421,109.29961949133266,78.1017169934205,62.50866192128092,55.10611532127882,53.8126177048573,23.1193218549538,54.80222130296306,19.31675054884772,9.62331058000268,28.26704049883401,28.779475701980584,28.394610326745124,78.20206071328516,75.38130085096873,87.62671353931033,400.00000000000006,390.807901759872,369.1911031505962,347.39328578153345,{}
80,80,23,0,2.6666666666666603,31.3714145623742,147.01247388804978,15.916958682192144,28.26704049883423,40.58044145877462,46.8235862985861,31.215724199057696,106.17935783019544,78.03931049764367,62.438213686968766,55.72350053227797,52.996872553476805,23.176337819808168,51.80593159721912,19.49382302085337,9.715570958946046,28.094151779151453,28.26704049883401,28.27701257325521,77.22311884788087,76.56496726679097,87.62671353931033,400.00000000000006,393.9246297015528,372.1092396545632,350.50685415724166,{}
81,81,23,0,2.699999999999993,18.88300910038968,145.0772849070913,9.441504550195068,28.32451365058452,37.766018200779584,41.0340527815749,37.89692333575632,94.46748374287114,66.16542199646858,56.73323651825695,56.340238204885736,53.41633075340451,17.008967002702775,39.58279012274056,10.43803520313736,6.728131124913716,28.32451365058452,29.01545698141837,28.57883734834877,77.82938598001942,77.35778800397406,85.20634560980652,400.0,393.8489544047626,371.8456122389231,350.2417849305723,{}
82,82,23,0,2.7333333333333267,6.292194409394514,135.611022857912,12.58438881878948,28.31487484227588,34.6070692516705,37.75316645636776,40.89926366106513,88.090721731525,59.77584688924912,56.60323417977338,57.630050219315535,52.33553001542532,14.102676543089956,33.06668527338775,4.283748164965573,4.091220157551788,25.168777637578504,25.36464656547156,23.68094491194597,75.88812292242824,75.43889090512812,82.04017785545638,400.0,390.5724779104162,374.8611455473566,353.0504249202143,{}
83,83,23,0,2.76666666666666,12.584388818789046,135.31875738269937,12.584388818789504,31.617885599164257,34.60706925167051,37.75316645636783,37.75316645636783,94.43533653715264,62.92194409394638,56.60268504412102,54.463064647264446,55.50045635483116,17.246637138300457,39.45330337840505,7.423834407275763,4.084729848544839,9.43829161409207,12.9716910834274,12.675629926833151,75.92410559755513,75.50266521635626,88.14688413552892,400.0,390.5724779104162,374.86114554735656,352.8681474393313,{}
84,84,23,0,2.799999999999993,15.855049805149998,133.33333333333337,19.026059766179856,31.710099610299302,38.0521195323596,41.223129493389465,35.02494980867269,101.52185369305953,69.83425036385347,61.91296948614445,60.739225002978856,59.9184246651007,25.346314433675616,41.187760954722535,8.716899588265505,8.716899588265278,9.513029883089814,9.513029883089814,9.570531939658396,77.72979199705537,78.04169612544888,82.68982305947232,400.0,387.1879774922381,371.346794018547,349.17125181926656,{}
85,85,23,0,2.8333333333333264,19.15042625965291,137.39309424276172,15.958688549710567,28.72563938947902,32.07656700015953,38.30085251930548,35.68471242890049,99.14957373962466,70.50779055696268,60.89208475912278,57.42386186804174,58.15053714045848,22.394810668123228,41.354429139366175,11.67635039997299,8.81919535160614,10.09316085726689,10.09316085726689,9.727539442127409,79.42230420575538,80.77656266798726,83.04653734706876,400.0,390.2282796983421,371.1210092605651,348.6160811496861,{}
86,86,23,0,2.86666666666666,19.16079878511056,134.46731330182914,16.283547816883946,31.93466464185116,35.27298999320499,38.32159757022123,38.45442846268656,105.57775934001118,73.72689844858077,64.12527637046242,63.59385142816586,61.4681516589792,24.09126405078132,43.04542032602876,10.097073903636328,10.274215551068664,16.283547816884184,16.283547816883928,14.525615089441544,76.52519169071775,80.06802463936197,86.4598240018005,400.0,390.2436925668966,367.7481506078306,348.4538753652469,{}
87,87,23,0,2.899999999999993,16.095569499491127,138.7583727576924,16.09556949949136,32.351694304198766,35.5562751798218,38.62936679877912,38.76326448552955,103.21264331918152,70.8936297261698,62.84845670518689,63.42729188822864,62.90552496267014,24.40890898629277,40.04561153662962,6.6525283008732,10.28859156336057,19.31468339938945,19.581105411063383,21.090797444067903,78.50961708015984,76.09644504945095,90.3648333634734,400.0000000000001,390.1640414935895,367.4869142219249,347.9026723525586,{}
88,88,23,0,2.933333333333326,16.20668915175313,139.71632470401468,19.71628830249432,32.575042041056626,39.03087604598348,42.1373917945572,32.57504204105685,100.95089302501368,68.37609643768387,60.28164615663809,63.51390600417904,64.24116446987568,31.312517273052663,37.04977850243768,3.0302436070696785,13.454281615388936,25.930702642804405,22.91971959957376,22.86823842135209,79.83681823426082,79.02875327237552,90.98868882011524,400.0000000000001,389.6217507714885,369.8677517512723,347.0654062532631,{}
89,89,23,0,2.9666666666666592,22.37423970525232,140.96459547143573,16.298097836983644,32.122618022133494,38.35583949471854,41.55215945261176,35.30450786137122,105.91352358411412,73.79277646646506,62.623191250575246,62.695291637073296,62.999715491176175,27.55035879630668,43.04393073932988,9.589351404239096,10.037976031338305,25.57055966314576,22.60139517068177,24.137607168732305,81.85797213744127,74.82417887685483,99.2919187480208,400.00000000000006,390.27838925891575,367.79908063886165,342.06597457546553,{}
90,90,23,0,2.9999999999999925,25.7387454512282,144.92336564925694,16.086715907017506,32.333898803566804,38.60811817684229,38.60811817684229,32.333898803566804,106.36713675561468,74.06880239256992,61.21233972682808,60.35701307100908,62.64864297905274,29.194073969373,44.86430383353081,11.39359658506214,11.974573181467576,25.93904999320608,25.93904999320608,24.37680969084477,77.62492857528173,79.93269672211454,90.31512692664444,400.00000000000006,390.14846474837424,370.497707773416,344.4961854498254,{}
91,91,23,0,3.0333333333333257,25.95332598211038,148.21913478730892,19.58110541106324,32.351694304198965,38.76326448552969,41.84848069867733,29.150316167110184,106.42567768384828,74.1095673936545,61.34291168362847,60.39023156008693,62.87688815373758,32.520301166314084,44.79211292718787,11.302984516594051,15.097557890021562,25.95332598211007,25.953325982110066,25.996864388165704,81.07469322545353,79.97668901527027,93.57604759733032,400.0,393.377826001463,370.5478369682723,344.58054398839283,{}
92,92,23,0,3.066666666666659,28.52743866301158,142.77800005548133,15.848577035006835,31.697154070013,38.03658488401571,41.20630029101712,31.85524559471366,107.81692722350397,76.1391768691855,61.890663481217416,63.26458318202049,64.16446041295603,31.89743398941096,44.07791507957381,11.457365458161348,15.105082090703265,25.3577232560104,26.13814285242812,25.566154900328684,78.75532694312506,80.00872737192776,88.97815158772742,400.00000000000006,387.0299093176604,367.9055233308292,345.62981440093654,{}
93,93,23,0,3.099999999999992,28.55704215129641,146.2682887125901,15.865023417386894,28.55704215129618,38.20803599504333,41.24906088520558,32.35842559554448,104.90128160540556,76.41607199008712,62.10037684092208,63.63642856490264,60.85690639769973,30.25778078507437,42.643721670503965,13.239302954307504,16.701514776612385,25.384037467818803,25.58158159475276,23.99166502217031,81.48388669115093,73.97430048502474,85.72986566302046,399.99999999999983,390.3956443456914,374.4683285289035,345.9157258689947,{}
94,94,23,0,3.1333333333333253,31.49215819878171,148.14709210787294,15.746079099391082,28.517362132112577,41.06075069490424,44.08902147829476,31.64922729384205,107.25842589278707,78.79335463976054,63.05674997010533,63.7184665682048,62.73396138566659,31.64135098960628,44.00415377360969,14.888623457236235,18.261764164621127,28.342942378903903,25.389789644877155,25.290485590774097,79.71264092714364,74.49960528845827,88.23426103240332,400.00000000000006,390.5154599093237,368.4582509257486,343.2645243667229,{}
95,95,23,0,3.1666666666666585,28.33855132392852,144.87570580537744,15.743639624404675,31.6443240098036,37.78473509857128,40.93346302345224,31.644324009803363,107.24180878795836,75.63504024869506,61.4681867872489,64.14494868218071,65.4752182299651,33.24051589524265,42.39017473609965,10.23658639819314,16.82304293966172,25.18982339904744,25.3858561096554,25.32378980598969,79.23215208997726,78.32367532563694,85.0739437653813,400.00000000000006,390.4930453170029,368.4146230675752,343.225787214188,{}
96,96,23,0,3.199999999999992,25.599999999999994,140.8363589418584,12.799999999999995,28.79999999999977,35.19999999999988,41.6,35.2,102.39999999999976,73.6,60.79287921866762,62.96405347647715,61.91927789377178,27.245788242737945,39.946341419999726,10.855871289047856,14.153444221961536,28.79999999999977,28.97723244203968,28.84560085375552,75.40341275806259,68.62869608895744,89.6,400.0,393.61300791513486,371.2137928471947,348.81467859022206,{}
97,97,23,0,3.233333333333325,22.215926083203183,142.81666767773373,15.868518630859189,31.737037261718605,38.08444471406237,41.25814844023426,31.737037261718832,101.5585192374998,69.82148197578121,58.710431024272566,59.613668424645766,61.07837772254857,28.610654952368805,41.20715491433339,6.102955407928448,12.547676318701178,25.38962980937484,28.56333353554672,28.57810585686002,80.5427368369019,71.78703014499365,88.92035955331595,400.0,393.65441992849696,374.61805121130845,349.3381484433411,{}
98,98,23,0,3.266666666666658,19.31035723904196,139.68253968253964,19.047619047619097,31.74603174603168,34.92063492063494,38.09523809523809,28.747254406785363,98.41269841269828,66.66666666666663,57.15017821548622,59.99439263957561,60.70343192943369,31.76173727977539,38.06251824192259,6.220208315572336,12.633790982924438,25.396825396825164,28.57142857142842,28.579117740071524,79.9280654021743,78.76781929149774,88.88888888888887,400.0,393.66359426192287,374.7242204216618,349.3361951957919,{}
99,99,23,0,3.2999999999999914,19.354209355661943,141.93086860818772,22.579910914938893,32.417899461589336,38.70841871132377,42.058002727408976,29.0313140334928,103.27283918465687,70.96543430409363,61.28754002661799,64.18572185528797,64.90617383529616,35.51500783268375,38.65879829090136,3.094668732308492,12.837144371057777,29.031314033493025,29.0313140334928,29.030940012608426,84.4402468387043,80.03566541547161,93.60094424041642,400.0,390.3632024125095,377.53112749461127,351.8381390464419,{}
100,100,23,0,3.3333333333333246,25.986166048888496,141.85685958890994,16.1159360443248,32.231872088649595,35.4550592975144,38.67824650637943,29.18720154859033,103.14199068367886,70.91011859502926,57.98591051457697,62.219958992530565,63.27230502200268,33.79017329007684,40.383778880987165,8.402325329065206,17.92276831444474,29.18720154859052,29.008684879784685,29.005287437321385,78.89306639697725,72.77630510067138,90.4791765950148,399.9999999999999,390.3384841380719,371.17068502717706,348.4770729503646,{}
101,101,23,0,3.366666666666658,25.77861014899868,140.72382487759103,19.18465840745828,31.97443067909744,38.369316814916665,41.56675988282645,28.776987611187643,105.56405623151832,73.6106673753044,60.77243664288767,65.56702537331125,65.15723146472806,36.59459603647929,40.200782432011465,5.450258984156335,17.907993805085653,25.77861014899868,28.95407843719017,28.72655299168173,83.51599856925509,83.0242458789553,89.58548490370151,400.0,390.7296361453791,371.7844028096446,346.52081801284885,{}
102,102,23,0,3.399999999999991,25.79303520876645,145.121642287741,19.61161351381831,32.40209946741172,38.68955281314968,42.03750429261664,29.195733462114823,106.44510947225936,74.15497622520338,61.25142832773213,65.4520844969386,66.47782611965181,36.99996567644098,40.46794925799532,8.474579597178263,17.95047839748122,29.195733462114784,29.01716460986243,28.98941205144274,82.15701949541108,79.2263291448021,90.27562323068258,400.00000000000006,390.5989856202491,374.67935009100165,352.15404869527487,{}
103,103,23,0,3.433333333333324,25.974231328538792,146.14112209167627,19.74938513481656,29.221010244606337,38.961346992808295,39.096395394253705,25.97423132853879,100.70250018388982,71.50288850782475,58.505358686705904,63.39036762160049,62.94776614092211,37.20311334813096,37.5309662967818,5.565303803344477,18.220427621259205,25.97423132853879,29.22101024460611,29.17071610619041,81.68456215630636,77.84868265709383,90.96776936865224,400.0,390.4783177623425,374.28193648634857,351.6128154833421,{}
104,104,23,0,3.466666666666657,25.98536198048525,139.8223167115215,19.489021485363992,29.41343258590067,35.72987272316703,39.11314924402063,29.23353222804565,103.99218819731904,74.7079156938949,61.70238673126278,62.96161911353352,66.60676548326433,35.5567459520114,39.20189232174221,6.99205349102931,16.46943405232946,29.23353222804588,29.413432585900605,29.194308652117343,79.00026314034949,74.02960899980712,94.25292347673012,400.00000000000006,390.6456481519359,371.4435709626639,348.7814972239823,{}
105,105,23,0,3.4999999999999907,25.985361980485056,133.33333333333331,19.489021485364017,32.64370698420994,35.87721302959385,39.515696547782674,29.2335322280458,107.2388215772657,74.70791569389486,61.70251679626017,66.13692155666445,69.92842005069065,38.80516284755436,39.20079747301816,3.7420441658432537,16.46829128492209,29.2335322280458,29.2335322280458,29.22750795612319,78.94559255604827,73.95070540957022,94.19693717925864,400.0,390.645648151936,371.20205554417953,348.7814972239824,{}
106,106,23,0,3.533333333333324,22.783240433277804,135.4788874271171,19.33222056932915,32.220367615548206,35.58855924202213,39.19776896885842,29.176783805115942,103.30635739299623,71.17711848404427,59.67497307409872,62.20273356145663,66.56435950042737,35.3390828918873,38.808558070614254,6.8398224952043165,16.30653334001522,32.38106870030522,28.998330853993725,28.97011774236762,78.90577835046975,72.80941482213552,93.43906608509047,400.0,390.7176278705412,371.42971225329126,345.975340008661,{}
107,107,23,0,3.566666666666657,25.965942036966457,135.61314031081025,19.32407237348335,28.986108560225027,35.57355928122982,35.573559281229706,28.986108560225023,103.11203015046488,74.14559246297495,61.213474815241625,59.82676179353712,65.32408841529423,33.60302804380376,40.536593152326304,8.840295513366073,14.88240225079312,29.16448629652227,28.98610856022525,28.97239706061191,80.33030432873966,74.68440131179977,93.45519558509122,400.00000000000006,393.9905139994565,374.9843864928941,352.8370774755554,{}
108,108,23,0,3.5999999999999903,23.101869883268296,135.47184515794018,19.8016027570876,29.702404135631287,33.167274134595395,36.45264186182666,29.885189886304897,102.36149718617212,72.6808441442031,61.10914518789264,63.95879444535922,67.82498525081087,36.12888649232377,36.46217880313884,3.866190805451652,16.664615540739533,29.702404135630832,29.702404135631056,28.04654795506485,80.29011767528414,78.4236807347213,92.40747953307432,400.0000000000001,390.5625971258072,370.8213979666291,341.8605243480975,{}
109,109,23,0,3.633333333333324,22.923114293237,134.4236031872147,19.648383679917167,29.653946927257863,36.0220367465153,36.17058185814965,32.91063535653862,104.99585080529188,75.38996029048245,63.91999076610341,67.06003734672231,70.18338155191213,35.80154173168103,36.3026129945456,3.9000046626299536,16.66061949025061,29.65394692725741,29.47257551987597,29.46299025644271,82.35941323952352,78.55127164175201,91.69245717294788,400.0000000000001,393.8399669549112,378.0151350928285,348.98550789180143,{}
110,110,23,0,3.6666666666666567,22.55425733088417,138.8843613184814,19.332220569328697,32.381068700305256,35.58855924202225,39.1977689688586,32.22036761554851,106.3760206680236,74.10684551576138,62.80864309398248,62.78360975675878,68.85836625634965,33.6114274455374,40.55400630221288,5.540711972154213,14.70291339598748,29.17678380511613,29.176783805115907,29.030326733620768,77.77023430794725,77.33632312940495,93.49460193907828,400.0,390.5182990787892,377.6523984108068,352.146655620389,{}
111,111,23,0,3.69999999999999,25.993762245501745,145.22904699637772,19.34477640657501,32.24129401095798,38.823659117560005,38.823659117560105,29.01716460986218,106.4451094722596,74.22503290235389,61.27859817135823,62.561402963995306,66.04800060552179,35.293578012811395,42.13520357354241,7.07187257479427,16.347537998478174,29.01716460986218,29.01716460986218,29.01112377194727,78.415554503767,76.70514811358407,90.27562323068246,400.0,397.0394598025903,381.11609812428566,355.5909257066417,{}
112,112,23,0,3.733333333333323,29.72669727284552,152.07999215783764,16.514831818247153,26.62936615770267,39.77298185845501,39.77298185845513,33.029663636495215,105.74651989254764,79.27119272758789,64.37858848266978,64.71868925934677,66.74270363761912,32.71603568813907,40.01575967535109,10.800273444715684,16.805955452375883,29.90963252115944,29.90963252115945,29.76296552967642,79.25177610661353,79.81584568744347,92.4830581821858,400.00000000000006,393.7324325217237,380.5441566694136,357.69768518032504,{}
113,113,23,0,3.766666666666656,28.943908243438045,150.36299011941148,15.98159978946626,28.766879621038992,38.488789077052495,38.4887890770525,31.96319957893206,105.52697658805953,76.77824011171178,62.34780157934961,62.78646260201049,64.50800020037832,31.69946635456108,41.87971272952473,10.428545067035884,13.1267241875546,25.7695553465656,28.94390824343828,27.205260028052635,79.78664638589271,77.25399972675564,86.35980968862391,400.0,396.9747034000008,384.409801976937,355.95582971845664,{}
114,114,23,0,3.7999999999999896,25.357723256010583,145.94465736754026,19.018292442007763,31.855245594713853,35.01065099207012,41.69109697188354,28.52743866301165,104.64862340186713,72.90345436103,60.18460702312382,59.32671240546984,60.34958675728831,31.32965151779399,44.808495799014736,13.709815909050576,13.0169010255604,25.555062599997747,28.52743866301165,28.50849806358497,75.49472635356824,77.24351153570933,88.7520313960367,400.00000000000017,393.8618521204231,381.4341276296147,356.15247294865327,{}
115,115,23,0,3.833333333333323,25.765429831311216,148.29118492595006,16.103393644569394,28.98610856022524,35.57355928122978,41.99251303184099,29.164486296522306,99.89297352082929,70.92809151045901,58.04316980413614,59.994200721922425,61.94523163970848,31.89935550580276,38.923066809832335,7.316365941697768,13.169458695056392,29.164486296522306,28.986108560225,28.92403335617837,80.38247381278688,80.96778308812259,86.95832568067524,400.0,393.7666669570738,381.4023428922473,355.7355928122979,{}
116,116,23,0,3.866666666666656,25.581581594752954,142.92616361484764,15.865023417386949,28.557042151296184,31.88830241418145,38.208035995043474,31.73004683477344,101.58571597130909,73.04805351496854,60.30486461012174,59.3882769103102,60.52781837494081,28.249067757254352,41.62629364639497,10.495342040183914,9.801708105191665,28.732779454001204,28.55704215129641,28.538081896834456,78.62836105950691,80.49456664651052,85.72986566302053,400.00000000000006,394.07900638973473,381.2362156218719,359.2368228488151,{}
117,117,23,0,3.899999999999989,22.992303177772683,149.60906346015398,19.50961619052008,29.26442428578034,39.154481425681006,39.15448142568112,32.67820268842248,104.05128634944091,74.78686206366059,63.36018184475665,63.0878956094557,63.30242415848079,30.751842392942763,40.834684197122215,11.972343255207988,11.642299333630945,26.215259049725613,29.264424285780336,29.25839364780677,79.09502580594312,80.46470808048798,87.79327285734091,400.0000000000001,397.0285454419173,381.11779865131007,361.86408434962505,{}
118,118,23,0,3.9333333333333225,22.806929798069,145.17824567374095,19.352321661912043,32.25386943652007,38.838801935187576,42.05390064153091,32.414737613690015,106.43776914051648,74.18389970399639,62.88604894585933,61.59263632760258,64.08122769437455,30.59985042431936,43.59946585337752,11.427873513202258,11.346011955084805,26.00390087771949,29.207120994289177,29.011736196840275,80.07697615053326,81.22303796417805,93.59181496449624,400.0000000000001,390.6048791957103,371.4239986000107,345.8541376438304,{}
119,119,23,0,3.966666666666656,22.95081967213113,147.57740898264782,19.672131147541137,32.95041187252767,39.48063796325335,39.344262295081926,32.95041187252725,108.19672131147544,75.4810782506316,63.97676022817154,61.344176150459816,66.85770129434695,31.26814484754209,44.0833654522537,11.051885986621528,11.300242975084757,29.689787338155785,32.78688524590159,31.16880205215648,80.36832146675602,80.11996447829279,95.08196721311464,400.0,393.49726396531145,374.0005044353889,351.20248762677903,{}
120,120,23,0,3.999999999999989,23.72114852593877,149.10436216304404,16.943677518527693,30.49861953334985,37.27609054076103,40.80577907038184,37.276090540761146,108.43953611857744,77.94091658522761,66.05149747264932,65.84292257852076,70.24802434251706,30.78565437338329,40.3467275202388,9.260725299310252,13.248677275049658,30.49861953334985,33.88735503705561,33.92262078107797,81.31083672709883,80.97711689649304,98.33173872382577,400.0,389.7045829261381,372.8995097276586,359.46162603255203,{}
121,121,23,0,4.033333333333323,19.993752928162326,139.9959350212428,19.993752928162326,29.990629392243605,33.48912168790907,36.80636986333321,33.489121687909275,103.35478946847394,73.3861222374723,63.38543358070797,61.568653637311854,62.4770436090098,28.614284108488164,41.33174371226073,7.418518102200551,8.125043635743623,29.990629392243832,29.990629392243378,30.02733517557408,83.26908073898721,82.86535186267702,93.36366658568666,399.9999999999999,393.2104742538615,376.6816920054587,346.81461952728705,{}
122,122,23,0,4.066666666666656,2.984742194699335,119.72500041274048,17.90845316819715,26.86267975229584,29.99628781784141,32.8321641416945,35.94105543078595,83.62606343433488,56.78859322709685,55.29630589465273,60.17539170888699,56.65160750971768,22.49800681007946,25.20861004020957,2.3040127456106347,6.912038236831677,26.86267975229537,27.0279901110536,28.461333916365675,76.30348092816075,78.60749367377116,89.59199773365062,400.0,391.0012275056347,373.1047131151992,349.2275918554264,{}
123,123,23,0,4.099999999999989,12.896517604383195,138.9745635500588,19.611613513818487,29.017164609862423,35.4654234120538,38.6895528131496,29.0171646098622,90.33317862271424,61.34324545533735,54.90104788792337,55.10233495625698,51.932063630006496,24.531861453128386,36.81037262146265,6.919242973958944,7.523104178959329,29.19573346211488,32.24129401095799,30.67111703729552,79.20646138917618,78.14970428042625,96.77760260465412,400.0,396.620337738362,377.2369180073608,351.43010471944274,{}
124,124,23,0,4.133333333333322,19.344776406575026,142.008169364724,16.120647005478997,32.24129401095799,32.24129401095799,38.68955281314958,32.402099467411674,99.99999999999996,67.78343894045652,58.12164098125709,58.4738933508404,58.675180419173785,26.21764065041998,41.41481430958834,8.303091568751142,9.359848677501304,29.195733462114653,29.195733462114696,29.1363031412534,78.9045307866761,78.30066958167617,84.07500858523352,400.0,403.02907144824223,390.1729452882748,361.2320106089236,{}
125,125,23,0,4.166666666666655,26.42373090919619,151.93645272787683,16.51483181824728,26.423730909195967,39.63559636379395,39.63559636379394,33.19440113542352,102.44521707245684,76.03999607891895,62.82869014618973,60.67339067479861,65.39452285022708,29.91760932907323,39.4111903340106,8.980414464129808,12.79495241746531,13.21186545459787,9.90889909094846,11.606116597927894,76.11970355310223,72.23674339432614,99.14402506585736,400.00000000000017,393.108505394504,383.1440981833416,360.02333363779496,{}
126,126,23,0,4.199999999999989,26.431842292240493,152.0190017675762,16.519901432650023,29.918813983342933,39.64776343836051,42.95174372489052,33.204590934262264,105.93366667082232,76.06333833656615,62.83968892162284,64.44879146813332,65.0416187221108,31.631568480088845,41.116804543730495,10.797924983163284,14.608957330161502,13.215921146120246,13.21592114612002,13.21157880292867,78.7613351713062,76.1359573322627,95.81542830937092,400.0,396.5326968981927,383.26171323748383,366.8013381502679,{}
127,127,23,0,4.233333333333322,32.510656606278054,152.83466794110038,13.40448711458694,26.0085252850224,42.26385358816143,42.38871014847297,35.76172226690589,107.3344140683104,81.3416368411685,65.07554628421803,63.63095170497013,63.61375415045541,27.86863709132536,43.7075847995086,13.973013043321089,14.385754351677631,13.004262642511314,9.753196981883258,9.751013409923416,67.34562348017926,65.84943623738673,84.52770717632298,400.0,393.4326778886716,380.38857548272296,360.8682883296864,{}
128,128,23,0,4.266666666666655,29.017164609862142,151.5683772195671,16.439898730535674,25.79303520876658,41.91368221424555,45.13781161534134,35.46542341205373,106.44510947225947,80.66769184299538,66.16310844436111,62.43702775571387,63.94760100786812,27.74419539790188,43.25274745335355,13.544806827650971,14.149036128512536,12.896517604383176,12.896517604383176,12.890225085050588,74.42090888947223,73.81667958861044,87.05149382958678,400.0,390.172945288275,374.01290737841504,354.6688889514004,{}
129,129,23,0,4.299999999999988,29.259590945650004,149.54902038887894,16.577247243512772,26.00852528502245,39.14801463431347,42.388710148473024,35.90919391221432,107.48202048331896,81.53631195847426,66.79161448573814,60.16661966151332,63.99995000005856,26.24997949221165,45.333297916708034,15.499987890639204,9.41665930990439,19.506393963766897,16.25532830313889,16.249987304702245,77.66660598965473,78.33327213548864,94.33694036176182,400.0,386.8904733133135,367.4279561304885,348.000725888115,{}
130,130,23,0,4.3333333333333215,28.791709181461613,150.356703503189,15.995393989701071,28.96889060259811,41.588024373222495,41.588024373222495,35.334980245678864,108.9566977303338,80.04092595228686,65.64136925081357,59.131076849353576,62.96545959206833,25.788263510045223,47.84820167238627,15.29673966508517,9.226993365979524,19.19447278764116,22.39355158558123,22.427059914303527,79.68989495922779,77.01398530048232,89.63131454471095,400.0,387.0885345507633,364.75110283671,345.63377942461,{}
131,131,23,0,4.366666666666655,25.18436202150976,147.95812687637095,15.740226263443711,28.33240727419881,37.90748464856958,44.18492068405581,34.77129631438982,103.93318004922202,75.61864189991263,63.020910633702215,54.95165190979674,58.74420351003232,22.150115197120613,47.08412465398874,18.196178422407,5.93090516207053,22.260041456582965,25.38035223048417,23.68327435466267,78.51388738360083,78.91735031979624,88.20146425477459,400.00000000000017,390.4083829550452,365.1732493118946,343.1513728137812,{}
132,132,23,0,4.399999999999988,25.18982339904768,148.02370578486511,15.743639624404684,28.338551323928296,37.7847350985714,44.194502444876925,34.77883667520893,103.95571857270907,75.6350402486954,63.03417602594118,58.12885484977801,58.736028154970654,23.72769363714133,45.52201964458959,13.565529897597798,7.509775090543144,22.04109547416683,25.38585610965548,25.2616051449968,78.5011170634848,79.04437738918386,85.07394376538129,400.0,387.3447302046982,365.2660111371656,343.2257872141881,{}
133,133,23,0,4.433333333333321,24.799496265348136,145.69704055892026,15.49968516584284,27.899433298516342,37.19924439802221,43.50968964602126,34.239923661894416,102.34488005989569,74.46304281148304,62.03926046805918,54.78563588590646,57.03841356450448,21.76886231978642,46.42159961111156,15.138346457246143,5.98344142294286,24.992491364900484,24.99249136490049,24.84446305120582,79.26262456400787,78.91112733755995,83.75568646375602,400.0,387.5417249646659,365.8057050044651,344.1488608704646,{}
134,134,23,0,4.466666666666654,30.992856001527485,145.69939059997586,15.803317753375913,30.99285600152749,40.40974027785148,43.38999840213841,34.232728349057105,111.7463314865792,80.81948055570297,65.22369828596902,57.18110098317061,57.85533069717758,23.357243663816234,54.17917344699595,22.63485468452245,10.402401301823376,24.98723934402156,28.574001376456035,26.495622451634745,77.32772696123834,77.66484181824194,87.00109269587105,400.00000000000006,387.4602854154333,362.6164152178712,344.0207016169548,{}
135,135,23,0,4.499999999999988,30.992856001527485,145.69939059997586,15.803317753375913,30.99285600152749,40.40974027785148,43.38999840213841,34.232728349057105,111.7463314865792,80.81948055570297,65.22369828596902,57.18110098317061,57.85533069717758,23.357243663816234,54.17917344699595,22.63485468452245,10.402401301823376,24.98723934402156,28.574001376456035,26.495622451634745,77.32772696123834,77.66484181824194,87.00109269587105,400.00000000000006,387.4602854154333,362.6164152178712,344.0207016169548,{}
136,136,23,0,4.533333333333321,37.77654303226485,151.1389607097059,16.051944173132895,28.332407274198747,37.77654303226496,44.18492068405576,34.62849777957638,116.52020773572843,88.20146425477448,69.32041017232177,57.69848921505536,59.105769439812775,23.789360653343465,58.117510855011005,29.133863079950515,10.538789548324075,25.18436202150982,29.02354316073368,28.50928365435584,79.0290625094126,78.39657701513966,88.20146425477459,400.0,390.4083829550452,368.33474750373927,346.28497779576213,{}
137,137,23,0,4.566666666666654,41.566759882826254,150.31383569478214,15.987215339548646,28.77698761118779,38.36931681491674,44.764202950736205,35.31691301696576,121.54490091853772,92.78096092014324,71.99184568873534,62.53660383256556,62.32984496943664,27.20469502940068,59.10917806300358,26.695750135544586,14.035745900874645,28.77698761118779,29.478968514256685,28.86671819839944,79.07731288288801,80.82681095551811,89.58548490370147,399.9999999999999,390.20597493554527,367.7615563110418,345.33865399415106,{}
138,138,23,0,4.599999999999987,37.48970455877996,146.86790798171216,15.930061258670635,31.241420465649625,40.73382868832228,43.73798865190973,34.36556251221457,118.75849778723824,87.53174777636661,68.78056120092447,61.06744914780893,60.9399596923854,26.645296183490927,57.75272330680036,26.071593634085502,13.70511645801571,28.117278419084684,28.80316648920384,28.23891437628299,80.44584637216553,78.91597290708523,87.53174777636661,400.00000000000006,384.2821712820586,365.52461944810295,343.7124230111602,{}
139,139,23,0,4.63333333333332,37.61965193129379,146.86790798171225,15.930061258670673,31.39723899069212,37.4897045587797,43.737988651909696,34.507276773284474,118.88171258550597,87.53174777636657,68.82827921138187,60.78941664345916,61.41085497873951,26.66607831004694,57.73799507406898,25.94903407703077,10.492747276466162,31.397238990692184,31.39723899069212,29.74936851201528,77.98254391955129,78.33309887791461,87.53174777636669,400.00000000000006,390.53025218887024,365.5379702386711,343.655625122148,{}
140,140,23,0,4.666666666666654,31.730046834773464,149.16497167306417,15.865023417386618,31.73004683477369,41.2490608852056,41.2490608852056,35.04698223823354,114.27222961689294,82.55911854160601,66.68359333775902,62.10129932175755,61.94107925126809,27.06116990568853,52.24776498664869,20.13966286053869,10.750766729850284,28.73277945400116,29.253657742518023,30.26557131547997,78.50783453988947,80.23821130117676,88.9007738789423,400.00000000000006,387.22359075520194,368.0822197736069,345.85751049903195,{}
141,141,23,0,4.699999999999987,31.730046834773464,149.16497167306417,15.865023417386618,31.73004683477369,41.2490608852056,41.2490608852056,35.04698223823354,114.27222961689294,82.55911854160601,66.68359333775902,62.10129932175755,61.94107925126809,27.06116990568853,52.24776498664869,20.13966286053869,10.750766729850284,28.73277945400116,29.253657742518023,30.26557131547997,78.50783453988947,80.23821130117676,88.9007738789423,400.00000000000006,387.22359075520194,368.0822197736069,345.85751049903195,{}
142,142,23,0,4.73333333333332,31.48045252688773,147.9916129301836,15.740226263443526,28.332407274198708,37.77654303226498,44.07263353764246,34.771296314389815,110.2265467449144,81.9096935294284,66.15942009029845,61.5346839286467,61.40621903526744,26.78493026956744,48.75242703741424,16.893133479367634,10.662586150475365,28.33240727419893,28.506762195381743,28.39074143680773,77.91395783449707,79.51976900173759,91.34757284529184,400.0,390.3703048578802,368.32129456458335,346.2849777957621,{}
143,143,23,0,4.766666666666653,28.33240727419891,151.2372837998255,15.740226263443638,28.332407274198683,37.77654303226491,40.92458828495362,37.907484648569664,110.22654674491432,81.90969352942835,67.74760563462837,63.86255336837712,62.19294412998829,25.172570055710366,47.19856885445665,18.30148588234033,12.008343368412852,22.03631676882128,22.26004145658344,20.54903678017149,82.42090221046965,78.34320272440414,91.34757284529208,399.99999999999983,387.414262885382,368.44235333352674,349.4897399816352,{}
144,144,23,0,4.7999999999999865,34.903051518250855,152.43637600297438,12.69201873390936,28.557042151296173,38.07605620172831,41.24906088520576,38.208035995043495,114.27222961689276,85.72986566302038,68.27032623017885,65.12239149276934,61.90124897076862,25.37869865818629,50.75739731637282,18.64358247582163,12.29890781127483,19.03802810086381,19.30063399711714,19.099097579942963,81.71615600004498,77.03085778622608,92.01713582084332,400.0,390.3311662300113,368.1232461956593,349.04493763309216,{}
145,145,23,0,4.83333333333332,28.55704215129624,152.4363760029744,15.865023417386926,28.557042151296017,38.2080359950436,41.24906088520567,38.20803599504359,111.1004833130743,82.55911854160641,68.28576102503303,64.29644377130944,62.76080700418561,25.37139006552184,47.571356372853415,18.42764120548441,12.08479368910389,10.03392182616989,9.51901405043193,7.928559395475759,79.81972848245096,72.70906258250875,88.84413113736599,400.0,390.48589582101073,374.6296098493647,355.5039884858509,{}
146,146,23,0,4.866666666666653,31.963199578932286,153.72272091324967,12.78527983157273,28.943908243438184,38.35583949471866,44.74847941050513,35.30450786137146,108.8627350241704,79.97189979636472,64.00415857546591,60.79391864691593,57.633838717249546,23.951399466915973,49.63331889531628,19.95531955585648,10.374759769089906,9.588959873679553,9.588959873679771,9.647439785278038,75.20655832613511,69.03687846345292,89.55401777409418,400.0,390.4223382396801,374.3107664775728,355.1512788647313,{}
147,147,23,0,4.899999999999986,28.91869455926285,155.06754778589533,16.384109762812486,29.0966574362536,41.89484958357056,45.099246704359,35.49082461698052,109.67285205391887,80.58635219459286,66.16390316111028,61.89391118583376,57.14574722118459,24.034434202685816,50.14094702598641,19.42049395435152,9.571828769725926,10.16099352955444,7.1849074283407335,6.644073957600995,76.45718440603036,72.59825256196905,93.23784358587378,400.0,390.1212866702122,374.1122722613704,351.4293860920667,{}
148,148,23,0,4.933333333333319,31.77205883158137,150.54056120469122,13.09995545059478,25.615452749431768,38.258625138344186,41.4256964706173,34.949264714739776,105.0401755796535,79.49366579928353,63.51072292707818,55.17711075440252,52.54805453326071,19.12266364622883,51.05164203003255,23.35560951171533,7.217503399549514,10.04720718606661,9.531617649474311,8.24266997634686,79.8637833214757,74.50646121046975,89.47093001982248,400.00000000000017,387.00663106995154,367.7058212456229,342.4609397699813,{}
149,149,23,0,4.966666666666653,29.1921746628538,150.92211744449358,10.257084643119535,26.74720435031647,39.05781468481968,42.66256774980651,39.05781468481956,104.60214949567832,78.11562936963935,63.55224488296608,54.87141548073964,52.08497641335816,14.468049003710576,51.120439813110806,21.970000338968248,5.0370244679584175,16.217874812696405,13.373602175158354,13.289170936741584,81.44975735422281,77.16292801979012,88.53236702201505,399.99999999999983,390.3760713943757,370.6485210332487,345.0102728536351,{}
150,150,23,0,4.999999999999986,22.87844373306911,151.6549203462207,13.340310483644984,29.29870351639184,39.36156291911888,42.55636532011806,38.96058577815439,104.34175723583542,75.04687534524001,63.578204461184896,55.86252286811009,50.59247354093009,14.377353320713382,51.0536028570582,21.92011142024012,4.41366631151368,19.680781459559388,23.5547994877062,21.78836018706079,77.93085442567735,77.8485099049401,85.66442138258998,400.0,387.2341343388694,368.1084009067308,349.0143897166124,{}
151,151,23,0,5.033333333333319,26.6484517282938,155.5966281326207,9.916000911996596,27.25647942925536,40.21111919859759,43.47487629143789,40.21111919859747,103.78958149892853,76.66664192655747,63.287915553970834,55.9085105789718,49.42824276338547,12.458314875464794,51.11311239543807,20.52624830587024,5.799839694949696,23.372238290416163,25.172671021102165,24.495412342917007,81.29495974653173,81.81338117177893,93.48895316166464,400.0,393.50132302912834,374.6854832188279,350.6926278403601,{}
152,152,23,0,5.066666666666652,26.189946984721058,154.10953510746478,13.497989718416276,26.99597943683278,36.60156361559484,43.67718431592823,36.60156361559507,102.7976270807434,75.93391121227805,62.954689418823136,54.7559391689299,49.48531400828438,15.519062973012067,50.65656404398328,20.204063115808367,5.563437669570476,23.14886138976561,24.93208673627972,25.91390703984121,81.40187748108269,80.81625246323324,89.89391713197303,400.00000000000006,389.7404891351734,370.4541153649983,347.3409320671686,{}
153,153,23,0,5.099999999999985,26.25954528052131,152.6671335942459,13.429349724663243,29.494256260618968,39.62427971959426,42.84040567084661,35.97579819768772,105.03818112208477,75.54777199451416,62.38821759999723,55.43432583806271,50.64532490767397,17.1551197711874,51.92457858086004,22.009723454047617,3.837761019558002,23.03114477163715,26.85869944932672,27.02833401808516,78.85450847023844,78.00167268811447,88.9014121340738,400.00000000000006,390.3762054135512,370.5653221807423,348.14376963970943,{}
154,154,23,0,5.133333333333319,28.888883384986777,149.87061627540697,10.150518950617275,26.469315022767063,39.04982608807842,42.219326201708576,35.45423848562258,100.33108948008038,74.10574042361618,59.67739913720857,52.51479549265719,49.060956766237496,15.394252609184832,49.52146859642676,20.3118610815634,5.707057324131483,22.69725038047969,26.469315022767045,26.347855427258537,79.8659088356851,78.69818240913378,84.43865240341694,400.0,387.33241823427375,368.3533680419208,343.0965497489162,{}
155,155,23,0,5.166666666666652,29.70775634461171,155.44297506991876,9.842018608185276,26.24538295516112,39.91110800824566,43.150514531642585,39.504532638899896,105.18637402873556,79.00906527779956,64.08564568876841,54.822528760303385,54.60882774864399,15.246745254926736,50.26083408834416,21.34544335689793,6.271302765234168,26.245382955161343,27.053121527228782,26.860573311645112,84.3790225267278,79.62828465214693,86.30102906328483,399.9999999999999,390.66188612337646,371.6439131350351,348.95627660396025,{}
156,156,23,0,5.199999999999985,23.00808653310681,152.47673912991482,10.393994006694788,26.49958913215159,36.30466029612096,43.23201854429084,39.44243405675427,98.82496684326924,72.38579213798553,60.817867637340896,50.25932356485464,46.43471162528522,9.120228471281052,50.40642402406843,21.85259044104396,0.5230238549841033,29.581825542565703,27.10422029124258,26.837661558858827,82.37625715995637,81.91861128684559,89.29160779237435,400.0,393.8350028286874,374.6742902411701,351.8792991757063,{}
157,157,23,0,5.233333333333318,23.48880878058796,157.00647911076348,9.9654575824489,26.574553553196843,40.41167465319724,46.62395418074578,36.690692233204565,96.56157585206714,70.07385266692722,58.33953868121239,44.66530995297308,43.59636844084412,7.441477449823196,52.38635672135365,23.64005267209086,2.1625509053076257,29.89637274734625,30.62565973955121,30.40727470657157,78.60831427658763,76.40465023619777,89.93484231413854,400.00000000000006,393.9963241557919,374.54155885608327,354.75100544194225,{}
158,158,23,0,5.266666666666652,23.06187204755296,152.44207508434351,9.883659448951107,26.561536657950427,42.95571763453772,46.24125700937056,36.38952892820004,95.76898237535649,69.26401346655531,57.72722210643201,45.8616606803962,42.21951312636224,7.651776363520412,51.716862017263566,23.51063409880044,2.7030287901013708,29.833447628147944,27.16758125043981,26.817965397867283,79.49027867930545,77.30172364683608,89.50034288444401,399.99999999999983,390.7623367895101,371.4672594394999,348.9894508367448,{}
159,159,23,0,5.299999999999985,26.373427323633937,155.8181949464679,9.890035246362665,26.578671098644683,39.69726493555539,43.36103462166795,36.41300325626103,99.11988736741692,72.6018109886876,59.39861685742381,48.50724485565206,45.84129708208411,10.76132576891473,51.920958468147774,23.6033912635412,2.4383668660684634,29.85269272852265,30.39387321267836,30.13821446460406,80.07596788168303,76.5972311527587,86.28233117980463,400.00000000000006,393.9772087659824,371.3412283043846,352.06611622958553,{}
160,160,23,0,5.333333333333318,22.53379729928764,149.333580063946,9.657341699695028,25.953325982110176,39.162210822126575,41.97211015767582,38.62936679877896,96.627054000248,70.82050579776163,59.381719474316014,51.66673959474701,43.65032966708532,9.140662539468169,48.880548339401,21.2467450115264,4.464423414998691,28.972025099084384,29.67876371320141,30.98212088912396,73.48375767023299,73.15788734797047,90.3648333634733,400.00000000000006,387.3785953893208,368.3881710364565,349.4629484388957,{}
161,161,23,0,5.366666666666651,26.15842657708925,151.29687727059758,9.809409966408412,26.36199716930471,39.37364595755204,42.63301936441948,39.23763986563411,101.41662803685354,75.20547640913176,61.87366558256463,51.25319243707804,48.52034341505009,10.808663347602078,51.359560812187055,23.24558105264032,2.528294454511069,29.428229899225457,30.1460970950384,31.525949945731327,76.61795880919544,76.1270278471543,88.82798522371257,400.00000000000006,394.021475922492,375.1734201968272,352.4417238736494,{}
162,162,23,0,5.399999999999984,19.88943712933436,147.72130413480997,9.80940996640862,29.4282298992256,39.373645957551965,45.89387662634512,39.23763986563399,98.14858125654646,68.74367814083045,58.72704517906777,50.75578419908334,52.3825721541823,12.526267254260802,46.36345672031689,14.803770391399668,4.066969887746836,29.42822989922539,30.146097095038613,29.93289837381849,77.43510666270436,72.22938520638786,85.26603872883881,400.0,390.7654383363448,368.3139903072704,348.8130798161847,{}
163,163,23,0,5.433333333333318,26.14183662248672,147.62761769987878,6.535459155621909,23.10633743553917,39.34867476912655,42.60598104643282,39.21275493373008,94.82048118363096,71.89005071183871,58.55017796717266,51.05890940571635,52.09388729907528,12.542946374280971,43.06658011810964,14.859325468941506,7.417341569073642,29.409566200297903,26.946388410538315,28.272967531286213,76.91692851916491,75.52052977415633,81.95424087524245,400.00000000000006,390.2303999981997,371.3296982392432,351.83904003217657,{}
164,164,23,0,5.466666666666651,19.60637746686498,150.88279112532445,9.803188733432828,26.34527810804998,42.60598104643281,42.60598104643282,39.21275493373018,94.8204811836311,68.622321134028,58.555494230430895,50.82942207502697,52.033062789763335,12.394246278774515,43.217207825071,14.7202006329278,4.033822935874014,29.409566200297807,30.126978117038217,29.895832887647884,76.80528993224857,75.30887174635973,85.52466759178002,400.0,393.7715832778148,377.8292452963039,355.0865982523263,{}
165,165,23,0,5.499999999999984,19.60637746686498,150.88279112532445,9.803188733432828,26.34527810804998,42.60598104643281,42.60598104643282,39.21275493373018,94.8204811836311,68.622321134028,58.555494230430895,50.82942207502697,52.033062789763335,12.394246278774515,43.217207825071,14.7202006329278,4.033822935874014,29.409566200297807,30.126978117038217,29.895832887647884,76.80528993224857,75.30887174635973,85.52466759178002,400.0,393.7715832778148,377.8292452963039,355.0865982523263,{}
166,166,23,0,5.533333333333317,25.9128425657253,149.87645185175737,6.478210641431497,22.673737245009665,39.00399307006702,42.23276639502847,38.86926384858784,93.9340543007543,71.26031705574465,58.0346026109828,50.26064992056649,48.44399992343756,10.662589848013567,44.14786817347044,19.402149293660614,5.572696612814525,29.15194788644116,29.86307550619177,29.794696574532963,76.29929987941387,75.12093231370864,87.99403854621139,400.00000000000006,393.854429295152,378.0883754787114,358.7811790301011,{}
167,167,23,0,5.56666666666665,22.703531919157623,146.52673977839498,13.372722882467013,29.369889360566702,42.16370213557842,42.28826282684786,35.676978730104835,100.75324463788968,71.42763219068789,60.0494150600955,51.3870300025269,51.6806701739697,16.00338934364413,49.18472871670383,17.765230372301858,4.257782485923826,26.14881801842456,29.902317409463144,29.65765731574401,79.28284628961251,75.17188388941031,87.81068633027282,400.0,390.5524669673799,371.4605039340064,355.6623771158912,{}
168,168,23,0,5.599999999999984,25.48284436071696,147.0792866806417,9.556066635269032,25.68115742448493,38.356760063277534,41.531955061948246,38.356760063277534,98.95131530420004,73.3323917022735,60.5594454624636,53.27677564469013,53.98885891576128,15.277422906618312,45.28202255584529,17.575509826893494,7.185567553536657,28.66819990580685,29.36752706023833,29.130679271094323,74.8011108838873,74.02429276999146,83.06391012389626,400.0,393.65891452560527,374.9800764149496,352.8275572851179,{}
169,169,23,0,5.633333333333317,29.428229899225485,154.5479380387244,9.809409966408577,26.15842657708937,42.63301936441944,45.893876626345055,36.11615814819234,101.41662803685377,75.27652552881253,60.53061546228855,54.465407304261134,52.65151327569242,17.44253454257796,47.663304697127614,16.21167788033449,9.085665625242427,29.428229899225496,30.14609709503837,29.913055988989072,77.10669169657672,72.45858824836887,88.8279852237127,400.00000000000006,390.4780453612229,371.2342945320187,351.7129102923121,{}
170,170,23,0,5.66666666666665,26.103538645893188,150.66174676312568,9.788826992210147,26.10353864589295,42.54356298115172,42.54356298115172,39.29102868071022,101.2038266710898,75.11857364505774,62.0408340909396,54.80059152327272,55.12238008183567,15.67110280201632,46.080121586216364,18.052338135382342,7.433315702804293,29.36648097662997,30.082841879809365,29.829799378786905,76.29606723527831,72.85292965865483,88.34081171899922,399.9999999999999,393.50597499352256,370.7856975901267,351.3235933359666,{}
171,171,23,0,5.699999999999983,22.507573177686787,145.26203807378658,9.6461027904372,29.11639194982356,38.718153022600646,45.12983481222084,38.71815302260077,99.883623158349,70.81112595896303,59.54048913657971,54.507638832668135,54.13363057098832,15.602649003563329,45.539571166732685,14.773326336360242,7.537079534290342,28.938308371311585,25.923122321028792,27.6440889067826,77.50101631160396,75.27322797029274,87.34917584947091,400.00000000000006,390.6638550073471,368.254353758069,345.8575895004224,{}
172,172,23,0,5.7333333333333165,29.4095662002978,147.62761769987895,13.473194205269124,26.14183662248696,42.60598104643279,45.74821408935212,36.09325289346189,104.77138053077071,78.69734953825301,64.038965644168,55.8956587209525,54.59272961323791,19.15305788340333,49.511306093151234,18.37130041877458,7.556988824744167,29.4095662002978,26.946388410538248,28.208415182019053,75.0487166043556,73.87608040741247,88.4704215157929,399.9999999999999,397.0257818280805,377.829245296304,355.08659825232627,{}
173,173,23,0,5.76666666666665,25.930702642804658,146.43530642939965,7.2478517267053,25.93070264280442,42.137391794557175,42.13739179455704,38.89605396420676,97.29414220982656,71.38306102482515,58.408240878456354,55.01637582049671,54.513276218598094,16.009927653958584,42.39831322449777,14.630461003592243,7.619524615847695,29.172040473155064,26.728756485691346,28.003173002438416,78.58091201263824,75.96803988665033,90.98868882011516,399.99999999999983,393.2852916627522,373.8936225729483,354.7895601872476,{}
174,174,23,0,5.799999999999983,25.51847113052502,143.86002736054957,9.56942667394662,28.884948027917808,38.41038545304927,41.46751558710273,38.41038545304938,102.27305326665132,73.43491543163589,60.687861526464985,59.1694404551813,58.43472058197949,20.40072181256869,43.47092583110384,13.445373679592194,12.85759778103079,15.949044456577711,16.264897781449942,14.522962826954654,77.88030655938587,76.70475476226329,83.18003918560578,400.00000000000006,387.5584985845612,368.8197133046153,346.9861150967749,{}
175,175,23,0,5.833333333333316,25.50144881731307,147.18666598910772,13.143145885008208,25.69990666502757,38.38476347873832,41.56227661649495,38.38476347873821,102.4530822659546,76.76952695747664,64.0386650274952,61.83557593058436,59.01959738566097,22.04745554878332,41.99120947871188,14.825298810038248,11.214220440665713,7.127871635030566,10.080332737114484,8.166337780278127,78.36702644725301,72.83445683546188,82.94098756198228,400.00000000000006,393.94631612352765,371.7443032565307,346.3881609319037,{}
176,176,23,0,5.866666666666649,25.50144881731307,147.18666598910772,13.143145885008208,25.69990666502757,38.38476347873832,41.56227661649495,38.38476347873821,102.4530822659546,76.76952695747664,64.0386650274952,61.83557593058436,59.01959738566097,22.04745554878332,41.99120947871188,14.825298810038248,11.214220440665713,7.127871635030566,10.080332737114484,8.166337780278127,78.36702644725301,72.83445683546188,82.94098756198228,400.00000000000006,393.94631612352765,371.7443032565307,346.3881609319037,{}
177,177,23,0,5.899999999999983,28.72563938947902,143.94701686676757,15.958688549710573,32.07656700015964,38.43361150496607,44.6843279391897,32.549465730529704,108.94069898143012,76.8672230099319,62.48581575430967,63.30332543577879,61.172845659829136,30.033158702051423,46.63108253793962,13.600388337167717,16.29238991453053,9.575213129826794,7.136942485780067,8.133808446940066,79.75261114776322,77.75425414861684,86.23600416658124,400.0,390.4501152512081,368.4349352881897,343.0041585682456,{}
178,178,23,0,5.933333333333316,31.47168183398294,141.7623733888943,16.047471979706284,28.324513650584603,41.034052781574864,41.03405278157497,31.628648801901843,107.18868590728052,78.93057648604852,63.131662262450845,63.51038637096303,62.40714657660101,31.392935342556484,44.20368996962702,11.946275683726752,18.00586141992426,15.735840916991242,16.047471979706284,14.21038720200704,76.8315952312455,71.56239024324736,88.12070913515214,400.0,387.5619741005637,368.7025392661541,343.74799514311746,{}
179,179,23,0,5.966666666666649,28.56333353554657,146.02486410879422,19.0422223570312,31.737037261718665,38.08444471406239,44.43185216640601,25.587217457133093,104.78029834970737,73.0641466863473,58.75557205616815,62.3378299293031,61.421818783661365,36.44415772303523,42.88895042630088,10.812202986950751,17.109779613238288,22.215926083202834,22.21592608320284,20.62660811882733,78.02452079841919,74.49133495094384,85.69000060664028,400.0,393.65441992849696,374.61805121130834,352.4097537823075,{}
180,180,23,0,5.999999999999982,28.346456692913577,141.73228346456688,18.897637795275493,31.496062992125896,34.64566929133856,40.94488188976376,25.39293778991672,103.98471823130194,72.50938225651248,58.25042808890999,63.35403955204311,62.61199588212071,37.80300251771428,40.93607579072045,9.539383623336334,18.98807302034811,22.047244094488263,22.271079722410786,22.030452067029955,78.12895351316524,79.29973352570937,88.18897637795271,400.00000000000006,393.7133856252033,374.81638301259176,355.90551181102364,{}
181,181,23,0,6.033333333333316,25.193726559025663,135.41628025476217,22.044510739147256,31.64922729384207,34.64137401866009,40.93980565841645,22.26831861655824,100.7749062361022,69.3542841927085,56.62943571829578,64.0151670725304,61.88847210669064,40.95948560177749,37.81065817173544,6.569673983621897,19.164983703790085,22.044510739147256,22.044510739147256,22.04179201029433,76.94019694244139,77.25343108469679,85.0871259623034,400.00000000000006,393.7653329334549,377.9583816712949,355.9171216148855,{}
182,182,23,0,6.066666666666649,19.46234907568775,131.33919447025318,22.39713335038501,31.995904786264244,38.52817136178342,38.52817136178342,31.995904786264244,105.63495331422928,73.66010448258913,64.01074026771971,69.22606576224553,71.58772258995532,38.42612463419596,35.2280476800056,0.6396153908381166,16.63000016179035,22.397133350385243,25.59672382901135,23.93637597251768,76.50784098101758,76.99985282012358,86.62562540185246,400.00000000000006,393.6666696554584,380.8722406556983,361.9074880136505,{}
183,183,23,0,6.099999999999982,32.150344021463866,131.5128804059796,19.19447278764133,28.791709181461545,35.33498024567892,41.71088438792898,31.99078797940176,112.01344973063598,83.23754675761671,67.18975700989063,69.87800296003002,74.09068106482187,40.02044199552279,40.02044199552279,8.843345671343513,21.497771729317265,25.59263038352177,25.592630383521545,25.57112001352266,75.18892788591575,71.97614614062718,89.80242125065008,400.0,390.6152502940879,377.8300316453149,355.4578206326941,{}
184,184,23,0,6.133333333333315,45.23958829750746,135.98641731597831,19.33912325318973,32.23187208864963,38.812313620700905,42.02521960890173,35.455059297514424,132.1899768804849,99.97077684814612,77.33812385590886,77.48593509283887,83.46407845311728,45.06600379286783,51.66823904240596,17.244644308495253,26.73741041355288,25.785497670919785,25.78549767091956,24.1425020318934,77.94579227439863,76.7304554374191,87.08572283603783,400.0,393.7041044848136,374.3895318909265,354.9166752543647,{}
185,185,23,0,6.166666666666648,52.04982560742748,146.68112068757014,19.48067349640416,32.46778916067338,39.09639539425377,45.57071368735015,35.71456807674075,139.6492415309371,107.192886562044,81.10384193835375,79.36237324597892,82.84531063072791,45.46448265254935,58.42424966556951,24.048467663534893,27.288409416789364,26.17636847307636,25.974231328538657,25.919534026039173,76.65702188201135,75.62024052096967,91.1414273747002,399.9999999999999,390.2757910024161,377.52095494046335,354.6279315349347,{}
186,186,23,0,6.1999999999999815,55.3143461280171,146.7439774659217,19.757848273891167,29.23353222804586,39.113149244020725,45.590241955447176,32.48170247560651,136.57773758640275,107.38629653336598,79.72840542788117,76.41355025918278,79.80206887607437,45.695892362576615,58.44785372759475,27.312769624560133,27.312769624560133,25.98536198048497,25.98536198048497,25.823131005539835,76.6099861210314,75.72602474271184,91.18048391089437,400.00000000000006,393.6857379565069,377.4731612593811,358.0214523869643,{}
187,187,23,0,6.233333333333315,51.1674479481837,153.734446019864,15.958688549710669,28.90241422344297,41.980755142904734,44.79817354520294,35.25389527848143,131.21109114447074,102.33489589636784,76.74838106878292,72.51421054024627,74.3888814612776,38.20450049412557,57.75925751523073,27.27969409225216,20.459770569189004,25.5339016795368,28.725639389479067,27.061521183338986,75.08380257855674,75.22925118449871,83.23033662172286,400.00000000000006,390.6979000484313,377.97506144923113,355.4455310334397,{}
188,188,23,0,6.266666666666648,51.57793488265497,154.96776884521194,16.086715907017492,29.134281629169376,41.94902281313635,45.50010361949457,32.3338988035668,129.05517079683517,99.94499360538964,74.15230685764209,70.21052209262552,71.43578034269217,38.498903962615486,58.23201051631759,27.60055426465533,20.700415698491724,25.73874545122804,25.73874545122804,25.66593597507699,78.15857889897802,79.52893352076262,86.92782590893626,400.0,390.6257431900802,374.5960279069947,355.3671695478769,{}
189,189,23,0,6.299999999999981,41.92326434149999,161.57022212073517,16.39522211952062,29.116391949823804,42.29155777924459,45.47216463427091,35.36904356493646,122.56414443532476,93.4671467485948,72.47566682818615,68.49100041285283,69.1375994254829,33.60698368145404,53.73237794956867,23.56853401037029,16.24580019233349,25.923122321028885,28.9383083713116,28.8059860126748,79.1760490965662,78.88507954088254,90.25966962444164,400.0000000000001,394.1678731522667,378.1715201203509,358.6540417080185,{}
190,190,23,0,6.333333333333314,34.65877622234754,154.90344387093822,19.086846054487403,28.929622827183326,44.3760156980183,44.3760156980183,22.18800784900898,104.73115765910072,75.89466384404106,58.53858846822959,51.67300123278346,55.42372063690755,31.3820921817171,51.037149659981424,18.214330496851744,11.356792015491692,28.414514167668266,25.29822128134687,26.697717303604804,77.34852676745322,76.89779653863138,91.21403400793103,400.0000000000001,400.0000000000001,393.74806470830873,371.59448534452383,{}
191,191,23,0,6.366666666666648,35.1255344870071,157.40773445920965,16.215475935637038,28.79717941929025,41.82790159539554,44.973638416916906,31.959774983408145,112.02860208887282,83.23161311761558,65.67270866065792,59.47411246998536,64.12508529801971,29.842391856533595,50.22888599474618,17.250733712342935,16.1811720166977,25.63891865013179,25.44093175938686,25.10228888719508,76.71674344220992,76.7491544026841,83.23161311761558,400.00000000000006,394.0522341822416,371.5704478112045,355.40558256849613,{}
192,192,23,0,6.399999999999981,7.104448333253955,144.23954838605118,13.099955450594727,28.770822935153067,38.25862513834423,38.65237779423499,41.4256964706174,89.86495300827693,61.11477540554879,57.738664317231496,54.51885620226653,53.79258369513127,12.806605209146936,35.7083982674701,6.41540714635903,2.3966992735456643,26.19991090118992,25.615452749431302,26.968919098279,76.8880494220241,75.91968607917715,86.3124688054592,400.00000000000006,394.0888144706111,381.079323900026,362.17359938063976,{}
193,193,23,0,6.433333333333314,7.090148259208881,144.40249280958304,16.168025610919265,28.71291204904257,35.45074129604512,38.57457698007731,38.18161688285829,89.68406978951346,60.991761517272,57.622448770712026,51.31708459141919,53.63201932219931,14.350976495360785,37.20893341746887,7.551867495866418,0.8337002701759957,29.23343017400788,28.53729626065756,28.26486741218196,73.94840454687778,69.99844598526693,82.98805769655243,400.00000000000006,394.1637823855416,378.0186201296976,358.7362791580534,{}
194,194,23,0,6.466666666666647,22.26900879674449,147.04292441876163,12.984951903970552,28.51824599400804,38.95485571191122,41.422750809810175,37.92275547859767,101.56230628545867,73.04778011695414,61.91016928929935,54.13705745736161,59.01747278635367,18.713645533022373,44.97415847875732,12.847450948836467,5.300583536123668,29.03523514184324,28.51824599400804,28.28863256092881,73.36783309146881,72.72142046511249,85.55473798202433,400.0,391.04785258349926,381.2620799629231,362.5405575095366,{}
195,195,23,0,6.4999999999999805,38.79091034824216,153.07629403863086,12.885639055332526,29.699930532817127,39.84663815904061,42.37103007843797,35.581633825829265,116.68442439706232,87.21636013477577,67.61009012616682,59.35789497158112,58.97182736200989,23.64664108623947,57.42755692372498,24.322259402989403,10.616859263209562,26.56442543936033,29.17110609926557,28.906812266648103,73.73891342811066,72.00160918504002,84.31236204475569,400.00000000000006,391.38471491704513,378.1556377216144,358.56186419544395,{}
196,196,23,0,6.533333333333314,28.489121870551827,149.49756041197074,12.584388818789224,29.005583045671752,38.2739243868176,41.38044802201821,37.8840270444368,107.70501925298468,78.90371647687635,64.45035590787688,55.17377868225185,54.1052724049548,16.85325810100494,52.98819766050747,23.847117370585693,4.225456642038807,29.00558304567176,28.314874842275582,27.975437078324603,71.97846831610673,73.92120700210126,79.65281919254421,400.00000000000006,391.0916459521479,377.75444738319806,358.62748292974845,{}
197,197,23,0,6.566666666666647,28.712912049042668,150.67190639148396,16.168025610919138,28.71291204904243,38.57457698007727,42.303891112015805,34.87891765191478,108.22641611294571,79.52352767618908,64.96494334938257,55.49963832632488,54.65971364851089,20.610459401743583,52.91525470228157,24.002462908299776,4.231928184370645,29.233430174007964,28.537296260657644,28.202086297369988,72.23352229200395,73.84876205703063,76.69167929765938,400.0,391.0266582087925,381.1572966054316,361.8754994322707,{}
198,198,23,0,6.59999999999998,9.926750261699157,136.75877437991298,16.006403842561763,28.4258867973681,31.54770585410707,38.18897075361614,37.799938835838056,91.89619020380005,63.48465298013461,58.58894220309821,51.46522466475608,52.33751660822668,14.198974413157655,39.98004740906208,7.802166827707879,0.6299886258398146,28.941201624055434,28.252026531577737,27.9133421910542,74.43557917614453,74.2417365220399,79.04087237667845,400.0,394.2807234801742,381.38621012839184,361.81608940481846,{}
199,199,23,0,6.633333333333313,10.0832147993629,135.76815646945326,15.942962451352644,29.39737022023892,35.21915519172972,36.35554798062084,38.79090184841509,93.83351060128822,64.48529232487682,59.52043382390593,54.89365953044262,57.37200123894127,17.348391959489163,37.67401259477174,7.99828460469962,3.910630098474712,29.39737022023891,28.873933047971946,28.62162810756149,73.38466357631751,70.89022873984186,80.28670744121929,399.99999999999983,394.20082915024255,381.6200420791468,362.2246682662095,{}
200,200,23,0,6.666666666666647,16.02467233539567,130.71503262091335,12.957670877433811,28.45832994414592,35.1364184463153,35.83225665910469,38.23255674241177,95.58139185602916,67.18318425702661,59.10912994235355,53.729617770012965,57.38146317163228,17.33398366643064,39.99835154015727,10.652580420418415,3.9875531627549208,28.97423291201176,28.458329944146147,28.224015917896168,76.08284186512628,72.8076441955127,79.13108362117714,400.00000000000006,393.7787810370967,381.34265722866905,361.7788697772217,{}
201,201,23,0,6.69999999999998,10.015975702073709,131.7395919333432,16.15027554216272,31.8312687395862,32.30055108432546,38.53222787635114,38.13969919041957,95.86078898397923,64.05527740100185,59.12538830580024,53.887663342575024,57.18458789307033,17.467203714568768,40.318301461104056,7.657635101273172,3.613624199434071,28.68138957528296,28.68138957528273,26.87074713691664,76.80372511966198,73.70169266082189,82.89694924796905,400.0,393.7310496322067,380.7388430239904,358.8040689529206,{}
202,202,23,0,6.733333333333313,16.277842389771585,129.63446895560327,12.76939015148182,29.43199004852632,32.55568477954294,35.6915305124124,35.691530512412506,93.94401368371663,64.56123346282996,56.432335513412,54.53776356073786,57.8573127085856,20.52452948730252,37.72141336542131,4.396378505564371,7.084403669187168,25.737528672458247,25.737528672458247,25.730554126488187,73.38632555144432,71.52413944411501,83.55173080041625,400.0000000000001,394.1612072805247,381.05452073253343,358.97944514723486,{}
203,203,23,0,6.766666666666646,9.42809041582056,126.6861583443487,16.024672335395604,32.049344670790994,35.1364184463154,35.13641844631528,35.13641844631528,92.4828979852658,60.45098003882418,55.77283937234097,56.2581116021031,54.41742383403903,20.230831923540336,37.09822528907284,4.60171942016018,6.844011792165247,7.027283689263011,9.938079899998987,8.216160855631415,76.33834179916562,72.55656511205211,82.25224677031892,400.0,390.6689419728964,374.6669302753785,355.55555555555566,{}
204,204,23,0,6.799999999999979,19.32618889711727,131.23052657099626,13.09995545059494,25.61545274943156,31.93052394843309,35.52224166626946,38.652377794235,96.63094448558726,71.04448333253872,61.265789807587225,59.24877491485677,59.364981534190974,20.693078714308967,37.22762055101316,7.213110871534127,9.60364704069616,7.104448333253749,7.1044483332539246,8.267270918352096,76.09873471832543,74.05681840716625,80.00000000000009,399.9999999999999,394.0888144706111,381.4896916799249,362.1735993806397,{}
205,205,23,0,6.833333333333313,25.459320536521947,146.491108089,15.789200327845125,28.595457998369337,38.02542981424966,39.06032441744609,34.87948355874887,104.6384506762464,76.05085962849932,63.305650003452456,57.85111619114468,61.48747206601661,24.79333551049058,44.95858172568956,12.066089948438504,11.07435652801928,13.020108139148514,16.101888115141815,14.29749014438312,74.21471762806868,72.23125078722933,82.64858382091984,400.00000000000017,391.2919368823208,375.62371523116536,356.43048751130647,{}
206,206,23,0,6.866666666666646,25.681157424484848,144.60952867682488,15.926777725448348,28.84462126268852,38.35676006327754,42.49794360738813,35.18340196361439,105.55020589084364,76.71352012655507,63.85829226371925,58.31837807772399,62.39867415483445,25.178412378266785,45.18181509775877,15.160124449100977,11.328626913278184,13.133557367551555,16.24219008214289,14.422022109949012,74.92153406629109,72.46672179225743,86.53386378806543,399.99999999999983,390.8133994591005,372.1825906443545,352.82755728511773,{}
207,207,23,0,6.899999999999979,35.28986406251244,153.65895895361643,15.974970853193,28.75494753574727,41.65762736367146,48.34903509735197,31.94994170638601,111.8704294351657,83.13126792627888,65.5073458684285,63.6961971820017,66.92153045920008,33.386334461664774,46.55231030089408,15.556030498486734,18.21899797350693,22.592020439100427,19.16996502383151,20.683483400699288,72.24746540924002,71.93320216684651,83.13126792627877,400.00000000000006,390.6264211407095,374.9186462730421,355.8081843924379,{}
208,208,23,0,6.933333333333312,38.38035428662097,156.85027110041818,16.308514620507136,25.58690285774754,41.701549662978266,44.89116191843965,35.3270724219401,115.14106285986338,89.55416000211584,70.348557657544,68.62416416903193,71.73811745896592,35.07382872264475,44.934680807436735,16.624492564003276,19.487320588619696,22.388540000528845,22.388540000528845,23.982462837799176,71.33631703445826,69.62866523030084,86.35579714489737,400.00000000000017,390.67187318669465,371.6849938747814,352.74912004384595,{}
209,209,23,0,6.9666666666666455,31.999999999999982,160.00000000000003,16.000000000000103,25.599999999999984,41.59999999999998,44.799999999999976,31.999999999999982,105.60000000000004,80.00000000000007,63.99652806032259,66.42972938761591,68.096305639187,35.26475348324038,38.331253786130446,12.499321886781445,19.03230079293985,22.4000000000001,22.4000000000001,22.415450583628854,71.52945271742283,69.229577490255,83.26151572004922,400.00000000000006,393.6520290815227,374.5230567001184,355.3297060477776,{}
210,210,23,0,6.999999999999979,28.79631430763796,163.17911440994763,19.19754287175841,28.796314307637733,41.59467622214353,44.90839240599269,28.79631430763796,105.58648579467209,76.79017148703434,62.37889194921604,65.66803536428961,69.01459524795564,38.55105748340748,38.2229633771658,9.038992626960637,18.89822051952569,22.397133350385005,22.397133350385005,22.392422751000367,72.60722571130304,71.34406340227224,80.05372819896631,400.00000000000017,393.5496288710504,374.36575921316864,355.2842325761237,{}
211,211,23,0,7.033333333333312,28.799078444234137,160.02687602253826,19.19938562948988,28.7990784442346,41.59866886389413,44.79856646880919,31.9989760491492,108.7965185671078,79.99744012287321,65.58989481042295,69.23933255521024,68.53944038497707,36.89431583086298,39.89385370329092,10.798336340740434,17.347327362207807,22.626692955379603,22.62669295537959,22.446541745335708,68.88938647009354,68.68941727859828,80.06141249624991,400.0000000000001,390.3875077996224,371.2019145759776,352.04691168963,{}
212,212,23,0,7.066666666666645,32.24129401095804,158.113883008419,16.120647005479128,25.79303520876638,42.03750429261665,45.13781161534134,29.017164609862213,103.17214083506576,77.37910562629938,61.20697145085183,67.83153165376461,67.86457185427798,38.855275803617815,35.23737384741344,8.673052634736223,21.82305243902169,22.56890580767056,22.56890580767033,22.54993685031377,72.1432778207477,69.59918238122532,80.66769184299564,400.00000000000006,396.62033773836185,386.9492598904018,370.77488112601753,{}
213,213,23,0,7.099999999999978,32.24129401095787,154.89249172146458,16.12064700547928,25.793035208766664,41.91368221424536,45.13781161534132,29.01716460986216,103.17214083506596,77.3791056262993,61.1772376434385,67.0194480749335,68.54638943771056,38.80422724100913,35.25242885367993,8.331788740370712,21.543150966137546,25.79303520876644,22.798037629377493,24.314881483352337,73.42596292310691,71.63346654071643,80.86075400626399,400.0,396.6858547511712,377.2782492257901,357.8928863323746,{}
214,214,23,0,7.133333333333312,9.662036186741734,151.91911180494884,16.10339364456947,25.965942036966474,35.57355928122979,38.64814474696681,41.99251303184105,93.62153543000838,67.71089271229765,62.87733879643156,66.12413244202844,63.49657263605582,22.819603792636144,28.81110959224316,1.7991253448542466,8.660905729878323,25.76542983131121,25.965942036966467,24.31748024253784,72.3164708382701,69.93995177809074,80.77421158822007,400.00000000000006,393.2526540520264,373.8207823403648,357.62588313103294,{}
215,215,23,0,7.166666666666645,12.779976682554231,144.65951364618277,13.17329843877581,22.59202043910052,32.10929402512447,38.47282448443491,44.72991838894059,92.8749139924254,70.3624477896493,63.96303653409223,65.22437300959564,59.74751726069826,17.874465580492142,30.3882511400941,6.68840262668391,6.9207540826973855,25.758866507999738,22.59202043910029,24.131358360293007,75.74657466050758,71.9957582991417,86.50118508467945,400.0,390.11650743198845,370.8396027578321,354.7738560866813,{}
216,216,23,0,7.199999999999978,12.75923556526248,144.1073614966282,15.949044456577871,25.717061449600937,32.057182612867244,38.41038545304927,41.95538549482149,96.17154783860198,70.46518156082922,64.09120281786454,62.16912951722543,59.88252507336142,19.204163408972363,35.1109769315035,8.268229112232348,5.318840771596342,25.518471130524954,22.55535497738394,24.0921946476667,72.44227991719345,68.69755090043077,83.18003918560582,400.0,389.9924584489536,370.6909288152091,351.2412692904724,{}
217,217,23,0,7.233333333333311,22.475645467378,148.56703856661352,16.37196497410715,25.886349545339588,32.268205921650875,35.46451689735645,38.66323008783349,103.1963397416908,77.32646017566675,66.13403609141187,64.04212511168362,62.46083807188893,24.59230781680617,39.943969494813246,12.502050658376902,6.736941659125023,28.89725845805686,25.88634954533981,26.03358506661948,78.68550196978208,73.06863863051149,80.52661722979683,400.00000000000006,389.8321076629636,373.3382424812239,353.9031261241024,{}
218,218,23,0,7.266666666666644,22.61818696821668,146.29742437400108,16.475796673289278,26.05052187670981,38.90843393979807,42.12929682414866,38.90843393979829,103.85081532368034,77.81686787959636,66.54588610220844,63.39271594544175,63.63970055302116,24.62436537569033,40.31612077725026,12.094012951149807,9.2454571437313,29.0805261019926,26.05052187670981,26.22976532495796,77.98127343314582,72.25123053729817,84.56780053565785,400.00000000000006,393.2215212363872,376.4971202626503,353.3960156574277,{}
219,219,23,0,7.299999999999978,22.61818696821668,146.29742437400108,16.475796673289278,26.05052187670981,38.90843393979807,42.12929682414866,38.90843393979829,103.85081532368034,77.81686787959636,66.54588610220844,63.39271594544175,63.63970055302116,24.62436537569033,40.31612077725026,12.094012951149807,9.2454571437313,29.0805261019926,26.05052187670981,26.22976532495796,77.98127343314582,72.25123053729817,84.56780053565785,400.00000000000006,393.2215212363872,376.4971202626503,353.3960156574277,{}
220,220,23,0,7.333333333333311,22.935538512984174,154.1295492043217,16.539052027788838,29.37182051021302,39.0578146848196,42.66256774980664,32.59752494130196,101.38442006169748,72.01905177828023,60.55155403608546,58.41130518623322,56.26272851984504,24.75859856268471,44.04582166096202,15.298198977346829,8.869124611254392,26.150537373919537,26.747204350316643,25.191645022577177,77.09892549389019,74.23415660537262,82.12075890180962,399.99999999999983,396.327167333434,376.6040566238559,350.0206652049121,{}
221,221,23,0,7.366666666666644,25.978510655606872,151.09608539496736,13.389017928662629,29.93875424045309,39.102836634456615,42.7117448989155,36.306072362587045,105.17487547991264,75.32088257761241,62.45285279114523,58.14232937046632,56.21917276739418,20.90603859029329,47.97944145940392,15.451568569510757,8.12367875435666,29.22582448755751,26.77803585732528,26.625771590809563,78.56757880999135,73.85916091971103,88.21703223814745,400.0,389.4881871303132,373.3846113802145,350.4241340852872,{}
222,222,23,0,7.399999999999977,26.60850989238025,153.56520585331563,13.20151784926289,26.60850989238048,43.03168345761996,43.03168345762006,33.657398561217306,99.88760788642531,73.2803163576055,59.97677820561353,56.09007919324813,53.608508153640514,21.25769628961825,45.03804923208213,19.03907317473704,8.340379487422751,29.88620713326756,27.215626255493948,27.050767756251844,76.172726944244,72.16277109216298,86.81942858560261,400.00000000000006,390.1992173656416,370.1283970391604,346.7912098603935,{}
223,223,23,0,7.4333333333333105,26.576865911621592,152.92138418781713,13.185818038244102,26.576865911622047,39.69456875156497,42.980508334742346,36.8554818405704,103.03727602150636,76.46069209390834,63.16920049674354,56.72336371136157,55.335029634509965,19.238343636370928,47.00502517340124,17.651676119969125,7.040837104032789,26.57686591162182,28.164919675957936,27.37001465792946,73.97837295223053,73.97837295223053,86.71617919889387,400.00000000000006,389.7351757272248,373.43170202481866,346.3787908855459,{}
224,224,23,0,7.466666666666644,30.199300912689647,154.70740333885803,10.004864658545484,26.887265871345665,43.86448299098227,46.80832240419449,40.57147724380372,107.54906348538243,80.66179761403677,65.55833916698634,57.88018624117512,55.5278718604518,16.184585563144765,50.83980869323591,21.28678858612193,6.891287199865246,30.199300912689647,27.50074250479486,28.92352752635702,74.11446858701106,72.1597284678187,90.59790273806904,400.00000000000006,390.0756894687594,370.70540067751625,347.1237900549783,{}
225,225,23,0,7.499999999999977,26.693144797351444,154.05365773043496,13.243508521163385,29.981267559834613,43.16855630224455,46.47037499591437,36.56983318761094,106.41264170743472,76.43753416492116,63.06086766819067,57.03657563174579,51.49984632527367,17.709270005626195,52.11962945659525,19.857851527540333,5.181386977847751,29.981267559834613,30.524778895350405,28.71661841789592,76.55561238083055,74.48966860975884,83.82471369099221,400.0,386.8487552531903,367.1343256148487,347.4370791656705,{}
226,226,23,0,7.53333333333331,29.388979158317166,151.48273056946047,13.463762810979835,26.32683610374774,39.32113023433709,42.57615635896739,32.65442128701941,101.43916090714102,75.17612331603516,60.41476925304619,53.34125500268965,49.86247750251414,19.133276250964627,49.7465182525084,21.33650200107581,6.957555000350794,26.32683610374752,26.92752562195968,26.670627501344825,74.90967550377695,71.08302025358421,85.46479931932475,400.00000000000006,390.89947454590754,375.0570322064777,349.1428071244551,{}
227,227,23,0,7.566666666666643,29.58182554256572,152.47673912991488,10.393994006694872,23.24167715669505,39.57915000934864,42.85553516163976,39.4424340567542,102.1047905398255,78.95331486661438,64.07936698301933,56.95943731823945,53.45783256506888,15.990661706145149,46.8047835340451,21.476509152778817,7.003209506340909,29.58182554256572,27.104220291242594,26.84563644097352,75.40122235160379,71.54945712311655,86.02560741818559,400.0,390.570835204866,371.41625403443567,348.175528310818,{}
228,228,23,0,7.599999999999976,26.52198378596863,152.605596365056,9.868941659015672,23.261318567414808,42.89175213350666,43.26855368014826,36.18611941639126,95.62637246733466,72.44696496402844,59.07696775568229,50.60417429240965,46.251484317159566,12.426763746133249,47.14860362503555,21.91296976089575,3.55525059047136,29.60682497704724,27.1271259154534,25.210713883365543,75.14204869486775,72.51714405330517,82.50393253660143,400.00000000000006,393.7970170435496,374.5722394006138,352.17667039346674,{}
229,229,23,0,7.63333333333331,19.57765398441981,154.2236518449585,10.318329638906206,26.30668208823288,39.69540669585748,42.54356298115174,39.15530796883964,94.85009115645346,68.5994340570034,58.76749493524403,50.69270173471159,49.63872872748425,11.202713092949352,44.640856725470485,19.65149671540121,5.69485415195436,16.637806616154037,13.453455879926128,11.848696548991938,73.96510571687804,72.45214446456771,82.15878858925609,400.00000000000017,390.60022878604207,371.53151515771833,348.8755273980218,{}
230,230,23,0,7.666666666666643,19.684037216371063,155.06168946374711,9.842018608185532,26.449630260913988,42.77474092168804,42.77474092168804,36.23621622176102,92.09287598439174,65.6954230131002,55.78235062214799,46.44568207614043,47.701888389603255,10.847511274361976,44.93483934778624,16.24580327005333,1.7145518602669654,7.3358075479070255,7.3358075479070255,7.078892333973272,76.11931229145216,73.91246336239578,85.863425951042,400.0,393.48932520657655,374.4137531524593,351.6905798539748,{}
231,231,23,0,7.699999999999976,22.80118196945605,151.10556325524342,10.300524052492026,26.261286571944392,39.62690723723384,42.84324645236683,35.830428809145204,94.68641529479986,68.48105703341477,56.95918576951681,48.31657180989168,47.80365703483994,12.515120511267014,46.470078619704736,17.746851216796813,6.411434688149029,10.300524052492005,14.567140814584768,11.9252685199574,73.75714465246733,72.5261491923427,82.01701317975662,399.99999999999983,394.33656470069695,374.9730317446963,349.1862461248419,{}
232,232,23,0,7.733333333333309,29.88620713326773,150.30320865038482,13.607813127747006,26.608509892380056,39.74183144137827,43.03168345762004,33.16840309877463,103.159958266684,76.55173069407475,61.606533356215095,54.60883473042759,53.60438038222856,20.976354971559203,49.03411309792227,19.51989616667037,7.784521198543416,20.075424529139752,20.8734324875189,20.55783232647605,77.69454383320522,75.03273981047755,80.30169811655934,400.00000000000006,390.6874286352119,371.1276338502122,348.3425055765772,{}
233,233,23,0,7.766666666666643,23.06251350756506,149.67553498669133,9.784595815443106,23.74431091954045,42.89875489255723,42.89875489255712,39.27404530897229,95.47992004590604,72.049595459221,60.32592085064175,55.29945542671794,50.3480118747932,13.678987994459476,42.6207590589097,15.82961499176008,3.509356456835804,23.06251350756506,26.8952813673662,26.80781559426032,76.038835152626,73.00461721844977,86.35363918560911,400.00000000000006,390.9079031741939,371.6572530648828,349.2429149689466,{}
234,234,23,0,7.799999999999976,10.452382720739154,145.92215100868586,9.916000911996688,24.06319210051369,36.95475350695751,40.88471914388342,43.09627799698683,86.94975258287565,63.14831047414641,57.77171785033784,54.90123033948771,48.46999145887321,8.838744534876241,35.22029250849687,10.875864703866682,1.9529416496106933,26.648451728293463,31.357148162216323,29.13418555733915,76.23206715032211,75.82801025729896,84.26980357845805,400.00000000000006,394.1255213711845,374.685483218828,349.5693101931055,{}
235,235,23,0,7.833333333333309,4.728185237850453,145.15605686270558,13.784910335911349,27.56982067182314,38.1198480692499,41.3547310077346,43.59171400267734,88.51940658985929,61.01008100822708,58.97215818437735,54.175137740215405,47.22831024287075,7.486386914614059,37.80288167244453,10.06615537843436,0.6238655762178951,30.27515749555167,31.71763080613295,29.87810273129844,76.71860464300676,71.03636952988745,81.96278765909275,400.0,390.1970497063668,371.3958655127146,347.8672117890173,{}
236,236,23,0,7.866666666666642,10.468478451804623,146.9320968879517,9.931270663228196,24.100247256163435,37.74463583407013,40.94767794108863,43.541823698128574,87.64811338997508,63.67726847586955,58.36735521290234,52.44262870385387,47.12964906207662,6.3269710245142505,37.83612473600192,13.50033155032088,1.1313126997474685,26.68948795168805,31.40543535541276,29.60687235709748,76.67786076066886,72.97385918075452,81.89535588217737,400.00000000000006,394.27408587747743,375.75859344524,352.4940493037018,{}
237,237,23,0,7.899999999999975,13.673128020234376,149.63469619480998,10.486810479547865,24.14245075339213,40.34356543121253,41.019384060703466,43.23822728300976,91.06030326196004,67.06641212998275,60.07962857348434,51.63490516688125,50.58355406003511,8.292107923351523,39.90047023240436,14.76978732359703,0.0678291036674636,26.736225635281915,28.333801658934817,28.047334366509403,74.54418493057801,70.35573777911009,84.54736904367297,400.0,394.2259730266185,375.6123142632039,353.1113243662645,{}
238,238,23,0,7.933333333333309,17.047714314961524,154.11998287418845,10.029995533170132,27.5698206718229,41.35473100773468,44.60561032274877,40.67338733881804,95.0941379253515,67.61470209267074,59.02678143944036,54.20534939884192,50.16645344860217,11.527682191309168,42.89644073817044,14.80928515087885,4.40912807901168,26.95480306756745,28.56543980030835,27.851553323527696,75.4432106038521,75.8975863982539,88.51940658985926,399.99999999999983,390.1970497063668,368.1462309168331,348.68562961035883,{}
