,video_id,frame_seq,gap,time_seconds,m1,m3,m4,m5,m6,m7,m8,m9,m10,m11,m12,m13,m14,m15,m16,m17,e1,e2,e3,b1,b2,b3
0,23,0,0,0.0,7.936257995306505,38.1023044160579,4.8274372764630336,7.142632195775889,10.347614442262254,10.317135393898525,8.729883794837235,28.581549238203124,21.442588324800933,17.459767589674414,19.047019188735703,18.253393389205087,9.920322494133131,9.920322494133188,2.7776902983572995,5.952193496479879,7.142632195775889,7.186587270312311,6.745819296010609,19.047019188735703,19.047019188735703,23.015148186388956
1,23,1,0,0.0333333333333333,7.199769611058628,37.607306260792065,3.9998720061436757,7.199769611058571,9.599692814744827,11.228175782218162,8.799718413516075,27.19912964177695,19.99936003071838,16.399475225189065,18.399411228260874,17.59943682703215,9.199705614130437,9.199705614130437,1.9999360030718663,5.199833607986761,6.399795209829904,6.399795209829904,6.399795209829904,19.99936003071832,19.99936003071832,22.399283234404578
2,23,2,0,0.0666666666666666,7.199078576909471,38.40341710647587,4.799385717939629,6.399180957252838,9.598771435879286,11.198566675192495,8.0388715871796,26.40873832855735,20.01343204974161,16.397901202960497,18.397645252101995,17.597747632445362,9.998720245707545,8.398925006394393,1.9997440491415546,5.199334527767917,6.399180957252838,6.448980781922085,6.399180957252895,19.997440491415148,18.39764525210194,22.39713335038499
3,23,3,0,0.0999999999999999,7.086394497964477,37.015102227772154,3.9368858322024494,6.299017331523999,8.661148830845491,9.44852599728597,8.696865060025253,25.99537371211914,19.700170410358076,16.14123191203015,18.10967482813146,17.322297661690925,9.05483741406573,8.267460247625195,1.9684429161011963,5.117951581863281,6.299017331523999,6.348037660968274,6.299017331523999,18.89705199457194,18.109674828131404,22.833937826774417
4,23,4,0,0.1333333333333332,7.086614173228327,37.80347680049701,4.014975994954962,6.2992125984252425,10.236220472440948,10.236220472440948,8.661417322834609,25.996179557825478,19.700781107396498,16.141732283464535,18.110236220472416,17.322834645669275,9.055118110236208,8.267716535433124,1.9685039370078812,5.118110236220446,7.086614173228384,7.1302245182184745,6.692913385826785,18.897637795275614,18.110236220472473,22.834645669291348
5,23,5,0,0.1666666666666665,6.3490063962452155,38.094038377471406,4.761754797183926,6.349006396245272,10.317135393898496,10.317135393898496,7.142632195775889,24.602399785450302,18.25339338920503,15.078890191082394,16.66614179014374,16.66614179014374,9.523509594367852,7.936257995306562,1.5872515990612897,4.761754797183926,7.142632195775889,7.186587270312314,7.142632195775889,19.840644988266376,19.840644988266376,22.22152238685834
6,23,6,0,0.1999999999999998,7.086394497964477,37.802304944863494,3.9368858322024494,7.086394497964477,9.44852599728597,11.023280330166955,8.696865060025255,26.782400231911048,19.700170410358076,16.14123191203015,17.322297661690925,18.10967482813146,9.05483741406573,9.054837414065673,1.9684429161011963,5.117951581863281,7.086394497964477,7.130003491094033,6.692705914744238,19.684429161012417,19.684429161012417,21.259183493893403
7,23,7,0,0.2333333333333331,7.913287890646401,37.7952755905512,4.014975994954967,7.086614173228327,10.23622047244092,11.051707754030073,7.874015748031468,26.77165354330708,19.685039370078755,15.748031496062993,16.535433070866134,16.535433070866134,8.661417322834666,10.236220472440948,2.36220472440948,4.7244094488189035,7.086614173228384,7.130224518218477,6.692913385826785,19.685039370078755,19.685039370078755,21.27441903323826
8,23,8,0,0.2666666666666664,8.064516129032256,37.096774193548384,4.0322580645161565,6.451612903225794,9.677419354838719,10.514842589036517,8.870967741935488,27.419354838709694,20.9677419354839,16.935483870967744,16.935483870967744,16.935483870967744,8.064516129032256,10.48387096774195,3.2258064516129252,4.0322580645161,7.258064516129025,7.302729950110813,7.258064516129025,20.16129032258067,20.16129032258067,21.774193548387103
9,23,9,0,0.2999999999999997,2.941176470588232,33.09640422037324,2.941176470588232,5.882352941176464,8.823529411764724,8.823529411764724,6.658371425101047,18.397052945877647,12.521607622004705,11.029411764705856,10.29411764705884,9.558823529411768,3.308823529411768,8.45588235294116,2.573529411764696,0.3676470588235361,6.658371425101049,6.658371425101047,6.985294117647072,20.588235294117624,19.85294117647055,23.57532285570794
10,23,10,0,0.333333333333333,2.30762403580178,34.64853069395222,3.0768320477356497,6.922872107405283,8.461288131273136,9.230496143207034,8.461288131273136,20.76861632221585,13.845744214810566,12.691932196909704,13.076536202876639,11.538120179008786,3.8460400596695763,8.461288131273136,1.5384160238678533,0.7692080119339266,6.922872107405283,7.73044484670558,7.307476113372218,19.230200298348052,19.230200298348052,22.32029061313605
11,23,11,0,0.3666666666666663,2.4899824095813745,35.441818692683135,3.9370078740157624,6.299212598425186,9.448818897637807,10.236220472440948,10.236220472440948,22.8482175252707,16.554170111518605,15.354330708661394,14.960629921259851,14.17322834645671,4.330708661417361,8.26771653543301,1.9685039370078243,1.181102362204797,7.130224518218421,7.130224518218418,6.692913385826728,19.685039370078755,19.685039370078755,21.27441903323826
12,23,12,0,0.3999999999999997,3.199590478626419,36.803984016553024,3.9994880982830523,7.199078576909471,9.598771435879286,10.39866905553589,8.798873816222681,23.197030970041624,15.997952393132152,14.398157153818943,13.59825953416231,12.798361914505733,4.3994369081113405,9.998720245707602,2.799641668798131,1.1998464294849214,8.038871587179543,7.243381017069943,7.199078576909471,19.19754287175857,19.997440491415205,22.411412684542217
13,23,13,0,0.433333333333333,5.424889808044895,37.23152140574147,3.099937033168544,6.974858324629167,9.299811099505519,10.074795357797655,8.559980915473629,24.03700850309327,17.0672578726429,14.337208778404374,13.949716649258278,12.399748132674063,4.649905549752816,10.84977961608979,3.0999370331684872,1.549968516584272,7.0177809348289975,7.017780934829001,6.974858324629167,18.599622199011094,19.37460645730323,20.98190268398556
14,23,14,0,0.4666666666666663,6.3474074523437025,38.910241900710375,3.9671296577148496,7.140833383886672,10.345008482530107,11.136263630250056,7.934259315429642,25.389629809374867,18.248796425488194,15.075092699316372,14.281666767773345,12.694814904687405,5.553981520800733,11.901388973144492,4.7605555892578195,2.380277794628853,7.140833383886672,7.184777388706989,7.140833383886672,19.042222357031164,19.835648288574134,20.690016965060185
15,23,15,0,0.4999999999999996,7.808688094430295,38.29443059550758,3.1234752377721406,7.027819284987288,9.370425713316365,10.932163332202435,8.589556903873302,26.549539521063025,19.521720236075737,15.61737618886059,14.05563856997452,12.493900951088449,4.685212856658211,13.274769760531512,5.466081666101218,1.5617376188860703,7.071067811865434,7.963330593811948,7.808688094430352,18.74085142663273,19.521720236075794,21.14122086144021
16,23,16,0,0.533333333333333,7.081128412646194,38.560837901114176,3.244026710433571,6.2943363667965855,10.228296596044459,11.015088641894039,9.441504550194907,25.976055869189473,19.685530697850428,16.129236939916268,14.162256825292332,13.37546477944278,4.327356252172649,12.195276710668395,5.114148298022201,1.9669801146239365,7.081128412646194,7.124704998790994,7.081128412646194,18.883009100389756,19.66980114623931,21.301586402451626
17,23,17,0,0.5666666666666663,7.027819284987288,39.85491982360952,3.123475237772084,6.2469504755442244,10.1512945227594,10.932163332202435,8.589556903873358,24.987801902176955,18.74085142663273,15.226941784139058,14.055638569974576,12.493900951088506,4.685212856658154,11.713032141645442,5.466081666101218,1.5617376188860703,4.7498395351586185,5.521576303742333,5.075647261379686,18.74085142663273,20.3025890455188,21.9200320455525
18,23,18,0,0.5999999999999996,7.124704998790937,38.58491084356993,3.2440267104336327,7.081128412646194,10.228296596044459,11.015088641894039,9.441504550194907,26.75092955888556,19.669801146239365,16.129236939916325,14.94904887114194,13.37546477944278,4.720752275097425,12.588672733593228,4.720752275097482,2.3603761375487124,1.5735840916991606,2.3603761375487124,1.9669801146239365,18.883009100389756,20.456593192088917,22.04422266442036
19,23,19,0,0.633333333333333,7.075874050003733,38.53222485890964,3.9310411388910325,6.289665822225629,11.006915188894766,11.006915188894766,8.683953710493181,25.9567810291355,19.670923574371383,16.11726866945304,14.937956327785798,14.15174810000758,5.896561708336549,11.400019302783846,5.110353480558217,2.751728797223734,1.5724164555563789,2.486208714943577,2.3586246833345967,18.868997466676717,20.441413922233153,21.285780127901276
20,23,20,0,0.6666666666666663,6.960534453749344,36.927810930092065,3.0746497680963785,6.917961978216795,9.992611746313145,10.761274188337211,9.255921494798473,26.13452302881899,19.216561050602195,15.757580061493798,15.373248840481722,13.835923956433533,5.3806370941686055,11.529936630361362,4.611974652144568,3.0746497680963216,2.305987326072284,3.169276438910498,2.6903185470843027,18.4478986085781,19.98522349262629,22.30445968216766
21,23,21,0,0.6999999999999996,4.68050617730853,35.9177813905688,3.120337451539001,6.240674903078002,9.361012354617003,10.921181080386475,9.361012354617003,23.402530886542536,17.161855983464534,14.821602894810269,15.601687257695005,14.041518531925533,5.460590540193266,8.580927991732267,2.340253088654265,3.120337451539001,3.9776653885979254,4.68050617730853,4.68050617730853,17.94194034634927,20.282193435003535,21.89801158131116
22,23,22,0,0.733333333333333,3.9032731740353483,35.98640055697749,3.9032731740353483,7.025891713263604,9.367855617684796,10.178491145733645,7.845481982862544,22.652439973391957,15.632596879506224,13.661456109123662,16.39374733094843,14.051783426527209,7.4162190306671505,7.4162190306671505,0.3903273174035462,3.512945856631802,5.464582443649476,5.520061860367856,5.464582443649476,18.73571123536965,20.297020504983777,21.13542230318426
23,23,23,0,0.7666666666666663,2.5084804565425407,35.77553986251033,3.9662558543466844,6.346009366954718,8.76174555955834,10.342729882122452,8.76174555955837,21.417781613472187,15.071772246517469,13.881895490213424,15.865023417386794,13.485269904778761,5.949383781519998,6.742634952389437,0.3966255854347196,2.7763790980426393,5.552758196085335,6.39539539868823,5.949383781520055,19.038028100864153,20.624530442602804,22.267621494614907
24,23,24,0,0.7999999999999996,3.9043440472151474,35.996273519866925,3.9043440472151474,7.027819284987288,9.370425713316365,9.370425713316365,7.808688094430295,22.645195473847878,15.61737618886059,13.665204165252987,15.61737618886059,13.274769760531512,6.637384880265756,8.199122499151827,1.1713032141645385,2.733040833050609,5.466081666101218,6.295565609336774,5.8565160708227495,17.959982617189723,19.521720236075794,20.317600203980287
25,23,25,0,0.8333333333333329,5.521576303742277,36.73404747509372,3.1234752377721406,6.246950475544281,10.1512945227594,10.1512945227594,8.6249779073595,23.42606428329094,17.17911380774666,14.446072974696108,15.617376188860646,14.055638569974576,6.246950475544281,8.589556903873302,2.34260642832902,3.1234752377721406,6.2469504755442244,6.295565609336717,5.8565160708227495,19.521720236075794,20.3025890455188,21.87826630666529
26,23,26,0,0.8666666666666663,6.296090505377492,37.02300641528204,3.148045252688746,7.083101818549665,9.444135758066238,11.018158384410611,8.69282407859744,25.196656072533408,18.1183610666731,14.953214950271558,15.74022626344373,14.166203637099386,6.296090505377492,10.23114707123841,3.148045252688746,3.148045252688746,6.296090505377492,6.3450880576210755,6.296090505377492,18.888271516132477,19.675282829304706,22.0924603420279
27,23,27,0,0.8999999999999996,6.296909605425929,37.49783946276159,3.982515314667684,7.029319604771217,10.153461651336187,10.153461651336187,7.810355116412438,24.99313637251987,17.963816767748654,14.839674721183655,14.058639209542434,13.277603697901156,5.857766337309386,11.325014918798047,4.29569531402683,2.7336242907443875,7.072577364473696,7.072577364473693,6.638801848950607,18.744852279389875,20.306923302672374,21.88293694409165
28,23,28,0,0.9333333333333328,6.196897293117104,37.987599586034555,3.0984486465586087,6.971509454756756,10.069958101315365,10.872199786111715,8.52073377803606,24.78758917246853,17.816079717711773,14.717631071153221,14.717631071153221,13.168406747873917,5.4222851314775085,10.84457026295496,3.873060808198204,2.3238364849188997,6.971509454756756,7.014411456332092,6.584203373936987,18.590691879351425,18.590691879351425,20.928868118004566
29,23,29,0,0.9666666666666662,5.4222851314775085,37.987599586034555,3.098448646558552,6.971509454756756,9.295345939675713,10.844570262954988,8.55587097361366,24.02546750686771,17.059063293909745,14.330324990333338,13.943018909513569,12.393794586234264,4.647672969837856,10.84457026295496,3.873060808198204,1.5492243232793044,7.014411456332092,7.0144114563320885,6.584203373936987,18.590691879351425,19.365304040991077,21.702968477920955
30,23,30,0,0.9999999999999996,6.245237078456512,37.544537510938014,3.9032731740353483,7.025891713263604,10.178491145733645,10.9570099385103,7.025891713263604,24.20029367901907,17.174401965755465,14.051783426527209,14.051783426527209,11.709819522105988,5.854909761052966,11.319492204702499,4.2936004914388946,2.7322912218247097,7.069128378050007,6.437443032875011,6.245237078456512,18.73571123536965,20.297020504983777,21.13542230318426
31,23,31,0,1.0333333333333328,6.194853246995763,38.014524007252696,3.0974266234978813,6.969209902870261,9.292279870493616,10.066636526368086,8.517923214619145,24.77941298798305,17.81020308511279,14.712776461614908,14.712776461614908,12.389706493991525,5.033318263184071,11.228171510179834,4.258961607309573,1.93589163968619,7.012097753223441,7.782188077925539,7.743566558744703,18.584559740987288,20.13327305273623,21.73722718360619
32,23,32,0,1.066666666666666,6.194853246995763,38.78746228251087,3.0974266234978813,6.969209902870205,10.066636526368086,10.86861359180308,7.782188077925539,24.017542708158174,17.053436363123126,13.938419805740466,14.712776461614908,12.389706493991525,5.807674919058513,10.453814854305335,3.4846049514351307,2.710248295560632,6.194853246995706,6.243062948770502,6.194853246995763,18.584559740987288,20.13327305273623,22.509683577741427
33,23,33,0,1.0999999999999992,6.196897293117104,39.5735093529207,3.0984486465586087,6.196897293117161,10.872199786111718,11.644974204220823,8.555870973613656,24.025467506867766,17.83291116191691,14.717631071153221,14.717631071153221,12.393794586234264,5.034979050657682,10.45726418213519,4.26036688901803,2.711142565738726,7.014411456332092,6.245122902105514,6.196897293117161,17.816079717711773,20.139916202630673,20.928868118004566
34,23,34,0,1.1333333333333324,7.023537944787961,39.089827529954135,2.3411793149293203,6.243144839811464,11.731880838749449,12.51065319484775,7.066760124708512,22.644851100508266,16.406825471317905,12.876486232111233,13.266682784599425,10.925503469670105,5.072555182346832,10.535306917181913,4.292162077370449,3.511768972393952,4.682358629858641,4.746945937853719,4.292162077370392,19.50982762441089,20.29022072938733,23.424796090117447
35,23,35,0,1.1666666666666656,7.7717098342101965,39.560133797829124,3.188455434289867,6.959826284903841,11.625459031438881,12.373024506495767,6.186512253247884,23.97273498133552,17.01290869643168,13.146338538151724,13.919652569807738,10.826396443183796,6.186512253247884,11.599710474839753,3.866570158279899,3.8665701582799556,2.4454336866004387,2.445433686600493,1.9332850791399778,17.786222728087637,19.332850791399608,23.212305938703874
36,23,36,0,1.1999999999999988,8.587200982877732,39.10292753802455,3.9032731740353483,7.025891713263604,10.929164887298924,11.73581249420509,6.245237078456512,25.761602948633197,18.735711235369592,14.442110743930698,15.613092696141337,13.271128791720116,8.196873665474186,11.319492204702499,4.2936004914388946,4.293600491438838,1.7455968303788685,1.561309269614128,1.561309269614128,17.955056600562557,19.516365870176685,21.872265593530038
37,23,37,0,1.233333333333332,8.394745562413334,37.46479613357356,3.815793437460627,6.91069583675664,9.15790424990547,9.9503719020999,6.868428187429117,25.958615870553817,19.07896718730308,14.881594406096383,16.026332437334588,13.736856374858235,8.013166218667266,11.065800968635813,4.197372781206695,4.197372781206639,2.2894760624763535,3.1465838776377644,2.671055406222422,18.315808499811,19.842125874795215,20.661737502495168
38,23,38,0,1.2666666666666653,6.3450880576210755,39.42133304336718,4.722067879033091,7.083101818549721,11.018158384410611,11.805169697582812,6.3450880576210755,24.397350708337797,17.314248889788075,14.16620363709933,14.16620363709933,11.805169697582755,6.68959616196355,11.411664040996754,4.328562222447033,2.7545395961026315,3.9350565658609185,4.787202926684543,4.328562222447033,18.888271516132477,19.67528282930465,22.050366063693648
39,23,39,0,1.2999999999999985,7.0177809348289975,38.045334108763576,3.8749212914606233,7.749842582921303,10.84977961608979,11.624763874381927,6.2481228412251175,24.799496265348125,17.049653682426822,13.562224520112238,13.949716649258335,11.624763874381927,6.587366195483071,12.012256003528023,4.26241342060672,3.4874291623145837,4.649905549752759,4.714045207910306,4.649905549752759,18.599622199011094,18.599622199011094,23.262440567170554
40,23,40,0,1.3333333333333317,6.865230222787147,35.16349736029829,3.814016790437279,6.865230222787147,9.916443655136987,9.916443655136987,6.865230222787204,24.409707458798778,17.54447723601163,14.111862124618028,16.018870519836696,13.730460445574352,8.009435259918291,9.535041976093282,2.669811753306135,4.195418469481012,6.10242686469968,5.393834272155127,5.339623506612213,17.54447723601163,19.070083952186565,20.6098118154907
41,23,41,0,1.366666666666665,6.295565609336717,36.05551275463989,4.749839535158674,7.027819284987288,10.1512945227594,10.1512945227594,6.2469504755442244,24.206933092733948,17.17911380774666,14.055638569974576,16.398244998303653,13.274769760531512,8.589556903873358,9.370425713316365,2.342606428329077,3.9043440472151474,6.295565609336774,5.521576303742333,5.856516070822693,18.74085142663273,20.302589045518744,20.362567282674938
42,23,42,0,1.399999999999998,4.644330121428993,34.969814938892604,4.644330121428993,6.966495182143433,9.320856735386798,9.28866024285793,7.009366326365285,23.234547942550265,16.273574870485863,13.932990364286923,16.25515542500142,13.158935344048757,7.740550202381655,8.514605222619764,1.548110040476331,3.8702751011908276,6.192440161905267,6.240631084524485,6.192440161905267,18.577320485715916,19.35137550595408,20.899485546430384
43,23,43,0,1.4333333333333311,6.1509351573948265,33.908686303916504,4.613201368046077,8.492412425841877,9.258383430723505,9.99526963076653,6.198803078998493,25.419162806566046,16.932536913799876,13.839604104138232,16.1462047881613,13.839604104138289,8.841969288755024,10.379703078103717,1.9221672366858797,4.228767920708947,6.919802052069144,6.198803078998549,6.1509351573948265,19.22167236685874,19.99053926153306,20.773639552570177
44,23,44,0,1.4666666666666646,5.382068262720452,33.14164161002344,4.613201368046134,8.492412425841877,8.492412425841874,9.226402736092183,6.15093515739477,24.615751243245292,16.146204788161356,13.455170656801158,16.146204788161356,13.839604104138289,8.841969288755024,9.610836183429399,1.9221672366858797,4.22876792070889,6.198803078998493,6.198803078998493,6.15093515739477,19.22167236685874,19.99053926153306,20.773639552570174
45,23,45,0,1.4999999999999978,4.649905549752759,34.17847521713292,5.424889808044895,8.559980915473686,9.299811099505547,10.104558481304455,6.2481228412251175,24.847885572366472,16.293110981806542,13.949716649258278,16.274669424134686,13.949716649258278,8.912318970359479,9.687303228651615,1.1624763874381756,3.4874291623145837,6.199874066337031,6.2481228412251175,6.199874066337088,19.374606457303173,20.14959071559531,20.98190268398556
46,23,46,0,1.533333333333331,6.243144839811464,35.15235675086483,5.462751734835081,8.584324154740784,9.39717738221116,10.175081213931886,7.842853640593502,28.104988482266023,19.525429248355103,16.38825520450513,18.72943451943445,17.16864830948157,10.145110364693664,10.145110364693664,2.3411793149293203,5.462751734835024,7.023537944787904,7.066760124708568,7.023537944788018,18.72943451943445,20.29022072938733,21.864938089585088
47,23,47,0,1.5666666666666642,11.641133110326603,34.84604951435114,4.710227651440261,7.012097753223498,10.066636526368086,10.868613591803083,7.743566558744703,30.983944181234346,24.005056332108552,18.19738141305004,18.584559740987288,18.584559740987288,10.840993182242585,12.389706493991525,4.646139935246822,6.194853246995763,6.969209902870261,7.012097753223441,6.969209902870205,19.35891639686173,20.133273052736172,20.921964732378186
48,23,48,0,1.5999999999999974,10.685777617270332,36.66874094883931,3.816349149025143,7.632698298050229,9.15923795766031,10.685777617270361,8.430590823723572,30.540332574777832,22.910812526285987,17.55520608551558,18.31847591532062,16.79193625571054,9.15923795766031,12.975587106685396,5.342888808635166,5.342888808635166,6.15367809938803,6.153678099388083,6.106158638440206,18.31847591532062,19.081745745125602,21.38518070945659
49,23,49,0,1.6333333333333306,9.301207782114545,37.98784014389916,3.8755032425477225,6.975905836585866,10.106076024075097,10.851409079133617,8.526107133604967,28.6787239948531,21.702818158267235,17.05221426720999,17.05221426720999,16.27711361870041,8.138556809350234,12.0140600518979,4.263053566802512,5.038154215312034,6.975905836585866,7.018834893073967,6.588355512331134,18.60241556422909,19.377516212738612,20.942066306444982
50,23,50,0,1.666666666666664,6.817399333320338,38.63935520274993,3.7874440740668547,7.574888148133709,9.847354592573794,10.604843407387165,8.36673742609493,26.52292757972971,18.95236409156305,15.528520703674019,15.907265111080733,15.149776296267362,7.1961437407269955,10.983587814793907,3.4086996666601976,4.166188481473512,6.0599105185069675,6.983701804073972,6.4386549259136245,18.179731555520846,19.694709185147588,21.22320909017721
51,23,51,0,1.699999999999997,7.574888148133709,37.88201487147924,3.7874440740668547,6.817399333320338,9.089865777760451,10.604843407387165,7.612668373264596,25.76575683701992,18.95236409156305,15.149776296267362,15.907265111080733,15.149776296267362,7.953632555540423,10.22609899998048,3.408699666660141,4.166188481473569,6.0599105185069675,6.107070066478585,5.6811661111003104,18.179731555520846,18.937220370334217,21.22320909017721
52,23,52,0,1.7333333333333305,6.15093515739477,39.242351687898235,3.8443344733717595,6.919802052069144,10.764136525440875,12.301870314789568,6.919802052069144,23.834873734904818,16.915071682835674,13.839604104138289,13.839604104138289,12.301870314789596,6.15093515739477,10.764136525440904,3.8443344733717595,3.075467578697328,3.075467578697385,2.306600684023067,2.306600684023067,18.452805472184423,19.22167236685874,22.31039233302363
53,23,53,0,1.7666666666666635,6.815053494173071,37.11190614858865,3.7861408300961443,6.815053494173071,10.601194324269187,10.601194324269187,8.329509826211506,25.745757644653793,18.93070415048072,15.523177403394186,15.901791486403795,15.144563320384577,7.19366757718268,10.222580241259607,3.4075267470865356,3.4075267470865356,1.514456332038435,1.6932136536964666,1.514456332038435,18.173475984461504,18.93070415048072,21.215906270981755
54,23,54,0,1.7999999999999967,6.919802052069144,36.93763317247081,3.8443344733717026,7.688668946743519,9.99526963076653,9.99526963076653,8.457535841417894,26.91034131360226,19.22167236685874,15.761771340824168,16.146204788161356,14.608470998812663,6.9198020520690875,11.533003420115278,3.0754675786974417,3.8443344733717026,2.306600684023067,2.306600684023067,1.9221672366858797,18.452805472184366,19.22167236685874,20.773639552570177
55,23,55,0,1.83333333333333,6.1052694999369805,35.90091846204175,4.578952124952707,8.39474556241339,9.15790424990547,10.684221624889716,7.631586874921254,26.710554062224332,18.31580849981094,15.263173749842451,16.026332437334588,14.500015062350371,7.631586874921197,11.447380312381881,3.0526347499684903,3.81579343746057,3.0526347499684903,3.891361039490202,3.4342140937145587,18.31580849981094,19.07896718730308,21.382066740643666
56,23,56,0,1.8666666666666631,5.383182183695055,34.614714859876614,3.8451301312107375,7.690260262421475,9.228312314905793,9.997338341147923,8.459286288663634,25.377858865990902,17.687598603569427,14.996007511721928,15.380520524843007,14.611494498600848,6.536721223058294,10.381851354268974,2.6915910918474992,2.691591091847556,5.383182183695055,4.863747645747218,4.998669170573976,18.456624629811586,19.225650656053688,20.777939050771792
57,23,57,0,1.8999999999999964,6.1492995361927,33.82988112188436,3.843312210120473,7.686624420240889,8.455286862264956,9.992611746313145,8.455286862264927,26.13452302881899,18.4478986085781,15.373248840481779,15.373248840481722,14.604586398457627,6.533630757204776,11.145605409349287,3.4589809891083974,2.6903185470843027,6.197154729034786,6.197154729034786,6.1492995361927,19.216561050602195,19.98522349262629,20.000000000000004
58,23,58,0,1.9333333333333296,6.196897293117161,33.344331958804496,4.647672969837856,7.784755879085982,8.52073377803606,10.069958101315336,8.52073377803606,27.122489287987715,19.365304040991077,16.266855394432525,16.26685539443247,14.717631071153221,6.971509454756813,11.619182424594612,3.098448646558552,3.0984486465586087,6.196897293117161,7.014411456332092,6.971509454756756,19.365304040991077,20.914528364270325,20.928868118004566
59,23,59,0,1.9666666666666628,6.973392600343686,32.579374166183975,4.648928400229124,7.748214000381836,9.297856800458248,9.297856800458248,8.55818208726423,27.904329734620095,20.160251306096878,16.65866010082101,17.046070800840084,15.496428000763729,7.748214000381836,11.62232100057281,3.8741070001909748,3.874107000190918,6.973392600343686,7.016306190616573,6.973392600343686,17.82089220087829,19.370535000954703,20.16025130609685
60,23,60,0,1.999999999999996,6.142226891833047,31.563068686059726,3.838891807395612,7.716077037453233,8.480389183721483,9.24527575530113,9.245275755301133,26.9160799446168,19.209808466889793,16.123345591061707,16.891123952540852,14.587788868103473,6.52611607257262,11.13278624144732,3.4550026266560394,3.4550026266560963,7.677783614791281,7.078566737004289,6.910005253312136,18.426680675499085,20.730015759936464,21.55256566017591
61,23,61,0,2.033333333333329,4.675955644614646,32.10406704077789,4.675955644614703,7.8321287730426326,8.60793636585396,10.131237229998476,9.384327023477551,26.542885100692608,18.720051494812108,16.365844756151375,17.145170696920502,14.027866933844052,6.234607526152956,10.910563170767546,3.117303763076393,2.33797782230738,7.793259407691096,7.18503015764245,7.4035964373065895,18.703822578458755,21.821126341535205,21.876721657987584
62,23,62,0,2.0666666666666624,4.642244500432469,33.41305442377828,4.6422445004325255,7.737074167387561,7.775663305363191,9.31667103497272,9.316671034972718,26.31742775977642,18.585089916259452,16.247855751513782,17.0215631682525,13.92673350129752,6.189659333910015,10.83190383434254,3.094829666954979,2.3211222502162627,7.775663305363189,7.890298431524766,7.350220459018146,17.795270584991272,20.890100251946308,22.490810920806897
63,23,63,0,2.099999999999996,3.0974266234978813,31.89935903985478,3.8717832793723232,7.782188077925539,8.657570606823638,9.324488909429755,10.096375546923081,24.827763108081477,17.053436363123126,15.487133117489407,16.261489773363905,13.164063149866024,4.646139935246822,10.066636526368086,2.3230699676233826,2.3230699676234394,6.969209902870205,7.139215614635301,6.969209902870261,17.81020308511279,20.90762970861067,21.73722718360619
64,23,64,0,2.133333333333329,4.644330121428936,32.65741708025154,3.8702751011908276,7.740550202381655,8.549717145696702,9.320856735386826,9.320856735386796,25.555541083059317,17.82008480363173,15.481100404763197,16.25515542500142,13.158935344048757,5.418385141667159,10.83677028333426,3.0962200809526053,2.3221650607144966,7.740550202381598,7.7791566772977205,7.740550202381598,17.80326546547775,20.899485546430412,21.728759867798505
65,23,65,0,2.166666666666662,4.646139935246822,32.67014310168879,3.87178327937238,6.969209902870205,8.553048820195368,9.324488909429755,9.324488909429753,24.791509358236343,17.82702897746734,15.487133117489407,16.261489773363905,13.164063149866024,5.420496591121321,10.066636526368086,3.0974266234978813,2.3230699676234394,7.782188077925539,7.896919397568754,7.356388230807511,17.81020308511279,20.90762970861067,20.964910993237435
66,23,66,0,2.199999999999996,3.8702751011908276,32.65741708025157,3.8702751011908276,7.740550202381598,8.549717145696702,9.320856735386826,10.092442699391611,25.555541083059317,17.82008480363179,15.868127914882336,17.029210445239585,13.932990364286923,5.418385141667159,10.062715263096095,2.3221650607144966,2.3221650607144966,7.7791566772977205,7.893843305577667,7.740550202381598,17.029210445239585,20.125430526192247,22.50091536650759
67,23,67,0,2.2333333333333285,4.683927808842384,33.71307452231751,3.9032731740353483,7.069128378050007,9.367855617684825,10.178491145733668,8.62261227118453,24.250606194199626,17.192134961667527,14.832438061334301,15.613092696141337,12.49047415691308,5.464582443649476,10.14851025249186,3.122618539228256,1.561309269614128,7.80654634807064,7.197280111395497,7.025891713263604,18.735711235369592,21.077675139790813,22.692758794925375
68,23,68,0,2.2666666666666617,6.1449442506062155,33.93656383921755,3.8405901566288776,7.681180313257812,8.484140959804368,9.249365921885087,8.484140959804426,26.12730647665953,18.4508282713155,15.362360626515624,15.362360626515567,12.289888501212488,5.376826219280417,12.289888501212488,4.608708187954676,2.304354093977338,6.913062281932014,7.081698338256315,6.913062281932014,18.434832751818703,20.73918684579604,22.328333726240828
69,23,69,0,2.299999999999995,6.971509454756813,35.7078563069821,3.098448646558552,7.746121616396408,9.327565606266498,10.099706934520745,9.327565606266504,27.122489287987715,19.380790092279142,15.879549313612642,15.492243232792873,13.168406747873917,5.034979050657682,12.78110066705409,5.034979050657682,2.711142565738726,7.784755879086036,7.899525055333633,7.746121616396408,17.816079717711773,20.139916202630673,20.971828549358975
70,23,70,0,2.333333333333328,8.4525405448735,36.245958190127276,3.0736511072267376,7.7224528325872495,9.98936609848684,10.757778875293525,8.48739653004914,27.705516674981553,19.99350390486757,15.752461924536988,15.368255536133631,12.294604428906894,5.378889437646762,13.831429982520262,6.147302214453475,2.305238330420025,7.722452832587305,7.836303486862547,7.684127768066787,17.673493866553656,20.747144973780394,21.570374547074668
71,23,71,0,2.3666666666666614,7.023537944787904,37.53195958454322,3.9019655248822005,7.066760124708512,9.364717259717224,10.145110364693664,8.584324154740784,26.544839457548782,19.50982762441089,15.998058652016937,14.827468994552305,12.486289679622985,5.072555182346832,12.876486232111176,5.072555182346832,1.9509827624410718,7.066760124708512,7.1948689254950695,7.023537944787904,17.949041414458065,20.290220729387386,21.906678384827604
72,23,72,0,2.3999999999999946,7.0175571924578435,38.33379151589935,3.1189143077589847,7.017557192457787,10.16641682838182,10.916200077156589,8.612383627717325,25.742854397466946,18.72972314752358,15.20470725032527,14.81484296185539,11.695928654096349,4.6783714616385055,12.47565723103611,4.678371461638562,2.339185730819281,7.060742567401287,7.060742567401287,7.407421480927667,17.15402869267467,19.493214423493953,21.110350237727786
73,23,73,0,2.433333333333328,5.378889437646762,37.01166050988028,3.073651107226681,6.958273639050126,9.252915127470075,9.989366098486869,9.252915127470104,24.637187847549217,17.690190605153735,14.984049147730275,14.599842759326975,11.526191652100238,3.8420638840333936,11.52619165210018,4.61047666084005,1.5368255536133688,6.958273639050126,7.084415757321076,7.299921379663488,17.673493866553656,19.97873219697368,20.803986573378193
74,23,74,0,2.466666666666661,5.418385141667159,37.283426941547276,3.8702751011908276,6.966495182143433,10.83677028333426,10.864379933899238,7.7791566772977205,24.008187139606708,17.046793527306328,14.320017874406005,14.707045384525088,11.610825303572426,5.418385141667159,10.83677028333426,3.8702751011908276,2.3221650607144966,6.966495182143433,7.136434671476457,6.966495182143433,17.029210445239585,20.125430526192247,21.687358572896375
75,23,75,0,2.4999999999999942,5.505670108220329,38.667889667117635,3.932621505871623,7.865243011743246,10.224815915266277,11.824052928346312,7.9044713997910465,25.181064080896373,17.32140095442102,14.55069957172509,14.1574374211379,11.011340216440601,4.7191458070459475,12.58438881878925,4.719145807046004,1.5730486023486492,7.122280467637896,7.251395761417967,7.078718710568978,18.09005892700958,20.449631830532553,22.078789263774432
76,23,76,0,2.5333333333333274,7.078718710568978,38.667889667117635,3.1460972046972984,7.90447139979099,10.255022231932035,11.039394631887198,8.651767312917627,26.753390273436263,18.876583228183904,15.337223872899415,14.943961722312224,11.797864517614926,4.7191458070459475,13.370913119963575,5.505670108220329,2.3595729035229738,7.078718710568921,7.251395761417961,7.078718710568978,18.09005892700958,20.449631830532553,21.294337490412396
77,23,77,0,2.5666666666666607,6.963366750648788,36.43825165642985,3.8685370836937523,7.7370741673875045,10.087910504252793,10.859501086291267,7.775663305363189,26.31742775977642,18.58508991625951,15.08729462640565,14.700440918036293,12.37931866782003,5.802805625540657,12.766172376189388,5.029098208801884,2.7079759585856777,6.963366750648731,7.00621864280275,6.963366750648788,17.795270584991272,20.116392835207535,20.24986096744467
78,23,78,0,2.599999999999994,7.743566558744703,36.46882799381617,3.0974266234978813,6.969209902870205,9.324488909429723,10.86861359180308,8.553048820195338,26.33951143596125,19.374397340076904,15.48713311748935,14.712776461614908,12.389706493991525,5.033318263184071,12.776884821928718,5.807674919058513,2.710248295560632,7.743566558744703,7.896919397568698,7.356388230807397,17.81020308511279,20.13327305273623,20.964910993237435
79,23,79,0,2.633333333333327,7.803931049764344,36.75311847201245,3.9019655248821437,7.803931049764401,10.175081213931886,10.925503469670105,7.842853640593561,27.324904872833148,19.525429248355106,15.607862099528688,14.827468994552305,12.486289679622985,5.8529482873232155,13.656879337087673,5.072555182346889,2.731375867417512,7.066760124708512,7.194868925495125,7.023537944787904,17.94904141445801,20.29022072938733,21.906678384827604
80,23,80,0,2.6666666666666603,7.842853640593504,36.75311847201245,3.979239670548075,7.066760124708568,10.145110364693664,11.705896574646545,7.803931049764401,26.54483945754884,19.50982762441089,15.607862099528688,14.827468994552305,12.486289679622985,5.8529482873232155,12.876486232111233,5.072555182346889,2.731375867417512,7.023537944787904,7.066760124708512,7.023537944787904,17.94904141445801,20.29022072938733,21.906678384827604
81,23,81,0,2.699999999999993,4.720752275097425,36.26932122677283,2.3603761375487693,7.081128412646137,9.441504550194907,10.258513195393705,9.474230833939092,23.61687093571781,16.541355499117163,14.162256825292332,14.949048871141883,12.588672733593171,4.327356252172649,9.834900573119683,2.7537721604735452,1.9669801146238797,7.081128412646137,7.253864245354602,7.081128412646194,18.096217054540205,20.456593192088917,21.301586402451626
82,23,82,0,2.7333333333333267,1.5730486023486492,33.902755714477976,3.146097204697355,7.078718710568978,8.651767312917627,9.438291614091952,10.224815915266277,22.02268043288126,14.943961722312281,14.157437421137956,14.943961722312281,12.584388818789307,3.539359355284489,8.258505162330493,1.1797864517615153,1.1797864517614585,6.292194409394597,6.341161641367857,5.89893225880752,18.09005892700958,19.66310752935823,20.510044463864098
83,23,83,0,2.76666666666666,3.1460972046972984,33.82968934567486,3.146097204697355,7.9044713997910465,8.651767312917627,9.438291614091952,9.438291614091952,23.608834134288156,15.730486023486606,14.157437421137956,14.157437421137956,13.370913119963632,4.325883656458814,9.831553764679143,1.96631075293584,1.1797864517614585,2.3595729035229738,3.242922770856857,3.1460972046972984,18.09005892700958,19.66310752935823,22.03672103388223
84,23,84,0,2.799999999999993,3.9637624512874936,33.33333333333333,4.7565149415449355,7.9275249025748735,9.5130298830899,10.30578237334737,8.756237452168184,25.380463423264906,17.458562590963346,15.458673560021055,15.855049805149804,14.269544824634806,6.342019922059933,10.30578237334737,2.378257470772496,2.3782574707724393,2.378257470772496,2.3782574707724393,2.3782574707724393,18.2333072759223,20.61156474669474,20.67245576486807
85,23,85,0,2.8333333333333264,4.787606564913233,34.348273560690444,3.9896721374276467,7.181409847369764,8.019141750039905,9.57521312982638,8.921178107225101,24.787393434906164,17.626947639240658,15.160754122225114,15.160754122225114,13.564885267253999,5.585540992398762,10.373147557311881,3.1917377099421174,2.393803282456645,2.523290214316735,2.523290214316735,2.393803282456588,18.352491832167175,21.54422954210935,20.7616343367672
86,23,86,0,2.86666666666666,4.790199696277682,33.6168283254573,4.070886954220966,7.983666160462747,8.818247498301238,9.580399392555307,9.61360711567164,26.394439835002775,18.43172461214521,15.96733232092555,16.76569893697183,14.37059908883299,5.987749620347017,10.777949316624756,2.7942831561620096,2.7942831561619528,4.070886954221022,4.070886954220961,3.592649772208233,17.56406555301811,21.555898633249512,21.614956000450146
87,23,87,0,2.899999999999993,4.023892374872787,34.6895931894231,4.023892374872844,8.087923576049711,8.88906879495546,9.657341699694769,9.690816121382383,25.803160829795402,17.723407431542455,15.69318026200392,16.900347974465774,14.486012549542124,6.035838562309209,10.059730937182053,2.011946187436422,2.816724662410934,4.828670849847356,4.89527635276585,5.231060087334697,17.7051264494404,20.924240349338618,22.591208340868334
88,23,88,0,2.933333333333326,4.051672287938231,34.92908117600369,4.929072075623619,8.143760510264194,9.757719011495874,10.534347948639294,8.143760510264192,25.237723256253428,17.09402410942094,14.991187465371297,17.017023609340413,14.586020236577497,7.698177347082606,9.318846262257807,1.215501686381458,3.646505059144374,6.482675660701091,5.729929899893438,5.672341203113433,17.82735806692807,21.879030354866245,22.747172205028814
89,23,89,0,2.9666666666666592,5.593559926313105,35.24114886785893,4.074524459245912,8.03065450553333,9.588959873679642,10.388039863152954,8.826126965342793,26.478380896028497,18.448194116616282,15.582059794729389,16.780679778939373,14.383439810519462,6.792179910523146,10.787579857889568,2.796779963156496,2.7967799631566095,6.392639915786447,5.650348792670457,5.9930999210497475,18.378839757886,20.77607972630591,24.82297968700519
90,23,90,0,2.9999999999999925,6.434686362807042,36.230841412314255,4.0216789767544014,8.083474700891694,9.652029544210563,9.652029544210563,8.083474700891694,26.59178418890367,18.51720059814249,15.282380111666725,16.086715907017606,14.478044316315845,7.239022158157923,11.260701134912324,3.217343181403521,3.217343181403521,6.484762498301511,6.484762498301511,6.032518465131602,17.695387497719366,21.717066474473768,22.578781731661117
91,23,91,0,3.0333333333333257,6.488331495527607,37.054783696827236,4.895276352765794,8.087923576049711,9.690816121382436,10.462120174669337,7.287579041777548,26.60641942096204,18.527391848413632,15.290791024516693,16.095569499491262,14.486012549542124,8.047784749745631,11.266898649643906,3.219113899898275,4.023892374872787,6.488331495527551,6.488331495527551,6.438227799796493,18.50990492441491,21.729018824313187,23.39401189933257
92,23,92,0,3.066666666666659,7.131859665752927,35.69450001387034,3.962144258751664,7.924288517503271,9.509146221003931,10.301575072754275,7.963811398678435,26.954231805876017,19.03479421729638,15.452362609131399,16.641005886756886,15.056148183256198,7.924288517503271,11.094003924504591,3.16971540700132,3.962144258751607,6.339430814002583,6.534535713107002,6.339430814002583,18.225863590257575,21.395578997258838,22.244537896931845
93,23,93,0,3.099999999999992,7.1392605378241,36.56707217814754,3.9662558543466844,7.139260537824043,9.552008998760853,10.312265221301402,8.089606398886142,26.225320401351368,19.104017997521762,15.468397831952132,16.65827458825612,14.278521075648086,7.535886123258763,10.708890806736065,3.5696302689120216,4.362881439781404,6.346009366954718,6.39539539868823,5.949383781520055,19.038028100864096,19.83127927173348,21.432466415755133
94,23,94,0,3.1333333333333253,7.873039549695477,37.03677302696824,3.9365197748477385,7.129340533028098,10.265187673726073,11.022255369573685,7.912306823460518,26.814606473196744,19.698338659940156,15.746079099390954,16.533383054360513,14.958775144421395,7.873039549695477,11.022255369573713,3.9365197748477385,4.723823729817298,7.085735594725975,6.347447411219307,6.298431639756359,18.895294919269134,19.682598874238693,22.058565258100835
95,23,95,0,3.1666666666666585,7.084637830982103,36.21892645134435,3.9359099061011875,7.911081002450908,9.446183774642833,10.233365755863048,7.911081002450851,26.810452196989598,18.90876006217377,15.350048633794529,16.530821605624908,15.743639624404693,8.265410802812482,10.626956746473184,2.7551369342708085,4.329500896711295,6.297455849761889,6.346464027413853,6.297455849761889,18.89236754928561,20.466731511726096,21.268485941345336
96,23,96,0,3.199999999999992,6.399999999999977,35.20908973546461,3.1999999999999886,7.199999999999989,8.799999999999983,10.400000000000006,8.800000000000011,25.599999999999966,18.399999999999977,15.199999999999989,16.0,15.199999999999989,6.7999999999999545,10.0,2.8000000000000114,3.599999999999966,7.199999999999989,7.24430811050992,7.199999999999989,18.399999999999977,17.599999999999966,22.399999999999977
97,23,97,0,3.233333333333325,5.553981520800789,35.70416691943342,3.9671296577147928,7.934259315429642,9.521111178515582,10.314537110058552,7.934259315429699,25.389629809374924,17.45537049394528,14.678379733544887,15.075092699316372,15.075092699316372,7.140833383886672,10.314537110058552,1.5868518630859398,3.1737037261718797,6.3474074523437025,7.140833383886672,7.140833383886672,19.835648288574134,18.248796425488194,22.230089888328976
98,23,98,0,3.266666666666658,4.827589309760488,34.92063492063491,4.761904761904759,7.936507936507951,8.730158730158735,9.523809523809518,7.186813601696329,24.60317460317458,16.66666666666663,14.285714285714278,15.079365079365061,15.079365079365061,7.936507936507951,9.523809523809518,1.5873015873015675,3.1746031746031917,6.349206349206327,7.14285714285711,7.14285714285711,19.84126984126982,19.84126984126982,22.22222222222223
99,23,99,0,3.2999999999999914,4.838552338915463,35.48271715204692,5.644977728734716,8.104474865397364,9.677104677830954,10.514500681852233,7.257828508373223,25.81820979616424,17.7413585760234,15.322082406565642,16.12850779638495,16.12850779638495,8.87067928801173,9.677104677830926,0.8064253898192533,3.225701559277013,7.257828508373223,7.257828508373223,7.257828508373223,20.96706013530047,20.160634745481218,23.40023606010408
100,23,100,0,3.3333333333333246,6.496541512222099,35.464214897227514,4.0289840110812065,8.057968022162413,8.86376482437862,9.669561626594856,7.296800387147586,25.78549767091971,17.727529648757297,14.504342439892298,15.310139242108562,16.115936044324826,8.460866423270545,10.072460027703016,2.0144920055406033,4.4318824121893385,7.29680038714764,7.252171219946149,7.252171219946149,20.144920055405976,17.727529648757297,22.619794148753677
101,23,101,0,3.366666666666658,6.44465253724965,35.18095621939775,4.796164601864575,7.993607669774349,9.592329203729179,10.391689970706608,7.19424690279692,26.391014057879566,18.402666843826097,15.187854572571212,15.98721533954864,16.78657610652607,9.192648820240436,9.992009587217922,1.1990411504661438,4.396484218375861,6.44465253724965,7.238519609297539,7.194246902796863,21.582740708390645,19.984019174435787,22.396371225925368
102,23,102,0,3.399999999999991,6.448258802191617,36.28041057193525,4.90290337845458,8.100524866852936,9.672388203287397,10.50937607315417,7.298933365528706,26.611277368064858,18.538744056300857,15.314614655205048,16.120647005478986,16.926679355752924,9.269372028150372,10.075404378424423,2.01508087568493,4.433177926506687,7.298933365528703,7.254291152465612,7.254291152465612,20.956841107122727,19.34477640657485,22.56890580767066
103,23,103,0,3.433333333333324,6.493557832134684,36.53528052291908,4.937346283704174,7.305252561151576,9.740336748202054,9.774098848563435,6.493557832134684,25.175625045972456,17.875722126956195,14.610505122303039,15.422199851319874,16.23389458033671,9.334489383693608,9.334489383693665,1.2175420935252532,4.464321009592595,6.493557832134684,7.305252561151519,7.305252561151519,21.10406295443778,18.668978767387273,22.74194234216304
104,23,104,0,3.466666666666657,6.496340495121274,34.95557917788036,4.872255371340998,7.353358146475189,8.932468180791773,9.77828731100515,7.30838305701144,25.998047049329767,18.676978923473712,15.428808675913046,15.428808675913046,17.05289379969338,8.932468180791773,9.744510742681939,1.6240851237803327,4.060212809450775,7.30838305701144,7.353358146475186,7.30838305701144,20.301064047253988,17.86493636158349,23.563230869182515
105,23,105,0,3.4999999999999907,6.496340495121274,33.33333333333334,4.872255371340998,8.160926746052477,8.96930325739846,9.878924136945669,7.30838305701144,26.80970539431641,18.676978923473712,15.428808675913046,16.240851237803213,17.864936361583545,9.744510742681939,9.744510742681939,0.8120425618901663,4.060212809450775,7.30838305701144,7.30838305701144,7.30838305701144,20.301064047253988,17.86493636158349,23.549234294814653
106,23,106,0,3.533333333333324,5.695810108319445,33.86972185677927,4.8330551423322845,8.055091903887046,8.897139810505525,9.79944224221459,7.2941959512789785,25.826589348249044,17.79427962101105,14.90192002219112,15.304674617385444,16.915692998162854,8.860601094275808,9.666110284664512,1.611018380777466,4.027545951943523,8.095267175076325,7.249582713498398,7.2495827134983415,20.137729759717786,17.721202188551615,23.359766521272604
107,23,107,0,3.566666666666657,6.491485509241598,33.90328507770255,4.831018093370858,7.246527140056287,8.89338982030745,8.89338982030745,7.24652714005623,25.778007537616233,18.536398115743715,15.298223962341012,14.493054280112517,16.908563326797946,8.454281663399001,10.064621027855935,2.012924205571153,3.6232635700281435,7.291121574130573,7.246527140056287,7.246527140056287,20.934411737940366,17.71373300902644,23.363798896272804
108,23,108,0,3.5999999999999903,5.775467470817091,33.86796128948505,4.9504006892718735,7.42560103390781,8.291818533648845,9.113160465456676,7.471297471576233,25.590374296543022,18.170211036050773,15.2637354585882,15.676268849360838,17.326402412451444,9.075734596998359,9.075734596998416,0.8250667815453312,4.1253339077264854,7.425601033907753,7.425601033907753,7.013067643135116,20.626669538632655,18.97653597554205,23.10186988326859
109,23,109,0,3.633333333333324,5.730778573309237,33.605900796803695,4.912095919979322,7.413486731814451,9.005509186628814,9.042645464537426,8.227658839134653,26.248962701322966,18.847490072620626,15.964311739932896,16.373653066597853,18.011018373257627,9.005509186628842,9.005509186628785,0.8186826533298586,4.09341326664952,7.413486731814394,7.368143879969011,7.368143879969011,21.285748986577175,18.829701026587486,22.92311429323695
110,23,110,0,3.6666666666666567,5.638564332720989,34.721090329620324,4.833055142332228,8.095267175076327,8.897139810505553,9.799442242214628,8.055091903887103,26.59400516700588,18.52671137894032,15.707429212579825,15.304674617385444,17.721202188551615,8.457846499081427,10.068864879858893,1.2082637855830853,3.624791356749199,7.294195951279035,7.2941959512789785,7.2495827134983415,20.137729759717786,18.52671137894032,23.373650484769545
111,23,111,0,3.69999999999999,6.49844056137546,36.30726174909443,4.836194101643741,8.060323502739493,9.70591477939001,9.705914779390033,7.254291152465555,26.611277368064915,18.556258225588493,15.314614655205105,15.314614655205105,16.92667935575298,8.866355853013488,10.478420553561364,1.6120647005478759,4.0301617513697465,7.254291152465555,7.254291152465555,7.254291152465555,20.15080875684879,18.538744056300857,22.56890580767063
112,23,112,0,3.733333333333323,7.431674318211378,38.0199980394594,4.128707954561833,6.657341539425643,9.943245464613772,9.943245464613772,8.257415909123779,26.43662997313691,19.81779818189699,16.10196102279133,15.6890902273351,17.340573409159845,8.257415909123665,9.908899090948523,2.477224772737202,4.128707954561833,7.47740813028987,7.47740813028987,7.431674318211378,20.643539772809333,18.99205659098459,23.12076454554645
113,23,113,0,3.766666666666656,7.235977060859557,37.590747529852855,3.9953999473665363,7.191719905259731,9.622197269263134,9.622197269263134,7.990799894733016,26.381744147014878,19.19456002792796,15.582059794729446,15.182519799992747,16.780679778939373,7.9907998947330725,10.388039863152926,2.3972399684199104,3.1963199578932517,6.442388836641425,7.235977060859557,6.792179910523089,20.77607972630591,18.378839757886,21.58995242215599
114,23,114,0,3.7999999999999896,6.33943081400264,36.48616434188508,4.754573110501951,7.963811398678432,8.752662748017515,10.422774242970878,7.131859665752927,26.162155850466764,18.225863590257518,15.056148183256198,14.263719331505854,15.848577035006542,7.924288517503271,11.094003924504591,3.16971540700132,3.16971540700132,6.388765649999419,7.131859665752927,7.131859665752927,19.810721293758206,18.225863590257575,22.188007849009153
115,23,115,0,3.833333333333323,6.441357457827792,37.07279623148749,4.025848411142363,7.246527140056287,8.89338982030745,10.498128257960262,7.29112157413057,24.97324338020729,17.73202287761475,14.493054280112517,14.493054280112574,16.103393644569508,8.051696822284782,9.662036186741659,1.6103393644569337,3.2206787289139243,7.29112157413057,7.24652714005623,7.24652714005623,20.93441173794031,19.324072373483375,21.739581420168804
116,23,116,0,3.866666666666656,6.395395398688232,35.73154090371192,3.966255854346741,7.139260537824043,7.972075603545349,9.552008998760858,7.932511708693369,25.396428992827275,18.262013378742147,15.071772246517469,14.278521075648086,15.865023417386794,7.1392605378241,10.312265221301402,2.3797535126079765,2.3797535126080334,7.183194863500308,7.1392605378241,7.1392605378241,20.62453044260286,19.038028100864153,21.432466415755133
117,23,117,0,3.899999999999989,5.748075794443201,37.40226586503852,4.877404047630023,7.316106071445063,9.788620356420267,9.788620356420267,8.16955067210561,26.012821587360236,18.696715515915173,15.851563154797645,15.445112817495158,16.258013492100133,7.7225564087475504,10.16125843256259,2.8451523611175276,2.8451523611175276,6.553814762431366,7.316106071445063,7.316106071445063,20.32251686512518,19.50961619052015,21.948318214335217
118,23,118,0,3.9333333333333225,5.701732449517232,36.294561418435215,4.838080415478032,8.063467359130016,9.709700483796906,10.513475160382729,8.103684403422479,26.60944228512909,18.545974925999076,15.723761350303562,15.320587982347035,16.12693471826003,7.660293991173546,10.88568093482553,2.822213575695514,2.822213575695514,6.500975219429852,7.301780248572272,7.257120623217077,20.158668397825124,20.158668397825124,23.397953741124063
119,23,119,0,3.966666666666656,5.737704918032819,36.894352245661956,4.918032786885249,8.237602968131881,9.870159490813332,9.836065573770469,8.237602968131826,27.04918032786884,18.870269562657914,15.983606557377016,15.57377049180326,16.393442622950772,7.786885245901658,11.065573770491824,2.8688524590164093,2.8688524590164093,7.422446834538898,8.196721311475414,7.786885245901658,19.672131147540938,20.491803278688508,23.770491803278674
120,23,120,0,3.999999999999989,5.930287131484704,37.27609054076103,4.235919379631923,7.6246548833374845,9.319022635190265,10.201444767595437,9.319022635190265,27.109884029644377,19.485229146306892,16.52008558056457,16.94367751852775,16.94367751852775,7.6246548833374845,10.166206511116627,2.5415516277791426,3.3887355037055613,7.6246548833374845,8.471838759263903,8.471838759263903,19.48522914630695,21.17959689815973,24.582934680956438
121,23,121,0,4.033333333333323,4.9984382320405985,34.998983755310704,4.9984382320405985,7.497657348060898,8.372280421977264,9.201592465833302,8.372280421977292,25.83869736711849,18.346530559368084,15.828387734795285,15.828387734795285,14.995314696121852,7.081120828724181,10.413412983417913,2.0826825966835827,2.0826825966835827,7.4976573480609545,7.497657348060898,7.497657348060898,19.99375292816245,21.659899005509317,23.34091664642166
122,23,122,0,4.066666666666656,0.7461855486748732,29.931250103185146,4.477113292049239,6.7156699380739155,7.4990719544603515,8.208041035423634,8.985263857696507,20.90651585858369,14.197148306774224,13.804432650485182,15.669896522172394,13.431339876147717,5.596391615061577,6.3425771637364505,0.373092774337465,1.8654638716872114,6.715669938073859,6.75699752776336,7.088762712411324,17.908453168197013,20.893195362896506,22.39799943341267
123,23,123,0,4.099999999999989,3.2241294010958086,34.74364088751468,4.902903378454631,7.254291152465555,8.86635585301346,9.672388203287397,7.254291152465555,22.583294655678532,15.33581136383436,13.70254995465723,14.508582304931167,12.090485254109296,6.045242627054677,9.269372028150428,2.0150808756848733,2.0150808756848733,7.298933365528703,8.060323502739493,7.657307327602496,18.538744056300857,20.956841107122727,24.19440065116354
124,23,124,0,4.133333333333322,4.836194101643741,35.50204234118101,4.0301617513697465,8.060323502739493,8.060323502739521,9.672388203287397,8.100524866852936,24.999999999999986,16.94585973511413,14.50858230493111,15.314614655205048,13.702549954657172,6.448258802191617,10.478420553561364,2.4180970508218707,2.4180970508218707,7.298933365528703,7.298933365528703,7.254291152465555,18.538744056300857,20.956841107122727,21.01875214630837
125,23,125,0,4.166666666666655,6.6059327272990345,37.98411318196921,4.128707954561833,6.605932727298978,9.908899090948495,9.908899090948495,8.298600283855887,25.611304268114207,19.009999019729744,15.689090227335157,15.689090227335157,15.689090227335157,7.431674318211378,9.908899090948466,2.477224772737088,3.3029663636495457,3.302966363649489,2.477224772737088,2.89009556819326,18.166315000072245,18.992056590984646,24.786006266464344
126,23,126,0,4.199999999999989,6.607960573060097,38.004750441894025,4.12997535816254,7.479703495835753,9.911940859590118,10.737935931222609,8.301147733565546,26.483416667705594,19.01583458414153,15.693906361017639,16.51990143265016,15.693906361017639,7.8469531805088195,10.324938395406377,2.8909827507138175,3.71697782234628,3.3039802865300203,3.3039802865300203,3.3039802865300203,18.99788664754766,19.82388171918018,23.953857077342747
127,23,127,0,4.233333333333322,8.127664151569547,38.20866698527509,3.351121778646699,6.502131321255604,10.565963397040349,10.597177537118245,8.94043056672649,26.833603517077616,20.33540921029214,16.255328303139038,16.255328303139038,15.442561887982095,6.9085145288340755,10.97234660461885,3.657448868206245,3.657448868206302,3.2510656606278303,2.43829924547083,2.43829924547083,16.255328303139038,17.06809471829598,21.131926794080726
128,23,128,0,4.266666666666655,7.254291152465555,37.892094304891764,4.10997468263392,6.448258802191617,10.478420553561364,11.28445290383533,8.866355853013431,26.611277368064858,20.166922960748863,16.523663180615927,16.120647005478986,15.314614655205048,6.851274977328615,10.881436728698304,3.627145576232749,3.627145576232806,3.2241294010958086,3.2241294010958086,3.2241294010958086,17.732711706026976,19.34477640657485,21.762873457396694
129,23,129,0,4.299999999999988,7.314897736412547,37.387255097219736,4.144311810878165,6.502131321255604,9.787003658578382,10.597177537118245,8.977298478053596,26.870505120829762,20.384077989618593,16.661711510717453,15.442561887982038,15.442561887982038,6.502131321255604,11.37872981219732,4.063832075784774,2.43829924547083,4.876598490941717,4.063832075784717,4.063832075784717,18.693627548609925,20.31916037892381,23.584235090440448
130,23,130,0,4.3333333333333215,7.197927295365389,37.58917587579725,3.9988484974252856,7.242222650649545,10.397006093305635,10.397006093305635,8.83374506141972,27.23917443258348,20.01023148807172,16.395278839443506,15.19562429021596,15.19562429021596,6.398157595880434,11.996545492275686,3.9988484974252287,2.3993090984551486,4.798618196910297,5.598387896395309,5.598387896395309,19.194472787641132,19.9942424871262,22.407828636177747
131,23,131,0,4.366666666666655,6.296090505377492,36.98953171909275,3.9350565658609185,7.083101818549665,9.476871162142405,11.04623017101395,8.69282407859744,25.983295012305494,18.904660474978186,15.74022626344373,14.166203637099386,14.166203637099386,5.50907919220532,11.805169697582755,4.722067879033091,1.5740226263444015,5.565010364145787,6.345088057621079,5.9025848487914345,18.888271516132477,20.46229414247688,22.050366063693648
132,23,132,0,4.399999999999988,6.297455849761889,37.00592644621627,3.9359099061011875,7.084637830982103,9.446183774642833,11.048625611219231,8.694709168802225,25.988929643177276,18.908760062173826,15.743639624404693,14.956457643184478,14.169275661964207,5.903864859151724,11.414138727693455,3.54231891549108,1.967954953050537,5.510273868541674,6.346464027413853,6.297455849761832,18.89236754928561,20.466731511726096,21.268485941345336
133,23,133,0,4.433333333333321,6.199874066337031,36.42426013973005,3.87492129146068,6.9748583246291105,9.299811099505547,10.877422411505313,8.559980915473629,25.586220014973936,18.61576070287075,15.499685165842607,13.949716649258278,13.949716649258278,5.424889808044895,11.624763874381927,3.87492129146068,1.5499685165842152,6.2481228412251175,6.248122841225122,6.199874066337031,19.37460645730323,20.149590715595366,20.938921615939027
134,23,134,0,4.466666666666654,7.748214000381836,36.424847649993936,3.950829438343978,7.748214000381893,10.102435069462862,10.847499600534604,8.55818208726429,27.936582871644802,20.20487013892572,16.271249400801935,14.721606600725579,13.946785200687373,5.8111605002863485,13.559374500668298,5.811160500286405,2.711874900133637,6.24680983600539,7.143500344113981,6.585981900324612,18.59571360091644,20.145356400992853,21.750273173967777
135,23,135,0,4.499999999999988,7.748214000381836,36.424847649993936,3.950829438343978,7.748214000381893,10.102435069462862,10.847499600534604,8.55818208726429,27.936582871644802,20.20487013892572,16.271249400801935,14.721606600725579,13.946785200687373,5.8111605002863485,13.559374500668298,5.811160500286405,2.711874900133637,6.24680983600539,7.143500344113981,6.585981900324612,18.59571360091644,20.145356400992853,21.750273173967777
136,23,136,0,4.533333333333321,9.444135758066238,37.78474017742648,4.0129860432832505,7.083101818549665,9.444135758066238,11.04623017101395,8.657124444894066,29.130051933932116,22.050366063693648,17.314248889788075,14.953214950271558,14.166203637099386,5.902584848791378,14.559709293685444,7.476607475135779,2.7545395961026315,6.296090505377492,7.255885790183415,7.083101818549721,18.888271516132477,20.46229414247688,22.050366063693648
137,23,137,0,4.566666666666654,10.39168997070658,37.578458923695536,3.996803834887146,7.19424690279692,9.592329203729179,11.191050737684037,8.829228254241462,30.386225229634427,23.19524023003584,17.985617256992214,15.98721533954864,15.187854572571212,6.794566519308148,14.788174189082497,6.794566519308148,3.5971234513984314,7.19424690279692,7.369742128564204,7.19424690279692,19.184658407458357,20.783379941413216,22.396371225925368
138,23,138,0,4.599999999999987,9.372426139694994,36.71697699542803,3.982515314667628,7.810355116412438,10.18345717208057,10.934497162977436,8.59139062805366,29.68962444680959,21.882936944091647,17.182781256107376,15.620710232824877,14.839674721183655,6.638801848950607,14.449156965363045,6.638801848950607,3.5146598023856086,7.029319604771217,7.200791622300969,7.029319604771217,19.525887791031096,20.306923302672374,21.882936944091647
139,23,139,0,4.63333333333332,9.404912982823479,36.716976995428055,3.982515314667628,7.8493097476730185,9.372426139694937,10.934497162977436,8.626819193321136,29.720428146376488,21.882936944091647,17.182781256107432,15.620710232824933,14.839674721183655,6.63880184895055,14.449156965363045,6.638801848950607,2.7336242907443307,7.8493097476730185,7.8493097476730185,7.419837360591828,18.744852279389875,20.306923302672374,21.88293694409165
140,23,140,0,4.666666666666654,7.932511708693369,37.29124291826604,3.9662558543466844,7.932511708693426,10.312265221301402,10.312265221301402,8.76174555955837,28.568057404223254,20.639779635401524,16.65827458825612,15.865023417386794,15.071772246517469,6.7426349523893805,13.088644319344098,5.156132610650673,2.776379098042696,7.183194863500311,7.3134144356295,7.535886123258706,19.038028100864153,20.624530442602804,22.225193469735597
141,23,141,0,4.699999999999987,7.932511708693369,37.29124291826604,3.9662558543466844,7.932511708693426,10.312265221301402,10.312265221301402,8.76174555955837,28.568057404223254,20.639779635401524,16.65827458825612,15.865023417386794,15.071772246517469,6.7426349523893805,13.088644319344098,5.156132610650673,2.776379098042696,7.183194863500311,7.3134144356295,7.535886123258706,19.038028100864153,20.624530442602804,22.225193469735597
142,23,142,0,4.73333333333332,7.870113131721894,36.99790323254592,3.9350565658609185,7.083101818549665,9.444135758066238,11.018158384410611,8.69282407859744,27.556636686228572,20.47742338235708,16.52723757661596,15.74022626344373,14.953214950271558,6.689596161963607,12.19867535416887,4.328562222447033,2.7545395961026884,7.083101818549721,7.126690548845417,7.083101818549665,18.888271516132477,20.46229414247688,22.836893211322973
143,23,143,0,4.766666666666653,7.083101818549721,37.80932094995637,3.9350565658609185,7.083101818549665,9.444135758066238,10.23114707123841,9.476871162142409,27.556636686228572,20.47742338235708,16.920743233202018,16.527237576615903,14.953214950271558,6.296090505377492,11.805169697582812,4.722067879033148,3.148045252688746,5.50907919220532,5.56501036414584,5.115573535619205,19.67528282930465,20.46229414247682,22.836893211323
144,23,144,0,4.7999999999999865,8.725762879562694,38.10909400074361,3.173004683477359,7.139260537824043,9.519014050432077,10.31226522130143,9.552008998760881,28.5680574042232,21.4324664157551,17.054900173690783,16.65827458825612,15.071772246517412,6.346009366954661,12.692018733909435,4.759507025216067,3.173004683477302,4.75950702521601,4.825158499279236,4.759507025216067,19.83127927173348,19.83127927173348,23.004283955210838
145,23,145,0,4.83333333333332,7.139260537824043,38.10909400074361,3.966255854346741,7.139260537824043,9.552008998760886,10.31226522130143,9.552008998760881,27.775120828268594,20.639779635401577,17.05490017369084,16.658274588256177,15.071772246517469,6.346009366954718,11.89876756304011,4.759507025216067,3.173004683477359,2.508480456542478,2.3797535126080334,1.9831279271733706,19.038028100864153,19.038028100864153,22.211032784341484
146,23,146,0,4.866666666666653,7.9907998947330725,38.43068022831244,3.196319957893195,7.235977060859553,9.58895987367967,11.187119852626267,8.826126965342853,27.21568375604261,19.992974949091177,15.981599789466088,15.981599789466088,13.584359821046178,5.993099921049804,12.385739836836194,5.194019931576463,2.7967799631566095,2.3972399684199104,2.3972399684199104,2.3972399684199104,17.579759768412657,18.378839757886,22.388504443523566
147,23,147,0,4.899999999999986,7.229673639815701,38.76688694647382,4.096027440703103,7.274164359063438,10.473712395892626,11.27481167608975,8.872706154245142,27.418213013479743,20.1465880486482,16.467589957357973,16.869238492903264,12.852753137450122,6.02472803317977,12.45110460190483,5.22143096208913,2.8115397488172107,2.5402483823886204,1.7962268570851514,1.6065941421812795,16.86923849290332,20.08242677726588,23.30946089646844
148,23,148,0,4.933333333333319,7.943014707895372,37.63514030117278,3.2749888626487147,6.403863187357913,9.564656284586034,10.356424117654312,8.737316178684921,26.26004389491337,19.87341644982091,15.886029415790745,15.886029415790745,11.12022059105351,4.765808824737235,12.708823532632607,6.354411766316275,2.382904412368646,2.511801796516667,2.382904412368589,1.985753676973843,16.680330886580293,21.446139711317528,22.367732504955633
149,23,149,0,4.966666666666653,7.298043665713408,37.730529361123395,2.564271160779887,6.686801087579132,9.764453671204913,10.665641937451648,9.764453671204912,26.150537373919583,19.52890734240982,15.812427942379088,16.217874812696493,10.541618628252706,3.649021832856704,12.568852979839733,6.081703054761192,2.027234351587083,4.054468703174109,3.3434005437895973,3.2435749625392987,16.217874812696493,22.705024737775034,22.133091755503752
150,23,150,0,4.999999999999986,5.719610933267307,37.91373008655517,3.335077620911261,7.324675879097922,9.84039072977971,10.639091330029517,9.740146444538569,26.085439308958836,18.76171883631002,15.773065138981906,16.98637784198047,9.706501623988856,3.639938108995807,12.53756459765225,6.0665635149930495,2.0221878383310354,4.920195364889855,5.888699871926564,5.257688379660635,14.559752435983285,23.457378924639727,21.4161053456475
151,23,151,0,5.033333333333319,6.662112932073421,38.89915703315516,2.4790002279991654,6.814119857313859,10.052779799649404,10.868719072859447,10.052779799649379,25.947395374732153,19.166660481639372,15.700334777328067,17.353001595994158,9.089667502663588,3.3053336373321827,12.395001139995884,5.784333865331462,2.4790002279991086,5.843059572604045,6.293167755275531,5.784333865331405,14.874001367994993,24.79000227999171,23.372238290416146
152,23,152,0,5.066666666666652,6.547486746180255,38.527383776866195,3.374497429604077,6.748994859208223,9.150390903898721,10.919296078982054,9.15039090389875,25.699406770185863,18.983477803069494,15.550281022178126,17.187152708723147,9.002794275997871,4.092179216362638,12.27653764908797,5.729050902907716,2.455307529817617,5.787215347441371,6.233021684069987,6.138268824544014,14.73184517890553,24.553075298175884,22.47347928299325
153,23,153,0,5.099999999999985,6.5648863201303245,38.16678339856145,3.3573374311658166,7.373564065154726,9.906069929898564,10.710101417711634,8.993949549421943,26.259545280521188,18.88694299862856,15.471204714188048,17.0997525788394,9.771287187908229,4.478506627791205,12.621245951048195,6.107054492442728,2.035684830814148,5.7577861929093,6.714674862331682,6.514191458605524,14.656930781862343,23.613944037444924,22.225353033518438
154,23,154,0,5.133333333333319,7.222220846246728,37.46765406885175,2.537629737654286,6.617328755691781,9.762456522019614,10.554831550427139,8.863559621405654,25.082772370020116,18.526435105904053,14.845676183951639,16.049379658326075,9.629627794995656,4.01234491458149,12.037034743744584,5.617282880414166,2.4074069487488714,5.674312595119885,6.617328755691774,6.4197518633304185,15.246910675409765,23.271600504572802,21.10966310085422
155,23,155,0,5.166666666666652,7.4269390861529265,38.860743767479704,2.4605046520463247,6.561345738790294,9.977777002061403,10.787628632910637,9.876133159724978,26.296593507183914,19.752266319449898,15.993280238301452,16.40336434697582,11.482355042883057,4.1008410867439125,12.302523260231851,5.741177521441557,2.4605046520463816,6.561345738790351,6.763280381807178,6.561345738790294,17.223532564324557,22.964710085766114,21.575257265821218
156,23,156,0,5.199999999999985,5.752021633276684,38.1191847824787,2.59849850167369,6.624897283037926,9.076165074030245,10.808004636072708,9.860608514188584,24.706241710817327,18.09644803449637,15.201771459374072,14.790912771282876,9.860608514188584,2.4651521285471745,12.325760642735645,5.752021633276627,0.8217173761824483,7.39545638564141,6.776055072810686,6.573739009459018,17.256064899829994,23.00808653310662,22.322901948093584
157,23,157,0,5.233333333333318,5.872202195147001,39.251619777690856,2.4913643956122087,6.643638388299223,10.102918663299313,11.655988545186446,9.172673058301129,24.140393963016777,17.518463166731788,14.532958974404494,13.28727677659839,9.135002783911432,2.0761369963434504,12.872049377329745,6.228410989030522,1.2456821978060475,7.474093186836569,7.656414934887795,7.474093186836626,16.609095970748,21.59182476197242,22.483710578534637
158,23,158,0,5.266666666666652,5.765468011888231,38.11051877108587,2.470914862237805,6.6403841644875765,10.73892940863441,11.56031425234264,9.09738223205001,23.94224559383911,17.31600336663885,14.41367002972055,13.17821259860159,9.0600211615386,2.0590957185314664,12.766393454895365,6.17728715559457,1.2354574311188458,7.4583619070370295,6.791895312609972,6.589106299300795,17.296404035664636,21.414595472727626,22.375085721111027
159,23,159,0,5.299999999999985,6.593356830908476,38.95454873661698,2.4725088115906715,6.64466777466113,9.924316233888835,10.840258655416987,9.103250814065278,24.779971841854213,18.15045274717192,14.835052869544143,14.010883265680548,9.890035246362743,2.8845936135224406,12.774628859885183,6.181272028976707,1.2362544057953642,7.463173182130656,7.598468303169592,7.417526434772071,17.307561681134757,21.428409700452562,21.57058279495116
160,23,160,0,5.333333333333318,5.633449324821925,37.333395015986525,2.4143354249237063,6.4883314955275475,9.790552705531617,10.493027539418971,9.657341699694769,24.156763500062,17.7051264494404,14.888401787029466,14.486012549542124,9.657341699694769,2.4143354249236495,12.071677124618475,5.6334493248219815,1.6095569499490807,7.243006274771062,7.419690928300346,7.645395512258347,16.095569499491262,20.119461874364106,22.591208340868306
161,23,161,0,5.366666666666651,6.539606644272283,37.824219317649394,2.4523524916021415,6.590499292326167,9.84341148938799,10.658254841104878,9.80940996640851,25.354157009213367,18.801369102282933,15.53156578014682,14.714114949612735,10.626860796942537,2.861077906869127,12.670487873277636,6.130881229005297,1.2261762458010708,7.357057474806368,7.53652427375964,7.76578289007341,16.34901661068085,21.253721593885075,22.206996305928154
162,23,162,0,5.399999999999984,4.972359282333607,36.93032603370248,2.4523524916021415,7.357057474806368,9.84341148938799,11.473469156586283,9.80940996640851,24.5371453141366,17.18591953520763,14.714114949612735,14.714114949612735,11.444311627476566,3.2698033221361698,11.444311627476566,4.087254152670198,1.6349016610681133,7.357057474806368,7.53652427375964,7.357057474806368,16.34901661068085,20.436270763351047,21.3165096822097
163,23,163,0,5.433333333333318,6.535459155621709,36.90690442496972,1.6338647889054414,5.7765843588847945,9.837168692281631,10.651495261608213,9.803188733432535,23.705120295907758,17.972512677959685,14.704783100148859,14.704783100148859,11.437053522337976,3.267729577810883,10.620121127885284,4.084661972263575,2.4507971833581337,7.352391550074458,6.736597102634575,6.943925352848055,16.3386478890543,21.240242255770568,20.488560218810612
164,23,164,0,5.466666666666651,4.901594366716267,37.72069778133111,2.4507971833581905,6.586319527012478,10.651495261608188,10.651495261608213,9.803188733432535,23.705120295907758,17.155580283506993,14.704783100148859,14.704783100148859,11.437053522337976,3.267729577810883,10.620121127885284,4.084661972263575,1.6338647889054414,7.352391550074458,7.53174452925956,7.352391550074458,16.3386478890543,21.240242255770568,21.381166897944997
165,23,165,0,5.499999999999984,4.901594366716267,37.72069778133111,2.4507971833581905,6.586319527012478,10.651495261608188,10.651495261608213,9.803188733432535,23.705120295907758,17.155580283506993,14.704783100148859,14.704783100148859,11.437053522337976,3.267729577810883,10.620121127885284,4.084661972263575,1.6338647889054414,7.352391550074458,7.53174452925956,7.352391550074458,16.3386478890543,21.240242255770568,21.381166897944997
166,23,166,0,5.533333333333317,6.47821064143136,37.46911296293935,1.61955266035784,5.668434311252383,9.750998267516747,10.558191598757123,9.717315962146984,23.483513575188567,17.815079263936184,14.575973943220504,14.575973943220504,10.527092292325904,2.83421715562622,10.931980457415364,5.26354614616298,2.0244408254473,7.28798697161028,7.4657688765479815,7.2879869716102235,16.195526603578287,21.054184584651807,21.998509636552832
167,23,167,0,5.56666666666665,5.675882979789378,36.631684944598746,3.3431807206167643,7.342472340141709,10.540925533894608,10.57206570671196,8.919244682526198,25.188311159472427,17.856908047671947,15.000547875157736,14.595127662315633,11.351765959578813,4.054202128421025,12.162606385262961,4.865042554105173,1.62168085136841,6.537204504606176,7.475579352365756,7.297563831157788,17.02764893936819,21.08185106778916,21.952671582568197
168,23,168,0,5.599999999999984,6.37071109017927,36.76982167016044,2.3890166588172406,6.4202893561212235,9.589190015819392,10.382988765487045,9.589190015819387,24.73782882605002,18.333097925568396,15.130438839175838,15.130438839175838,11.945083294086203,3.9816944313620297,11.148744407813808,4.778033317634481,2.3890166588172406,7.167049976451722,7.341881765059625,7.167049976451665,15.926777725448233,20.704811043082714,20.76597753097406
169,23,169,0,5.633333333333317,7.357057474806368,38.63698450968109,2.4523524916021415,6.5396066442723395,10.658254841104878,11.473469156586283,9.029039537048078,25.354157009213427,18.81913138220312,15.122840364879778,15.53156578014682,11.444311627476623,4.4959795679372405,11.853037042743608,4.4959795679372405,2.861077906869127,7.357057474806368,7.536524273759585,7.357057474806368,16.34901661068085,20.436270763351047,22.206996305928154
170,23,170,0,5.66666666666665,6.525884661473299,37.66543669078145,2.4472067480525084,6.525884661473242,10.635890745287929,10.635890745287925,9.822757170177555,25.30095666777243,18.77964341126441,15.49897607099905,15.49897607099905,12.236033740262428,4.0786779134207904,11.420298157578259,4.894413496105017,2.4472067480524515,7.341620244157468,7.520710469952363,7.341620244157468,16.314711653683162,20.39338956710401,22.085202929749805
171,23,171,0,5.699999999999983,5.626893294421677,36.31550951844664,2.4115256976093065,7.279097987455925,9.67953825565018,11.282458703055212,9.679538255650177,24.97090578958726,17.70278148974073,14.871075135257342,15.272996084858903,12.057628488046532,4.019209496015492,11.253786588843411,4.019209496015492,2.4115256976093065,7.2345770928278625,6.480780580257212,6.832656143226359,16.88067988326509,20.89988937928058,21.837293962367752
172,23,172,0,5.7333333333333165,7.352391550074458,36.90690442496974,3.368298551317263,6.535459155621709,10.651495261608183,11.437053522338005,9.0233132233655,26.192845132692668,19.67433738456327,15.930181691827954,15.521715494601608,12.253985916790725,4.901594366716267,12.253985916790725,4.901594366716324,2.4507971833581337,7.352391550074401,6.7365971026345814,6.943925352848112,16.3386478890543,20.423309861317875,22.11760537894822
173,23,173,0,5.76666666666665,6.4826756607011475,36.60882660734992,1.8119629316763592,6.482675660701091,10.534347948639294,10.534347948639265,9.724013491051664,24.323535552456622,17.845765256206278,14.586020236577497,15.396354694165154,12.15501686381458,4.051672287938231,10.534347948639265,4.051672287938175,2.431003372762973,7.293010118288748,6.682189121422842,6.887842889494891,17.017023609340413,21.068695897278587,22.74717220502879
174,23,174,0,5.799999999999983,6.379617782631215,35.965006840137406,2.392356668486684,7.221237006979477,9.602596363262341,10.366878896775688,9.602596363262343,25.568263316662843,18.358728857908957,15.151592233749057,15.949044456578008,13.556687788091267,5.183439448387844,10.765605008190164,3.5885350027300547,3.5885350027300547,3.9872611141444736,4.066224445362532,3.5885350027300547,17.543948902235798,20.733757793551433,20.795009796401455
175,23,175,0,5.833333333333316,6.375362204328269,36.796666497276945,3.2857864712520444,6.424976666256913,9.596190869684573,10.390569154123748,9.596190869684543,25.613270566488655,19.192381739369146,15.9384055108207,16.735325786361727,13.547644684197564,5.578441928787242,10.359963582033458,3.9846013777051894,3.187681102164106,1.781967908757649,2.5200831842786178,1.9923006888525947,17.532246061902754,19.923006888525833,20.73524689049555
176,23,176,0,5.866666666666649,6.375362204328269,36.796666497276945,3.2857864712520444,6.424976666256913,9.596190869684573,10.390569154123748,9.596190869684543,25.613270566488655,19.192381739369146,15.9384055108207,16.735325786361727,13.547644684197564,5.578441928787242,10.359963582033458,3.9846013777051894,3.187681102164106,1.781967908757649,2.5200831842786178,1.9923006888525947,17.532246061902754,19.923006888525833,20.73524689049555
177,23,177,0,5.899999999999983,7.181409847369764,35.98675421669189,3.9896721374276467,8.019141750039934,9.608402876241513,11.17108198479744,8.137366432632401,27.235174745357543,19.21680575248297,15.559721335967822,16.756622977196116,14.362819694739528,7.580377061112529,11.570049198540232,3.590704923684882,4.388639351170411,2.393803282456645,1.7842356214450201,1.9948360687138234,18.35249183216723,20.74629511462382,21.559001041645317
178,23,178,0,5.933333333333316,7.867920458495746,35.44059334722356,4.011867994926571,7.081128412646137,10.258513195393709,10.258513195393734,7.907162200475468,26.797171476820136,19.732644121512152,15.735840916991492,16.522632962841044,14.949048871141883,7.867920458495746,11.01508864189401,3.1471681833982643,4.720752275097482,3.933960229247816,4.011867994926571,3.540564206323097,18.096217054540148,18.883009100389756,22.03017728378805
179,23,179,0,5.966666666666649,7.140833383886672,36.50621602719854,4.7605555892578195,7.934259315429642,9.521111178515582,11.107963041601494,6.396804364283247,26.195074587426838,18.266036671586846,14.67837973354483,15.868518630859285,15.075092699316372,9.124398212744097,10.711250075830037,2.7769907604003947,4.363842623486278,5.553981520800733,5.553981520800733,5.157268555029248,19.042222357031164,19.042222357031164,21.422500151660074
180,23,180,0,5.999999999999982,7.086614173228384,35.43307086614172,4.7244094488189035,7.874015748031468,8.661417322834637,10.23622047244092,6.3482344474791645,25.996179557825478,18.127345564128124,14.56692913385831,15.748031496062993,15.748031496062993,9.448818897637807,10.236220472440948,2.36220472440948,4.7244094488189035,5.511811023622045,5.567769930602733,5.511811023622045,19.685039370078755,19.685039370078755,22.04724409448818
181,23,181,0,6.033333333333316,6.298431639756416,33.85407006369056,5.5111276847868,7.912306823460515,8.660343504665036,10.234951414604126,5.567079654139574,25.19372655902555,17.33857104817713,14.171471189451893,15.746079099390954,15.746079099390954,10.234951414604097,9.447647459634595,1.5746079099391181,4.723823729817298,5.511127684786857,5.511127684786857,5.511127684786857,19.682598874238693,18.895294919269134,21.271781490575833
182,23,182,0,6.066666666666649,4.865587268921932,32.83479861756328,5.599283337596262,7.998976196566048,9.632042840445864,9.632042840445859,7.998976196566048,26.40873832855729,18.415026120647273,15.997952393132152,16.79785001278873,18.39764525210194,9.598771435879257,8.798873816222681,0.0,3.9994880982829955,5.599283337596262,6.399180957252838,5.99923214742455,19.997440491415148,18.39764525210194,21.656406350463115
183,23,183,0,6.099999999999982,8.037586005365998,32.878220101494904,4.798618196910297,7.197927295365389,8.833745061419748,10.427721096982257,7.9976969948504575,28.00336243265901,20.809386689404192,16.79516368918604,16.795163689185983,19.194472787641132,9.997121243563072,9.997121243563129,1.9994242487126712,5.198503046652775,6.398157595880434,6.398157595880377,6.3981575958803205,19.9942424871262,16.79516368918604,22.45060531266252
184,23,184,0,6.133333333333315,11.309897074376838,33.996604328994586,4.834780813297414,8.057968022162413,9.703078405175244,10.506304902225427,8.86376482437862,33.047494220121195,24.9926942120365,19.33912325318971,18.533326450973505,21.756513659838447,11.281155231027356,12.892748835459827,4.0289840110812065,6.446374417729942,6.446374417729942,6.446374417729885,6.043476016621753,20.95071685762224,17.727529648757297,21.771430709009458
185,23,185,0,6.166666666666648,13.012456401856875,36.67028017189256,4.870168374101013,8.116947290168355,9.774098848563435,11.392678421837523,8.92864201918519,34.91231038273426,26.798221640510985,20.292368225420944,18.668978767387216,21.915757683454558,11.363726206235697,14.610505122303096,5.681863103117905,6.493557832134684,6.544092118269076,6.493557832134684,6.493557832134684,21.10406295443778,17.045589309353602,22.785356843675046
186,23,186,0,6.1999999999999815,13.828586532004287,36.68599436648045,4.939462068472821,7.30838305701144,9.778287311005172,11.397560488861798,8.120425618901606,34.14443439660069,26.84657413334152,19.89504276630896,17.864936361583545,21.113106609144154,11.368595866462272,14.61676611402288,6.496340495121274,6.496340495121331,6.496340495121274,6.496340495121274,6.496340495121274,21.113106609144154,17.05289379969338,22.795120977723595
187,23,187,0,6.233333333333315,12.791861987045962,38.433611504966024,3.9896721374276467,7.225603555860707,10.495188785726185,11.199543386300736,8.813473819620361,32.80277278611767,25.583723974091985,19.15042625965276,16.756622977196173,19.94836068713829,9.575213129826352,14.362819694739585,6.383475419884235,4.787606564913176,6.383475419884235,7.181409847369764,6.782442633626999,20.74629511462382,16.756622977196173,20.807584155430703
188,23,188,0,6.266666666666648,12.894483720663748,38.741942211303,4.0216789767544014,7.2835704072922995,10.487255703284088,11.37502590487365,8.083474700891694,32.26379269920878,24.98624840134744,18.499723293070247,16.086715907017606,19.304059088421127,9.652029544210563,14.478044316315845,6.434686362807042,4.826014772105282,6.434686362807042,6.434686362807042,6.434686362807042,21.717066474473768,17.695387497719366,21.731956477234053
189,23,189,0,6.299999999999981,10.480816085375018,40.39255553018381,4.098805529880143,7.279097987455925,10.57288944481115,11.368041158567713,8.842260891234105,30.641036108831162,23.366786687148696,18.086442732069827,15.27299608485896,19.29220558087445,8.440339941632601,13.263391336851157,5.224972344820117,3.617288546413988,6.480780580257216,7.234577092827919,7.234577092827919,22.507573177686822,16.88067988326509,22.564917406110425
190,23,190,0,6.333333333333314,8.664694055586876,38.725860967734555,4.771711513621829,7.232405706795817,11.094003924504568,11.094003924504568,5.54700196225227,26.182789414775165,18.973665961010262,14.512594000225647,10.98250356773832,15.689290811054718,7.8446454055273875,12.551432648843786,3.9223227027636653,2.353393621658199,7.103628541917073,6.324555320336734,6.667948594698203,21.96500713547664,16.473755351607508,22.80350850198276
191,23,191,0,6.366666666666648,8.78138362175173,39.35193361480241,4.053868983909255,7.199294854822603,10.456975398848883,11.24340960422924,7.989943745852063,28.007150522218225,20.80790327940387,16.298096908357365,12.720465879693563,18.285669702059522,7.5527766160680585,12.32295132095311,3.5776310286637454,3.577631028663859,6.409729662532952,6.360232939846753,6.360232939846696,22.26081528946372,15.900582349616968,20.80790327940387
192,23,192,0,6.399999999999981,1.7761120833134942,36.05988709651279,3.274988862648708,7.192705733788254,9.564656284586063,9.663094448558724,10.35642411765434,22.46623825206924,15.278693851387217,14.297426474211704,11.120220591053567,15.886029415790745,3.1772058831581376,8.737316178684921,0.7943014707895486,0.0,6.549977725297477,6.403863187357859,6.751562501711021,23.034742652896625,15.091727945001196,21.57811720136479
193,23,193,0,6.433333333333314,1.772537064802222,36.100623202395774,4.042006402729792,7.178228012260684,8.862685324011261,9.643644245019313,9.545404220714587,22.421017447378393,15.247940379317985,14.268648130328813,10.305134760793067,15.854053478143157,3.567162032582246,9.11608074993228,1.1890540108606729,0.3963513369535576,7.308357543502002,7.134324065164378,7.134324065164378,22.195674869400364,13.475945456421641,20.747014424138108
194,23,194,0,6.466666666666647,5.56725219918612,36.76073110469041,3.2462379759926465,7.129561498502015,9.738713927977821,10.355687702452524,9.480688869649418,25.39057657136468,18.26194502923854,15.352902952218926,11.022596991336684,17.321223843529083,4.723970139144342,11.022596991336627,2.3619850695720856,0.7873283565240854,7.258808785460798,7.129561498502018,7.0859552087164275,22.04519398267331,14.171910417432855,21.38868449550608
195,23,195,0,6.4999999999999805,9.697727587060514,38.2690735096577,3.221409763833151,7.424982633204299,9.961659539760158,10.592757519609496,8.89540845645732,29.171106099265597,21.804090033693942,16.912401260124113,12.080286614374359,17.717753701082415,6.040143307187179,14.093667716770085,5.234790866228877,2.0133811023957264,6.6411063598400615,7.292776524816386,7.248171968624661,22.54986834683217,13.690991496290962,21.07809051118891
196,23,196,0,6.533333333333314,7.122280467637953,37.374390102992706,3.1460972046972984,7.251395761417967,9.568481096704412,10.345112005504541,9.471006761109201,26.92625481324619,19.72592911921908,16.12374817407374,11.011340216440601,16.51701032466093,4.325883656458814,12.977650969376441,5.112407957633138,0.3932621505871339,7.251395761417912,7.078718710568921,7.078718710568978,22.022680432881202,14.1574374211379,19.913204798136046
197,23,197,0,6.566666666666647,7.17822801226068,37.66797659787099,4.042006402729737,7.178228012260627,9.643644245019303,10.575972778003967,8.719729412978722,27.05660402823644,19.88088191904726,16.250404815096715,11.097837434700182,16.646756152050273,5.152567380396533,13.079594119468027,5.152567380396476,0.39635133695361446,7.308357543502002,7.134324065164435,7.134324065164378,22.19567486940042,14.268648130328813,19.172919824414826
198,23,198,0,6.59999999999998,2.481687565424824,34.189693594978245,4.001600960640449,7.106471699342023,7.886926463526776,9.547242688404046,9.449984708959487,22.97404755095003,15.871163245033673,14.518402523171858,10.202120691958612,15.695570295320977,3.5315033164472425,9.80973143457561,1.1771677721490619,0.3923892573830017,7.235300406013858,7.063006632894428,7.063006632894371,22.758576928215405,14.126013265788856,19.760218094169634
199,23,199,0,6.633333333333313,2.520803699840732,33.94203911736333,3.9857406128381285,7.34934255505976,8.804788797932433,9.088886995155194,9.697725462103783,23.45837765032207,16.121323081219185,14.747240267500956,11.16007371594668,16.74011057392005,4.384314674121924,9.167203409527644,1.1957221838514442,0.3985740612837958,7.34934255505976,7.218483261992999,7.174333103108552,22.320147431893417,13.551518083649569,20.07167686030482
200,23,200,0,6.666666666666647,4.006168083848877,32.678758155228316,3.2394177193585008,7.1145824860364995,8.784104611578833,8.958064164776166,9.558139185602919,23.895347964007296,16.79579606425664,14.534972724390116,10.999438818457406,16.49915822768611,4.321208107251152,9.820927516479799,1.964185503295937,0.3928371006592215,7.243558228002943,7.1145824860364995,7.071067811865419,22.7845518382332,14.142135623730951,19.782770905294285
201,23,201,0,6.69999999999998,2.5039939255184316,32.93489798333584,4.03756888554069,7.957817184896582,8.075137771081362,9.633056969087791,9.534924797604875,23.965197245994837,16.01381935025046,14.648899495948854,11.085653672609908,16.62848050891489,4.355078228525315,9.897905064830354,1.1877486077796675,0.3959162025931846,7.170347393820768,7.170347393820711,6.730575444084593,22.9631397504063,14.252983293355669,20.72423731199225
202,23,202,0,6.733333333333313,4.069460597442894,32.40861723890083,3.1923475378704893,7.357997512131575,8.138921194885759,8.922882628103103,8.922882628103109,23.486003420929165,16.1403083657075,13.966520478183384,11.173216382546684,16.759824573820026,5.187564749039552,9.177999171377621,0.39904344223378985,1.1971303267014264,6.434382168114536,6.434382168114536,6.384695075740979,22.346432765093425,13.567477035949537,20.887932700104063
203,23,203,0,6.766666666666646,2.3570226039551585,31.671539586087167,4.006168083848877,8.012336167697754,8.784104611578833,8.784104611578833,8.784104611578833,23.120724496316456,15.112745009706048,13.74929852307173,11.785113019775793,15.713484026367723,5.106882308569482,9.03525331516147,0.3928371006592215,1.1785113019775508,1.7568209223157665,2.4845199749997664,1.9641855032959938,22.7845518382332,14.142135623730951,20.56306169257972
204,23,204,0,6.799999999999979,4.8315472242793716,32.80763164274905,3.2749888626487147,6.403863187357859,7.982630987108267,8.880560416567349,9.663094448558748,24.157736121396816,17.761120833134708,15.091727945001253,12.708823532632607,16.680330886580293,5.162959560131981,9.134466914079667,1.1914522061842945,1.985753676973843,1.7761120833134434,1.7761120833134942,1.9857536769739,22.240441182107077,15.091727945001253,20.00000000000002
205,23,205,0,6.833333333333313,6.36483013413047,36.622777022249984,3.947300081961316,7.148864499592301,9.506357453562421,9.765081104361517,8.719870889687211,26.159612669061577,19.012714907124845,15.789200327845379,12.631360262276303,17.368120360629916,6.315680131138095,11.052440229491822,2.368380049176835,2.3683800491767784,3.2550270347871746,4.025472028785487,3.552570073765253,21.31542044259129,14.999740311453138,20.662145955229963
206,23,206,0,6.866666666666646,6.42028935612122,36.152382169206206,3.9816944313620866,7.211155315672117,9.589190015819387,10.624485901847029,8.795850490903598,26.387551472710907,19.178380031638778,15.926777725448233,12.741422180358597,17.51945549799308,6.370711090179327,11.148744407813808,3.185355545089635,2.3890166588172406,3.2833893418878746,4.060547520535747,3.583524988225861,21.501149929355165,15.130438839175895,21.633465947016347
207,23,207,0,6.899999999999979,8.822466015628098,38.41473973840411,3.993742713298275,7.188736883936826,10.41440684091784,12.08725877433798,7.987485426596493,27.967607358791433,20.78281698156972,16.374345124522904,15.176222310533376,17.572467938512375,8.386859697926411,11.581853868564906,3.594368441968413,4.393116984628136,5.648005109775107,4.792491255957884,5.191865527287746,19.16996502383165,16.77371939585271,20.78281698156969
208,23,208,0,6.933333333333312,9.595088571655253,39.21256777510454,4.077128655126803,6.396725714436855,10.425387415744558,11.222790479609914,8.831768105484999,28.785265714965817,22.388540000528963,17.590995714701307,16.791405000396708,18.390586429005907,8.795497857350654,11.19427000026451,3.9979535715230554,4.797544285827598,5.597135000132198,5.597135000132198,5.996930357284498,18.390586429005907,16.791405000396708,21.588949286224334
209,23,209,0,6.9666666666666455,8.0,40.0,4.0,6.400000000000034,10.399999999999977,11.199999999999989,8.0,26.400000000000034,20.0,16.0,16.80000000000001,16.80000000000001,8.800000000000011,9.600000000000023,3.1999999999999886,4.800000000000011,5.600000000000023,5.600000000000023,5.600000000000023,17.600000000000023,17.600000000000023,20.81537893001231
210,23,210,0,6.999999999999979,7.199078576909471,40.79477860248693,4.799385717939629,7.199078576909471,10.39866905553589,11.22709810149819,7.199078576909471,26.396621448668043,19.19754287175857,15.598003583303864,16.79785001278873,16.79785001278873,9.598771435879257,9.598771435879314,2.3996928589698427,4.799385717939629,5.599283337596262,5.599283337596205,5.599283337596205,17.597747632445362,18.397645252101995,20.01343204974158
211,23,211,0,7.033333333333312,7.199769611058571,40.00671900563457,4.799846407372456,7.199769611058628,10.399667215973551,11.199641617202303,7.9997440122872945,27.19912964177695,19.99936003071832,16.399475225189008,17.59943682703215,16.799462425803426,9.199705614130494,9.99968001535916,2.799910404300533,4.3998592067580375,5.656673238844902,5.656673238844898,5.59982080860118,16.799462425803426,17.59943682703215,20.015353124062464
212,23,212,0,7.066666666666645,8.060323502739493,39.528470752104745,4.030161751369803,6.448258802191617,10.50937607315417,11.28445290383533,7.254291152465555,25.79303520876647,19.34477640657485,15.314614655205105,17.73271170602692,16.120647005479043,9.672388203287426,8.866355853013488,2.4180970508218707,5.642226451917622,5.642226451917679,5.642226451917622,5.642226451917622,16.92667935575298,18.538744056300914,20.16692296074892
213,23,213,0,7.099999999999978,8.060323502739493,38.723122930366145,4.030161751369803,6.448258802191617,10.478420553561364,11.28445290383533,7.254291152465555,25.79303520876647,19.34477640657485,15.314614655205105,17.73271170602692,16.120647005479043,9.672388203287426,8.866355853013488,2.4180970508218707,5.642226451917622,6.448258802191617,5.699509407344377,6.04524262705462,16.92667935575298,19.34477640657485,20.215188501566008
214,23,214,0,7.133333333333312,2.415509046685429,37.9797779512372,4.025848411142363,6.491485509241595,8.89338982030745,9.662036186741688,10.498128257960289,23.405383857502088,16.927723178074427,15.700808803455288,17.71373300902644,14.493054280112574,5.636187775599296,7.246527140056287,0.8051696822284953,2.415509046685429,6.441357457827792,6.491485509241595,6.038772616713516,16.103393644569508,19.324072373483432,20.193552897055014
215,23,215,0,7.166666666666645,3.1949941706386085,36.164878411545686,3.293324609693923,5.648005109775107,8.027323506281107,9.618206121108743,11.182479597235158,23.218728498106362,17.590611947412356,15.9749708531931,17.572467938512375,13.5787252252141,4.3931169846280795,7.588111155266688,1.9968713566491374,1.9968713566491374,6.439716626999953,5.648005109775107,5.990614069947412,16.77371939585271,19.968713566491317,21.62529627116987
216,23,216,0,7.199999999999978,3.1898088913156357,36.02684037415704,3.9872611141444736,6.429265362400214,8.014295653216829,9.602596363262341,10.488846373705364,24.04288695965049,17.616295390207323,15.949044456577951,16.746496679406903,13.556687788091267,4.784713336973425,8.771974451117899,2.392356668486684,1.5949044456578463,6.379617782631215,5.638838744345976,5.980891671216682,15.949044456578008,19.138853347893587,20.795009796401455
217,23,217,0,7.233333333333311,5.618911366844486,37.14175964165339,4.092991243526836,6.471587386334857,8.06705148041272,8.866129224339126,9.66580752195835,25.79908493542268,19.331615043916702,16.45538328861585,17.659435724368223,13.645927605193606,6.020262178761868,10.033770297936485,3.6121573072571778,2.0067540595873083,7.224314614514242,6.471587386334917,6.421612990679364,16.856734100533288,20.870242219707904,20.131654307449217
218,23,218,0,7.266666666666644,5.654546742054151,36.57435609350027,4.1189491683223265,6.512630469177453,9.727108484949506,10.532324206037151,9.727108484949566,25.96270383092007,19.454216969899075,16.55974403030143,17.771432617884443,13.732470659274327,6.0584429379151175,10.097404896525234,3.635065762749093,2.8272733710270472,7.270131525498186,6.512630469177453,6.46233913377614,16.155847834440408,21.002602184772513,21.141950133914488
219,23,219,0,7.299999999999978,5.654546742054151,36.57435609350027,4.1189491683223265,6.512630469177453,9.727108484949506,10.532324206037151,9.727108484949566,25.96270383092007,19.454216969899075,16.55974403030143,17.771432617884443,13.732470659274327,6.0584429379151175,10.097404896525234,3.635065762749093,2.8272733710270472,7.270131525498186,6.512630469177453,6.46233913377614,16.155847834440408,21.002602184772513,21.141950133914488
220,23,220,0,7.333333333333311,5.733884628246056,38.53238730108042,4.134763006947206,7.342955127553235,9.764453671204882,10.665641937451648,8.149381235325478,25.346105015424346,18.004762944570054,15.001534201744278,17.028768553331304,11.352512368887574,6.081703054761192,10.947065498570055,4.459915573491514,2.8381280922218934,6.537634343479908,6.68680108757918,6.081703054761192,15.406981072061626,21.894130997140223,20.530189725452406
221,23,221,0,7.366666666666644,6.494627663901724,37.774021348741854,3.347254482165657,7.48468856011326,9.775709158614154,10.677936224728867,9.076518090646779,26.293718869978164,18.83022064440312,15.424740701766552,17.048397617742012,11.365598411827989,5.276884976920201,11.771512640821811,4.465056518932386,2.84139960295704,7.306456121889369,6.694508964331321,6.494627663901724,15.424740701766552,21.91936836566822,22.054258059536856
222,23,222,0,7.399999999999977,6.652127473095046,38.39130146332891,3.300379462315732,6.652127473095099,10.757920864405015,10.757920864405015,8.414349640304334,24.971901971606318,18.320079089401375,14.851707580420737,16.501897311578603,10.726233252526072,5.363116626263036,11.138780685315567,5.363116626263036,2.887832029526237,7.471551783316903,6.803906563873485,6.600758924631464,14.851707580420737,21.452466505052143,21.704857146400656
223,23,223,0,7.4333333333333105,6.644216477905441,38.23034604695429,3.296454509560988,6.6442164779055,9.923642187891254,10.74512708368557,9.21387046014261,25.759319005376593,19.115173023477098,15.658158920414678,16.48227254780494,11.537590783463429,4.94468176434151,11.537590783463486,4.944681764341453,2.4723408821707835,6.644216477905441,7.041229918989491,6.592909019121976,14.834045293024474,21.42695431214645,21.67904479972345
224,23,224,0,7.466666666666644,7.549825228172418,38.6768508347145,2.5012161646363893,6.7218164678364,10.966120747745576,11.702080601048618,10.14286931095091,26.887265871345594,20.165449403509193,16.257905070136417,16.674774430909167,11.672342101636389,4.168693607727278,12.50608082318189,5.836171050818223,2.5012161646363893,7.549825228172421,6.875185626198712,7.0867791331363605,15.007296987818222,20.843468038636445,22.64947568451728
225,23,225,0,7.499999999999977,6.673286199337881,38.51341443260877,3.3108771302908053,7.495316889958633,10.792139075561158,11.617593748978582,9.14245829690275,26.603160426858658,19.109383541230283,15.726666368881354,16.554385651454083,10.760350673445146,4.552456054149843,12.829648879876913,5.380175336722573,2.0692982064317107,7.495316889958633,7.631194723837622,7.035613901868032,15.726666368881354,21.520701346890235,20.95617842274805
226,23,226,0,7.53333333333331,7.3472447895792925,37.8706826423651,3.3659407027449495,6.581709025936949,9.830282558584285,10.644039089741838,8.163605321754858,25.35979022678526,18.794030829008783,15.102669845246453,15.51085011133415,10.61268691828127,4.898163193052881,12.24540798263223,5.714523725228332,2.4490815965264687,6.581709025936892,6.731881405489899,6.530884257403841,15.51085011133415,20.40901330438703,21.366199829831185
227,23,227,0,7.566666666666643,7.39545638564141,38.119184782478726,2.598498501673753,5.810419289173746,9.894787502337174,10.713883790409943,9.860608514188527,25.526197634956347,19.73832871665358,16.023488835556407,16.434347523647602,11.50404326655331,4.1085868809119575,11.504043266553253,5.752021633276627,2.4651521285471745,7.39545638564141,6.776055072810686,6.573739009459018,15.612630147465211,20.542934404559503,21.506401854546404
228,23,228,0,7.599999999999976,6.630495946492152,38.151399091264,2.4672354147539295,5.815329641853692,10.722938033376677,10.817138420037047,9.046529854097798,23.906593116833644,18.1117412410071,14.803412488523634,14.803412488523634,9.868941659015775,3.289647219671906,11.513765268851671,5.7568826344258355,1.644823609835953,7.401706244261845,6.7817814788633655,6.168088536884852,15.625824293441553,20.56029512294947,20.62598313415035
229,23,229,0,7.63333333333331,4.89441349610496,38.55591296123964,2.579582409726531,6.576670522058217,9.92385167396438,10.635890745287929,9.78882699220992,23.712522789113358,17.149858514250845,14.683240488314823,14.68324048831488,10.60456257489409,2.8550745393945363,11.012430366236174,5.302281287447045,2.039338956710367,4.159451654038505,3.363363969981544,2.8550745393945363,15.49897607099905,20.39338956710401,20.539697147314037
230,23,230,0,7.666666666666643,4.921009304092763,38.765422365936764,2.4605046520463816,6.612407565228466,10.693685230421995,10.693685230421995,9.05905405544028,23.023218996097924,16.42385575327507,13.942859694929439,13.942859694929439,9.84201860818547,2.87058876072075,11.072270934208689,4.510925195418395,1.2302523260231624,1.8339518869767253,1.8339518869767253,1.6403364346975877,15.58319612962697,21.324373651068527,21.46585648776048
231,23,231,0,7.699999999999976,5.700295492363978,37.776390813810856,2.5751310131230425,6.56532164298612,9.906726809308456,10.710811613091721,8.957607202286283,23.67160382369997,17.120264258353682,14.25073873091003,14.65790269465026,9.77193512976686,3.2573117099222486,11.400590984728012,4.885967564883458,2.4429837824416722,2.5751310131230425,3.6417852036461755,2.8501477461820173,14.65790269465026,21.172526114494815,20.504253294939176
232,23,232,0,7.733333333333309,7.471551783316903,37.57580216259622,3.401953281936746,6.652127473095046,9.935457860344581,10.75792086440501,8.29210077469368,25.78998956667102,19.137932673518673,15.264255013210175,16.501897311578546,10.726233252526072,5.363116626263036,11.963875550894443,5.363116626263036,2.887832029526237,5.01885613228498,5.218358121879729,4.950569193473541,14.851707580420737,22.277561370631133,20.075424529139823
233,23,233,0,7.766666666666643,5.765628376891257,37.41888374667284,2.4461489538608134,5.936077729885108,10.72468872313929,10.72468872313929,9.818511327243051,23.86998001147651,18.012398864805256,15.084585215475158,17.123042677025808,9.784595815443367,3.6692234307911917,10.192287307753475,4.484606415411577,2.0384574615506494,5.765628376891262,6.723820341841572,6.523063876962226,13.861510738544723,22.01534058474749,21.588409796402274
234,23,234,0,7.799999999999976,2.613095680184753,36.48053775217146,2.4790002279991654,6.0157980251284195,9.238688376739386,10.22117978597085,10.774069499246734,21.737438145718897,15.787077618536589,14.460834663328512,17.353001595994215,9.089667502663644,2.4790002279991654,8.26333409333057,3.3053336373322395,1.6526668186660913,6.662112932073361,7.83928704055408,7.023833979330959,13.221334549328901,23.137335461325563,21.067450894614527
235,23,235,0,7.833333333333309,1.1820463094625808,36.289014215676396,3.4462275839778687,6.892455167955792,9.529962017312478,10.33868275193366,10.897928500669323,22.129851647464818,15.252520252056758,14.627076819206764,17.55249218304806,8.358329610975261,2.0895824027438152,8.776246091524058,2.9254153638413527,1.2537494416463346,7.568789373887918,7.92940770153327,7.104580169328983,12.537494416462891,22.567489949633227,20.49069691477318
236,23,236,0,7.866666666666642,2.617119612951108,36.73302422198792,2.48281766580709,6.025061814040864,9.43615895851755,10.236919485272178,10.885455924532119,21.91202834749375,15.919317118967363,14.483103050541445,17.379723660649745,8.27605888602369,2.069014721505937,8.689861830324844,3.7242264987106637,1.2414088329035735,6.672371987921967,7.851358838853225,7.034650053120117,12.414088329035565,23.172964880866346,20.473838970544342
237,23,237,0,7.899999999999975,3.4182820050585954,37.40867404870248,2.6217026198869595,6.035612688348029,10.085891357803135,10.254846015175861,10.809556820752459,22.76507581549002,16.7666030324957,14.92299292765216,17.410158415594196,9.11960678912078,2.487165487942036,9.11960678912078,4.145275813236708,1.6581103252946718,6.684056408820455,7.083450414733736,6.632441301178801,11.606772277062817,22.38448939147827,21.13684226091823
238,23,238,0,7.933333333333309,4.261928578740382,38.52999571854711,2.5074988832925555,6.89245516795573,10.338682751933675,11.151402580687195,10.168346834704504,23.773534481337897,16.903675523167703,14.627076819206707,17.552492183048116,9.194162572072798,3.343331844390093,10.029995533170336,4.179164805487687,2.5074988832925555,6.738700766891885,7.141359950077086,6.686663688780186,12.537494416462891,23.403322910730765,22.12985164746481
239,23,239,0,7.966666666666642,5.0675613147812255,39.21778200407651,1.6662038965156398,6.065073732290801,10.135122629562423,11.114966324825227,10.957745302800381,23.695856487127106,17.672761110985206,14.995835068641043,17.49514091341456,9.16412143083619,2.4993058447734597,9.997223379094123,4.99861168954709,2.4993058447734597,7.544059000807362,7.1180261661463256,6.664815586062787,12.496529223867583,22.493752602961592,21.24001545489438
240,23,240,0,7.999999999999975,6.617974596780158,36.86560509143304,2.4625761678892673,5.804347691676258,9.98617736136145,10.796710811886273,9.986177361361479,24.84369302148724,19.03967607062513,15.59631572996534,17.238033175224814,9.850304671557069,3.6938642518338725,11.081592755501674,5.335581697093403,2.8730055292041357,7.387728503667745,7.013420000525162,6.977299142352933,13.95459828470581,22.16318551100335,21.59342162377251
241,23,241,0,8.033333333333308,6.575959492214281,37.56975494312527,1.8380365552345004,6.778343894045643,10.811655372416007,10.811655372416007,9.86393923832145,24.78284061985607,18.102560667007918,14.795908857482118,16.43989873053573,9.86393923832145,3.287979746107112,11.507929111375006,5.753964555687503,2.465984809580334,6.575959492214281,7.578418860978393,6.986956960477642,13.151918984428562,22.193863286223177,21.763470510206986
242,23,242,0,8.066666666666642,7.4077210400624836,36.809261786522534,2.602807861972062,5.820055311740541,10.180938764429293,10.98125839969712,9.091217022456016,24.81555836286277,19.00228005388093,15.226982137906191,16.461602311249976,9.876961386749997,4.115400577812466,11.523121617875006,5.761560808937475,3.292320462249961,7.453307445961074,7.588423717342223,6.99618098228126,13.169281848999958,22.22316312018745,21.651857348296613
243,23,243,0,8.099999999999975,6.635884039164211,37.77211413453041,2.4692403466874566,6.635884039164211,10.180938764429293,10.98125839969712,9.911197057469133,25.634684517960086,19.00228005388093,15.638522195687415,17.28468242681248,9.876961386749997,3.7038605200312418,11.934661675656173,6.173100866718698,2.8807804044687373,7.4077210400624836,7.0323995900623615,6.584640924499922,13.992361964562406,23.0462432357499,21.651857348296613
244,23,244,0,8.133333333333308,6.627135046075248,36.916633620061276,2.599376224550209,6.62713504607525,10.00000000000001,10.811655372416007,9.898129771475626,25.693095086718017,19.066030355412547,15.617903794008896,17.26189366706251,9.863939238321393,3.6989772143705295,11.918926579638423,6.16496202395092,2.8769822778436946,7.443480731848851,7.578418860978337,7.397954428741059,13.97391392095534,23.015858222750012,20.95684110712274
245,23,245,0,8.166666666666641,1.6662038965156967,36.59963923932366,3.4349673295749126,6.869934659149818,9.314362942460184,10.135122629562451,10.031875903722893,21.91549060560076,15.088118001614724,14.16273312038328,17.495140913414616,9.997223379094066,3.748958767160275,7.914468508449431,1.2496529223867583,2.082754870644578,7.497917534320493,7.903499038855551,7.081366560191611,13.329631172125403,22.49375260296165,21.24001545489439
246,23,246,0,8.199999999999974,1.1719778315457923,36.40684573425113,2.6206220994591796,6.6813016114474495,10.08173451272019,10.250619536352932,9.97903165284695,20.163469025440392,13.490477937664325,12.845058817338213,16.5742694417267,9.11584819294967,2.9004971523021936,7.044064512733826,1.2430702081294953,2.0717836802158445,6.62970777669068,7.640360698257527,7.458421248777029,13.25941555338136,22.37526374633103,21.94135317593219
247,23,247,0,8.233333333333308,1.8380365552345133,36.916633620061276,3.287979746107169,6.627135046075248,10.00000000000001,10.96678030555323,9.898129771475624,21.51366630395284,14.886961463697705,13.97391392095534,17.26189366706251,9.863939238321393,3.6989772143705864,7.80895189700442,2.0549873413169166,2.0549873413169735,6.627135046075248,6.778343894045643,6.575959492214281,13.151918984428562,22.193863286223234,21.763470510206975
248,23,248,0,8.26666666666664,4.076914923101356,37.418883746672854,2.5784673967461633,6.723820341841572,9.919562133381923,10.878565864408403,9.818511327242996,23.06251350756498,16.388995158024223,14.269202230854887,17.123042677025808,9.78459581544331,3.6692234307912486,9.376904323133203,3.6692234307912486,2.8538404461709774,7.38360696082059,7.517459676426808,7.338446861582497,12.23074476930418,22.01534058474749,20.78826874815158
249,23,249,0,8.299999999999974,4.9930886806807395,37.670171801327626,2.4625761678892104,7.433191877411952,9.98617736136144,10.796710811886244,9.986177361361474,24.843693021487237,17.41304307502877,14.775457007335547,17.238033175224814,9.850304671557069,3.6938642518338725,11.081592755501674,4.514722974463609,2.8730055292041357,7.387728503667802,7.013420000525215,6.9772991423528765,13.95459828470581,22.16318551100335,20.782482918400834
250,23,250,0,8.333333333333307,4.076914923101356,37.58729838213405,2.5784673967461544,7.517459676426814,10.72468872313929,10.87856586440843,9.818511327242996,23.86998001147651,16.38899515802422,14.26920223085483,17.123042677025808,8.96921283082304,3.2615319384811414,10.599978800063582,4.076914923101356,2.4461489538608134,7.338446861582497,6.723820341841572,6.523063876962226,13.046127753924452,22.01534058474749,20.78826874815158
251,23,251,0,8.36666666666664,3.3891719470228523,36.760731104690386,2.465984809580334,6.627135046075248,10.00000000000001,10.167515841068495,10.00000000000001,22.436095435221752,15.811388300841907,13.973913920955397,16.43989873053573,9.86393923832145,3.287979746107112,9.041944301794672,3.287979746107169,2.465984809580334,7.397954428741059,7.023127816316901,6.575959492214281,13.97391392095534,22.193863286223234,20.956841107122713
252,23,252,0,8.399999999999974,1.646160231125009,35.354141446094,2.602807861972107,6.787292509619538,9.202315446630628,10.981258399697133,10.825928674148297,21.792202149408784,15.019802659131276,13.992361964562463,17.28468242681248,9.876961386749997,2.880780404468794,7.819261097843707,2.057700288906233,1.2346201733437852,6.635884039164211,7.588423717342223,6.996180982281203,13.992361964562463,23.0462432357499,20.838724095362313
253,23,253,0,8.433333333333307,1.1719778315457923,36.406845734251114,3.31485388834534,6.6813016114474495,10.08173451272019,10.250619536352932,10.081734512720196,20.981349290785534,14.30581258117071,13.673772289424505,16.5742694417267,9.115848192949727,2.9004971523021936,7.872777984820175,2.0717836802158445,1.2430702081294953,7.504319658904866,7.640360698257527,7.458421248777086,14.088129025467651,22.37526374633103,20.981349290785506
254,23,254,0,8.46666666666664,1.1832455381281588,35.12067301581296,3.346723775276587,6.745537422159603,10.178662989755226,10.349171718923397,10.178662989755194,21.183069563257483,14.443352468230009,13.805235573015807,16.733618876382764,9.2034903820105,2.9283833033669566,7.948468966281894,2.0917023595479236,1.2550214157286632,6.745537422159603,7.148605117626543,7.111788022462747,13.38689510110629,22.59038548311679,22.009639279439845
255,23,255,0,8.499999999999973,0.8298255143369602,34.664464809179115,2.624138685825441,6.8429164928875785,9.277731297605818,9.46146658567249,10.819600977928072,21.00950395180206,14.204324784503706,13.692120986559814,15.766684772402186,9.128080657706562,1.6596510286739203,8.298255143369545,2.4894765430108237,0.829825514337017,7.5143896297741435,6.8429164928875235,6.6386041146956245,14.936859258065226,22.40528888709781,21.82930108586298
256,23,256,0,8.533333333333307,1.1847809009550299,35.818809107880654,2.5132998278568266,5.923904504775205,8.54357657716762,8.746540183872519,11.847809009550357,21.210556417438433,15.28780602029253,14.660915662498212,15.917565576426625,9.215432702141754,0.8377666092856089,8.377666092856145,3.3510664371424355,0.0,6.702132874284871,6.09903297716917,5.864366264999262,15.079798967141016,22.619698450711553,21.358941442919022
257,23,257,0,8.56666666666664,0.8250948655788761,35.27702722750616,3.401953281936746,5.83430174573066,9.2248410366027,9.2248410366027,10.757920864405015,20.775357869066568,14.943103566633805,14.439160147631242,15.676802445999613,9.076043521368206,1.650189731157866,8.250948655789273,2.475284596736742,0.0,1.8449682073205327,1.8449682073205456,1.650189731157866,14.851707580420737,22.277561370631076,22.656329778945924
258,23,258,0,8.599999999999973,0.8250948655788761,35.27702722750616,3.401953281936746,5.83430174573066,9.2248410366027,9.2248410366027,10.757920864405015,20.775357869066568,14.943103566633805,14.439160147631242,15.676802445999613,9.076043521368206,1.650189731157866,8.250948655789273,2.475284596736742,0.0,1.8449682073205327,1.8449682073205456,1.650189731157866,14.851707580420737,22.277561370631076,22.656329778945924
259,23,259,0,8.633333333333306,2.633677240877145,35.461855255928334,1.6656837405839724,5.065979322275467,9.311455182404513,10.131958644550934,11.689492693849022,20.970422463504217,15.911421590564109,14.574732730109417,15.823995535547397,9.994102443503607,1.2492628054379793,7.911997767773698,2.914946546021895,0.4164209351459931,2.633677240877136,1.862291036480931,1.6656837405839156,15.823995535547397,23.319572368175102,22.732159109486517
260,23,260,0,8.66666666666664,1.1620838578347725,34.86251573504266,2.4651521285471176,6.624897283037924,8.379905871624432,9.187079557182821,11.533352978429587,21.50640185454638,14.881934632062375,14.380054083191624,14.79091277128282,9.860608514188527,0.8217173761823915,9.038891138006136,3.286869504729509,0.0,4.189952935812221,3.3880275364053465,3.286869504729509,17.256064899829937,21.364651780741838,23.956972458389746
261,23,261,0,8.699999999999973,1.658395317016641,35.179877236514606,3.316790634033282,7.508704153434619,8.333333333333355,9.158787492830784,9.984862029441114,22.44967480365536,14.948573376232199,14.096360194641534,15.754755511658175,10.779569560608195,3.316790634033282,9.121174243591554,2.48759297552499,0.8291976585083489,5.8633128727524335,6.036650073874701,5.389784780304126,16.583953170166467,22.38833677972474,22.632691485379898
262,23,262,0,8.733333333333306,4.189715308461928,37.10678313820655,2.5138291850770997,6.7557129417623285,10.194017316371513,10.92544084641563,10.090170629011535,23.522182654146977,16.779796733870057,14.664003579616576,15.082975110462769,10.893259802000898,2.9328007159233493,10.474288271154649,3.770743777615678,1.2569145925386351,6.703544493539027,6.100317570080614,5.865601431846585,17.59680429553987,22.624462665694182,22.04284041700999
263,23,263,0,8.766666666666639,6.5971669189646605,37.96954702376723,3.400102004590211,6.648507513655212,9.93005117584906,10.752066611409408,9.071104513576358,25.617169522850524,18.9847735118836,15.668271432540962,14.018979702799868,12.36968797305866,4.123229324352906,12.369687973058717,5.772521054094057,1.649291729741151,5.772521054094057,6.648507513655155,6.1848439865293585,17.317563162282227,21.440792486635132,22.402457726926592
264,23,264,0,8.799999999999972,7.417526434772071,37.94761832022071,4.120848019317805,7.463173182130656,9.890035246362714,10.714204850226281,9.103250814065222,28.070205230490142,20.62071690057888,16.895476879202988,15.659222473407624,14.01088326568049,5.769187227044938,13.186713661816952,5.769187227044938,2.4725088115906715,6.593356830908476,6.64466777466113,6.593356830908533,18.131731284998352,20.604240096589024,23.09146153250386
265,23,265,0,8.833333333333306,9.155229773046926,38.36683995878975,3.329174462926119,7.4906425415838385,9.987523388778442,10.819817004509986,8.364447318354944,28.310219901037673,20.823979612575492,16.229725506764964,15.81357869889922,13.316697851704589,6.242202117986494,13.73284465957039,6.242202117986551,2.9130276550603753,6.6583489258522945,6.86326897837673,6.658348925852351,19.14275316182534,20.807340393288428,23.31907889021711
266,23,266,0,8.866666666666639,9.8241918399587,37.66829972655449,3.274730613319548,7.413486731814394,9.8241918399587,10.642874493288588,9.042645464537394,29.518022849138283,22.11958723417294,17.192335719927655,16.373653066597797,15.554970413267881,6.958802553304054,13.508263779943206,6.140119899974195,3.6840719399845057,7.368143879969011,6.600430565206497,6.958802553304054,18.829701026587543,20.467066333247317,22.937728967525697
267,23,267,0,8.899999999999972,9.008830748632647,38.50098845152662,4.0949230675602735,7.41622109756029,9.82781536214469,10.646799975656762,9.008830748632647,29.494818679368656,22.112584564825568,17.608169190509216,16.37969227024115,15.560707656729107,6.961369214852482,13.513246122948942,6.142384601340439,3.685430760804252,6.55187690809646,6.602865046024878,6.55187690809646,18.836646110777338,21.293599951313467,22.98999365309964
268,23,268,0,8.933333333333305,9.011551125709445,37.693571986845654,4.096159602595208,6.553855364152355,9.830783046228476,10.650014966747506,9.048712318936461,28.684818143859843,22.1344276164088,17.613486291159347,16.38463841038083,15.5654064898618,6.963471324411842,12.698094768045166,6.144239403892811,3.686543642335664,7.373087284671328,7.418460557755912,6.963471324411898,18.84233417193792,20.480798012976038,22.99693589160705
269,23,269,0,8.966666666666638,8.194244253788952,39.36650029655424,3.277697701515649,7.374819828410125,9.833093104546805,11.471941955304601,9.013668679167893,27.86043046288262,20.485610634472494,16.388488507578018,16.388488507578018,14.749639656820193,6.555395403031184,12.291366380683542,4.916546552273417,3.2776977015155353,6.555395403031241,6.606410922656106,6.965107615720626,18.84676178371467,21.305035059851377,22.139628811308135
270,23,270,0,8.999999999999972,6.450773887304024,38.73822653476172,4.031733679564979,6.450773887304081,10.482507566869032,11.288854302782028,8.906390803189712,25.81569164249713,19.369113267380847,16.12693471826003,16.126934718260088,14.514241246434096,6.450773887304024,10.48250756686906,3.2253869436519835,3.2253869436520404,6.500975219429912,6.450773887304024,6.047600519347554,19.35232166191207,20.158668397825068,21.786289099289398
271,23,271,0,9.033333333333305,6.553855364152355,40.175788227881036,4.096159602595208,6.553855364152298,10.650014966747534,11.469246887266564,9.048712318936461,26.228218831770658,19.67862602286177,16.38463841038083,16.38463841038083,14.74617456934277,6.553855364152355,10.650014966747506,4.096159602595208,3.2769276820761775,6.553855364152298,6.604858898858165,6.553855364152355,19.661566092457008,19.661566092457008,24.576957615571217
272,23,272,0,9.066666666666638,9.755775146607789,39.02310058643107,4.064906311086531,6.503850097738507,10.59997880006361,11.410735775800882,8.129812622173176,28.454344177606004,21.950494079867497,17.072606506563602,16.259625244346296,16.259625244346296,8.12981262217312,12.194718933259708,5.690868835521201,4.064906311086588,6.503850097738507,6.503850097738507,6.50385009773845,19.51155029321552,19.51155029321552,23.57645660430211
273,23,273,0,9.099999999999971,9.754808095260046,39.0530885543349,4.0645033730250475,6.503205396840087,9.754808095260103,11.38060944447011,8.941907420655127,29.264424285780308,22.76121888894022,17.883814841310198,17.070914166705165,15.445112817495158,7.316106071445063,13.006410793680118,6.5032053968400305,3.2516026984200153,6.5032053968400305,7.36112868760006,7.316106071445063,19.50961619052015,20.32251686512518,21.963366771615235
274,23,274,0,9.133333333333304,3.2782480478601883,37.73546885739141,3.2782480478601883,5.736934083755386,9.015182131615603,9.83474414358065,11.473868167510773,23.767298346986536,18.03036426323115,16.391240239301055,16.391240239301055,14.752116215370961,4.097810059825235,8.195620119650528,1.6391240239300942,0.8195620119650471,6.5564960957204335,6.60752018117641,6.5564960957204335,18.849926275196253,18.849926275196253,22.962366707138916
275,23,275,0,9.166666666666638,3.225701559277013,37.130613350868124,3.2257015592769562,5.644977728734716,8.87067928801173,8.87067928801173,11.289955457469489,23.386336304758174,17.74135857602346,16.12850779638495,16.12850779638495,14.515657016746445,4.0321269490962095,8.064253898192476,2.41927616945776,0.8064253898192533,6.451403118554026,6.5016093474949495,6.451403118554026,19.354209355661908,19.354209355661908,21.773485525119696
