,frame_seq,video_id,gap,time_seconds,m1,m3,m4,m5,m6,m7,m8,m9,m10,m11,m12,m13,m14,m15,m16,m17,e1,e2,e3,b1,b2,b3,m_0_16,m_1_15,m_2_14,m_3_13,label_measures
0,205,15,1,6.840166666666675,22.157949572148887,156.68036399655784,22.157949572148457,32.24455289402764,43.32731606838264,43.327316068382665,32.68932635833492,108.68428758671202,76.94528976700624,65.35512138114336,69.85498219755027,66.21223772712574,35.46318881501429,40.391607804411706,0.7499768027341815,17.249466462892087,22.157949572148897,21.496368596017973,21.42790864955532,55.926841575338585,51.21270167243665,53.74092149004589,400.0,393.6316150608983,382.5055154034768,360.4249397365775,{}
1,206,15,0,6.8735333333333415,16.5734158093012,147.58717508282027,15.72292276992996,31.879601830567548,42.254085309256034,47.459040392969,31.879601830567555,95.63880549170312,63.759203661135565,55.42300973272359,63.59109692897027,57.37658237664709,28.76520349713928,34.67206881419952,1.5997760233708505,16.95147286302017,26.20487128321645,21.609090441283545,23.704373577054863,48.60857917163685,51.43895213606129,57.888452746410415,400.0,389.1048381956928,373.4355061496147,353.0565493495718,{}
2,207,15,0,6.906900000000008,11.733030885769274,158.82987918742836,17.599546328652323,35.6846203193922,41.06560810019042,46.9321235430747,37.10310145613224,101.27175828234084,65.58963660670858,59.02167508104458,68.22154101025217,61.74276218686646,29.41365585817084,35.27695069333549,0.8746351411568867,11.240681258574114,23.466061771537184,23.46606177153764,23.45317934065679,56.073830716403336,55.134407787012606,58.6651544288432,400.0,387.9004602300398,375.86925137309305,358.28995637216707,{}
3,208,15,0,6.940266666666675,11.563881692554832,162.3068140297404,17.345822538833158,29.48222920160866,46.61549738810583,46.25552677022104,36.56820474119769,94.12317773381425,64.64406387079714,58.06332377990702,62.03539765361575,54.0912499061983,23.12199100467933,34.81215964112289,0.5166925364178496,11.04430296592227,17.345822538832703,17.345822538833158,17.341493253509725,48.43992528913259,43.91886559548038,46.61549738810577,400.00000000000006,393.85161846477337,376.226230275988,359.2256146301868,{}
4,209,15,0,6.973633333333342,11.919076009447306,155.4057379771623,17.878614014170736,29.797690023618035,41.71676603306501,47.676304037788654,32.09309432981793,90.18417460736428,60.77560115616672,53.89281333202735,57.9550856937376,49.55972281286904,23.69658877664505,35.88340586177719,5.551772227671336,5.416363148947312,18.845713897261685,17.878614014170733,20.785293584086048,55.9239495128827,51.32004083627726,48.04733145486235,399.99999999999983,394.0512144384837,376.2068998842694,364.7509907301469,{}
5,210,15,0,7.0070000000000086,18.14851812056733,151.35859276815947,18.14851812056688,24.94275238651159,42.34654228132328,42.346542281323394,32.5775870281737,92.53964803956424,67.63553368079143,57.736069083826806,58.93157843148174,56.3999115776237,27.14509459970396,33.47426173435042,2.672315012406216,8.438889512861351,19.130217805943257,18.14851812056688,18.143612452651723,50.63333707716811,45.99194784509427,42.776467438466376,400.0000000000001,393.961743629674,376.28705633447896,358.200238408595,{}
6,211,15,0,7.040366666666675,6.222713912870959,149.8627962371949,18.66814173861152,31.72973966923222,37.85129102597451,44.00123205174658,39.35589838457865,95.18921900769662,63.459479338464405,59.38473837164429,67.01001606138834,57.980549706166585,24.88435609706721,31.2476414418893,0.4265889616635832,12.015589086869568,19.67794919228951,12.445427825741463,12.442178048533606,45.68056797818781,47.49357106525986,43.558997390093765,400.0,387.6106468516559,375.22500510100514,356.65434713473843,{}
7,212,15,0,7.073733333333342,12.86147038725001,148.46505071756667,19.29220558087389,32.153675968123906,45.01514635537368,45.01514635537368,34.63056884871005,97.31468195955934,65.58088847808183,58.38557894395262,67.84587831334784,61.49194590106754,31.98145980847676,32.26385680457861,0.7059924902532657,11.86067383625641,14.379561038245283,19.29220558087433,19.27359498391661,49.20767657065926,46.877901352822846,45.47216463427092,400.0,393.1173172511874,373.86858699437886,355.1489590975882,{}
8,213,15,0,7.107100000000009,6.53545915562176,150.45756869843396,19.606377466865265,32.67729577810878,39.75364607011039,45.74821408935205,29.22746187228673,85.96054422140628,53.89277682107646,49.35818967186742,56.99201571618187,54.6098288654739,29.30811701174207,29.48858571255232,3.71765523671138,15.700776970576044,19.606377466865723,19.606377466864814,16.33241742341488,48.25733059691947,42.84326957258281,46.212674871078285,399.9999999999999,386.4772381818555,366.9181619017639,354.42440346043657,{}
9,214,15,0,7.140466666666676,13.287276776598487,153.3803026512183,14.855627054163849,26.57455355319699,46.505468718094505,39.86183032979548,33.87604178319176,87.38341987451348,61.25131947910195,53.56875430867649,64.14745789064182,56.04462110445547,26.67183775452986,26.67183775453032,7.202521587721094,12.491873378703986,26.57455355319699,19.930915164897968,23.239386060382003,43.21512952632702,43.10259012651886,46.50546871809428,399.9999999999999,380.1415344406563,373.5237609577202,354.3619813031635,{}
10,215,15,0,7.173833333333342,6.87106737224147,151.31956223313958,20.61320211672258,27.48426948896404,41.79507115502191,41.226404233445614,30.7283474446234,83.5901423100444,56.66027307296957,51.95350393757144,59.791317031601466,57.850525217842005,30.9033773421761,24.03596015502626,4.105521144491831,16.4967304169586,20.61320211672258,20.61320211672257,20.60225156145043,51.20704554766371,44.71285755546705,48.097471605686856,400.0000000000002,386.3104486832794,372.6247684446435,352.1044937312699,{}
11,216,15,0,7.207200000000009,7.124704998791273,149.78834475135338,14.249409997581637,36.32900981742697,42.74822999274559,50.3792721859877,29.375911261381184,86.67577721214788,50.37927218598773,46.384129750077136,56.23242341775267,50.70823548037197,24.89694356605787,32.17363250426297,3.752638012634634,10.419761385335732,21.374114996372903,22.530295452966755,21.41099048833121,50.93682256743614,48.80334308817146,49.87293499153663,400.00000000000017,393.47469426302473,379.28599765916033,358.0119953751372,{}
12,217,15,0,7.240566666666676,16.16640031618889,144.7773132590134,21.68950203508342,28.91933604677804,43.37900407016684,43.37900407016706,22.86274258190723,87.95472685322211,59.618738571799085,50.88615269078309,63.26706760623529,59.9891858263868,39.74925314961047,25.492442034847045,4.205956741613136,17.475454067265673,21.68950203508342,21.68950203508342,21.68141080887836,46.12730022726737,47.82547994453853,43.379004070167305,400.0,392.0810375669823,372.1784848256747,356.9078425895506,{}
13,218,15,0,7.273933333333343,7.387168551530566,147.92793496395885,14.774337103062951,29.548674206124083,44.93439207025123,44.93439207025088,39.78112010807663,89.86878414050194,60.91615242440826,55.865214426071816,64.47879374286686,62.017771080925286,25.84073795038512,25.84073795038512,4.429840791494826,17.719363165978393,14.774337103062496,14.774337103062042,14.76613597164851,47.25163510927632,48.236044174052495,52.23516976555709,399.9999999999997,385.2675759102354,370.5384894571249,356.50264192167634,{}
14,219,15,0,7.3073000000000095,0.0,125.1351135728723,17.454106943648,23.417141767528943,39.80148760839943,31.222855690038624,39.80148760839949,79.60297521679898,56.82645512015694,55.35500471863816,67.41899866597305,65.89466730078675,27.28553143684257,12.08577010969475,12.08577010969566,18.313752544600906,15.611427845020213,15.611427845020213,15.591732249624329,51.87081874106889,41.67957475667754,46.83428353505789,400.00000000000017,392.2322702763682,377.5900653165316,363.1964381759988,{}
15,312,15,1,10.410399999999957,12.785034925516898,137.96587040473713,17.38952754925701,25.887722649770115,28.730792647189045,31.962587313792376,37.27446181230317,91.52692117564492,66.00100147682767,59.19388949365032,53.00637491243253,56.15169482455167,18.07269883930701,35.81024063879795,10.957057070906444,2.088286171161144,25.72938646934831,25.887722649770115,27.48287726490912,55.17200501585876,51.5626215101484,68.61169725159544,400.00000000000006,406.0129352004494,400.69409054958464,380.1264162792052,{}
16,313,15,0,10.44376666666662,6.494841693714831,129.408803969002,20.33207054234496,23.417484752710312,26.77891832485197,30.324721203267227,37.75955957864037,87.13744518147789,63.96677228657433,60.06609799344551,63.59939787541282,62.93690414754394,25.94767100819797,22.856033611476505,0.5520781065574738,6.956184142623329,29.045815060492664,29.62103555633187,29.5913865114768,53.661991957379655,47.037054678690765,90.22922445027724,400.0,409.6283835406942,407.4911504573176,390.2313630929294,{}
17,353,15,1,11.778433333333256,13.949605762530664,133.02774156451207,13.94960576253089,27.27684598859316,34.502784283832554,40.74004218633512,41.15933325479288,96.23027658951172,69.00556856766462,61.96154517565833,42.58361019794302,44.49748031919876,2.39233765156996,52.63142833453617,19.138701212558544,7.177012954709426,7.565235911138794,9.569350606279112,5.741610363767677,55.0237659861059,54.06683092547814,65.07862002952926,400.0000000000002,392.8244649172405,378.5189261832165,351.681771889521,{}
18,354,15,0,11.811799999999922,21.15707938450052,128.69348973058607,14.538812171979092,29.07762434395808,35.43766938673511,38.94792997851618,35.96012021073362,100.29487144005664,71.31257511546607,60.814379456362985,45.96739352367308,41.62781441479501,7.915713744898085,56.39443777139468,22.15998035691064,5.34411131000752,7.884777951517399,4.98677143429401,3.957856872449156,51.853952222290445,54.867548825678114,60.35847734992332,399.9999999999996,395.9697491922991,378.009116471455,349.07400040059315,{}
19,355,15,0,11.845166666666588,22.05543177236797,138.97145359289604,14.503562591838506,29.23286497099576,36.43975002778016,40.04927121555761,33.42906002614671,98.96755442197296,69.74539917912666,58.70615222387914,38.91414032267494,39.462226806092985,5.876705072203549,59.77187594163616,28.10465689970988,7.338269027985007,3.6258906479595656,8.107737967818698,7.673210767851515,54.13876486206277,56.08751680310456,65.66767257209104,399.99999999999983,395.8702176878928,377.4062759468577,347.66978732541367,{}
20,356,15,0,11.878533333333252,18.83025477295214,129.42290405885302,15.527825877234692,26.63000168284949,34.10304184366727,37.848343676437885,38.40633461328284,99.0693329767568,72.44143650737126,63.0986807572383,45.07200916398119,43.8140864862728,6.108387240057027,54.61303286354632,21.693836009626462,7.643479321327732,7.532101909180946,10.652000673140158,6.364235920269039,55.36991854250641,55.39123926585762,64.4644084687326,400.00000000000006,395.7221834188507,380.277915905013,349.4116016025451,{}
21,357,15,0,11.91189999999992,16.10262606699829,137.58089742588217,15.621841911543235,27.61577587569127,35.36544876902999,39.24939204595462,36.0065665020685,95.02395463377736,67.41870081965179,59.373918132735525,38.10977070845365,41.97597933105044,4.142366381353668,54.9553939926252,20.71183190676811,10.217837074005727,7.810920955771441,8.732875111991321,8.284732762707108,54.12692071635411,56.88849830392337,70.73089753805999,400.0000000000007,391.65752242400015,375.6151611490584,347.4104118765975,{}
22,358,15,0,11.945266666666583,20.37636327206446,139.51486274783966,12.887143674145223,24.788915803012,36.90316342862893,36.90316342862893,41.55978957612479,99.15566321204736,74.36674740903537,64.25831825221348,39.82044195650906,43.16746816586465,2.273736754432321e-13,57.63304034465409,25.950915541029644,10.935147273031134,5.763305858239452,9.112586682113191,4.894452710256246,51.21408597054756,51.9476807561598,65.71179706893872,400.0000000000008,395.9730868239577,383.8984711119178,350.42605818419844,{}
23,359,15,0,11.978633333333253,16.608201156429022,125.66384439686747,13.129935873139267,29.359429152553,29.359429152553915,33.47489961467997,42.34277089115287,101.0237436899816,71.6755009593661,63.38535956624469,46.85318719646102,46.99757298135,4.6684737114089785,54.0484121434265,22.47605384771168,5.775431395557462,8.304100578214562,9.284266692441664,4.945213132446042,54.98691974520489,54.21686222579683,58.27680289656736,400.00000000000017,390.49144495234697,373.4537853208859,348.2033248489116,{}
24,360,15,0,12.011999999999915,12.873491406275637,133.6475371007361,13.569851427478866,30.343110236414304,30.34311023641385,38.858140918775405,38.85814091877634,95.2792988049202,64.93709164870204,58.56220275627993,38.23231889788235,44.30094094516494,2.4274488189132626,54.010736220817535,21.240177165490195,8.496070866196078,4.291163802091643,9.595333964064372,9.102933070924337,53.40387401608928,50.97642519717601,64.51033724499382,400.0000000000002,395.7653624559917,377.4760965619662,346.5231014936816,{}
25,361,15,0,12.045366666666585,17.72751166341659,125.3524371076562,14.014828525899134,26.9580609254142,31.338109276914047,35.73094206660902,40.85989547451236,99.0998028783007,72.14574549600654,63.2773982194833,46.065544461130685,45.36301981793258,4.992942999871957,53.29151221973939,19.54523918040354,6.197270959640036,4.43187791585423,9.909980287830146,7.188332509865859,53.96894669710878,53.81840570213808,71.04840785187446,400.0,390.53370219604057,372.3305016449675,345.3738318432248,{}
26,362,15,0,12.078733333333249,17.923303927898147,126.7368974868424,14.169615901900071,27.25580038794133,31.365781873820737,36.125573991950745,36.94983762738577,95.789118780252,68.54345735730487,59.57040096085416,41.778300032023935,41.88026049579935,5.072533072832584,53.86061498942468,19.627389276789927,10.782319044262522,4.480825981974303,10.019431491042294,9.50781324706827,51.41356385881181,54.42139754019013,63.3684487434212,399.9999999999995,386.75524693466906,376.4427218728609,344.0912601794927,{}
27,363,15,0,12.112099999999916,14.091341769030592,132.8544442786506,14.853578426001098,33.21361106966265,33.213611069662875,37.86934312042997,38.7333936802605,100.41282685504608,67.25243666348395,60.116636036089176,43.84196661195461,43.841966611954376,5.3141777711462055,56.46313881842639,20.592438863190864,6.642722213932302,10.503066029911322,10.503066029911754,9.964083320899135,56.46313881842639,56.46313881842639,66.42722213932575,399.9999999999991,389.97362265304656,375.32850108754906,346.7602798350225,{}
28,364,15,0,12.14546666666658,15.205718425394345,136.00408018360963,14.425411105030234,29.24878338460876,34.00102004590241,34.00102004590332,44.33190633251807,102.79335576018184,73.55545271614787,65.95042591762103,44.46250797618768,43.91188868236486,2.273736754432321e-13,58.47576900397712,26.594911891639413,12.168686393483084,4.80847036834337,6.800204009180663,5.423600044154227,57.40206138102258,54.12587658277698,63.24555320336764,399.99999999999983,389.7234828228654,374.7214765276984,345.47445803716016,{}
29,365,15,0,12.178833333333246,14.834045293024252,139.24350274334034,14.834045293024475,30.07732496038537,30.07732496038605,39.86529886743277,40.77489039889088,100.0,69.92836012750648,62.587497667356274,40.4520323906529,45.57218474219712,2.4469236376164645,56.986447028650446,24.7945499233615,9.462381003268092,6.992836012750194,6.992836012750921,8.047974276322066,54.00204883479478,55.78420131074631,64.47076250211259,400.00000000000006,391.0052244850079,375.56802944776456,349.6418006375333,{}
30,366,15,0,12.212199999999912,15.996161381847056,128.06922804076717,15.17529113587936,30.7692307692311,35.76850422886726,35.76850422886635,36.82592902367472,98.21695193076218,67.4878788034042,59.3507292376396,43.24226834684487,40.37854196625904,5.355168331695495,56.15767432328676,22.652075670433305,7.417051325717011,5.058430378626345,11.310994186058368,10.710336663390535,50.20112345166808,53.46577152553573,66.53326383025201,400.0000000000002,389.2034043284159,373.4341475146394,348.44471787318145,{}
31,367,15,0,12.245566666666578,20.48925995970309,144.88094659,16.1981822609879,26.11878408840028,35.856204929480704,46.384535032631625,31.15782568910552,93.47347706731632,67.37353470088375,57.21870653031601,32.14336358648211,31.55680585680193,0.7038692756163982,61.58856161643439,27.62686906794352,12.259056550318974,5.122314989925656,7.244047329500547,5.777593637351401,55.371049681823024,53.28876974145783,67.37353470088398,400.0000000000002,384.0028424514894,368.8422491912431,347.7897224563204,{}
32,368,15,0,12.278933333333244,15.799050110667476,138.53603991756412,16.653661072281235,26.853221603507752,36.86445025822437,37.2387182318631,37.2387182318631,96.10187002747104,69.26801995878206,61.44681748013159,38.624574655321794,37.35918297394619,0.7532093341521886,58.08750384981295,23.04820562505529,12.684045187122138,7.447743646372984,11.775916675792592,5.965417926484861,56.76185542170538,54.95415301974003,69.26801995878117,400.0000000000008,383.5768744099103,367.96677746137067,346.3400997939104,{}
33,369,15,0,12.31229999999991,10.98366536301912,139.0420979246479,17.36669980212039,33.405514057753535,32.950996089057874,33.405514057753535,38.83312130237288,100.2165421732606,66.81102811550707,61.36840844514836,40.81914876346491,39.26708987512029,1.2106059329089476,60.15780251223987,24.336283369244484,12.882088773260875,7.766624260474756,12.280111196910456,8.955379785748846,53.35978458129034,52.27334335944897,66.13042264529949,400.00000000000017,393.7686159445948,377.4611351872059,349.49809172135866,{}
34,370,15,0,12.345666666666576,17.851095798045204,130.93508017363328,16.935036435505637,28.22506072584232,34.33726835970929,39.51508501617894,34.337268359709306,96.62704332067815,68.67453671941858,59.87156469422143,42.922510183269424,43.24596542202789,8.765636970358628,53.53184201455224,23.32112271449705,4.657755438124241,5.64501214516828,7.983252735457768,6.339722679668967,58.90119897794534,61.585877459642006,67.97494764447796,400.00000000000045,393.57516951777313,376.0188310742504,352.8922803936663,{}
35,371,15,0,12.379033333333242,11.290024290336682,130.93508017363328,16.935036435505637,28.784027082682304,33.87007287101044,33.87007287101134,39.91626367729069,96.62704332067815,67.97494764447748,62.29747898491132,42.922510183269424,43.24596542202789,3.1698613398343696,53.53184201455224,22.577175665352115,10.2535310686485,5.645012145168506,7.983252735457768,5.967749155096499,52.56147629827615,55.990101829117975,67.97494764447796,399.9999999999996,394.4243951195776,376.82305980752864,348.07348128924986,{}
36,372,15,0,12.412399999999908,11.585688927270356,128.62202051388314,11.585688927269455,35.23649724724372,35.236497247243264,35.236497247243264,42.17254426677238,99.99999999999982,64.76597001885507,59.00697835551,43.80821120333303,45.563188674063895,2.864255683361989,55.281790328016086,17.466992751140424,5.447052715758673,5.792844463634886,8.192319205189955,6.589443710856585,49.8678503947242,44.37112850526592,63.98405841726194,400.00000000000017,393.3166492499152,375.24041510412616,340.0059217802492,{}
37,384,15,1,12.812799999999898,3.647686020700685,179.33116672700083,15.039794752436814,25.79303520876637,51.19771304663714,51.1977130466376,58.81716976750463,100.16203089211209,74.39848879604435,73.83877854207225,65.25034582001143,62.72817317252009,5.196545368538011,35.7887601531952,8.827604266219453,3.609316030030641,10.943058062101285,10.943058062101285,11.067119634250504,31.24450081418076,26.504555666309187,55.1995058581635,400.00000000000017,406.5329296244312,402.58623383776535,379.9901519678054,{}
38,385,15,0,12.846166666666564,5.383575204762086,183.0811377942337,12.03804011982996,26.91787602380957,53.43045831316401,53.43045831316401,57.60677032537054,100.78938503561405,73.91395845328692,71.21523641940581,61.84282381173301,59.77204910439917,3.3002971898134774,39.30157829960842,10.612720375086385,6.406459250814237,11.42028760294469,12.03804011982999,11.249052186194264,34.750188057447474,37.10138017306622,41.8743878774641,400.00000000000006,395.9765037734202,384.6525868041142,365.5285022434768,{}
39,386,15,0,12.87953333333323,5.764802004744701,188.2187991037772,12.2289917692587,24.795350972457296,53.1488483702363,53.14884837023585,58.36417197884149,99.93247278662716,75.16382218969912,72.1410572152381,57.12129834595408,60.63361118923285,1.1091514241933282,40.11430984165702,13.03252923427101,9.427787105642892,12.228991769258668,16.305322359011523,14.234109943813792,29.94708845321861,30.77895202136358,57.21402627118738,400.0000000000004,399.6675324100883,391.5187679855333,379.1863977371706,{}
40,387,15,0,12.912899999999896,4.343722427630545,169.90563418645655,13.0311672828922,26.42183202480818,52.3053444363363,52.3053444363363,57.13274843201767,100.7518902861203,74.3525513132699,72.11125693310987,63.83790606528646,64.62087302438658,7.281592719629998,36.355765800876725,7.594779503270047,3.8365380995900296,13.031167282892143,8.68744485526134,10.831042934216612,41.392853237753286,36.27746910496654,43.43722427630723,400.0000000000002,404.059588357208,395.37419581578814,377.92881430137743,{}
41,388,15,0,12.946266666666562,0.0,182.14076350987105,13.622298275594956,32.10806495339681,54.67806435536516,54.489193102379744,59.724453193632094,105.32228399135025,73.21765321469974,73.09374209187843,61.87584515395383,63.45890603570479,3.166121763501792,42.44240812280475,7.696951183685542,8.624952390229168,4.540766091865089,9.081532183729982,11.32707355045909,39.3035805124365,37.12004826174552,50.154400779251226,399.9999999999995,408.8959235412602,404.23020898452125,390.743409888297,{}
42,389,15,0,12.979633333333227,4.81787859502425,188.8829625412848,14.453635785072096,33.72515016516804,53.21520841901918,52.996664545264,58.61202278667577,106.97426512531194,73.69937091044532,72.97909800728632,62.078422608729625,66.8821100725005,6.096987934785943,42.309401123211615,6.096987934786057,6.466502355076045,9.635757190048029,14.453635785072096,14.41106239131227,45.81978811596719,49.14541789857765,43.36090735521641,399.9999999999999,409.51968057704056,399.9129456988491,385.4302876019207,{}
43,390,15,0,13.012999999999892,0.0,137.84243666416097,19.669488287161293,19.66948828716124,39.33897657432292,45.89547267004281,32.78248047860218,72.12145705292471,52.45196876576348,52.41115187151888,55.2558361013875,56.376469282850906,23.059182772419888,16.24918113121919,2.62917784881796,4.180823792382682,20.73346113247792,19.66948828716132,19.654181951819595,48.53203701260711,49.22165743196916,52.86016144941125,400.00000000000017,393.38976574322606,393.3897657432258,380.3332908700058,{}
44,391,15,0,13.04636666666656,5.04353069860694,177.17084171559745,15.949044456578006,25.717061449600745,50.68685621230439,50.43530698606847,50.68685621230427,97.01425001453322,71.32629516214925,68.64783759213606,58.51664112940728,60.52850993051652,8.85222272488079,37.1620908547759,8.478589947531987,4.742262174043276,10.087061397213834,10.087061397213766,10.05934400554645,33.13835325255718,26.470445226023685,56.38838744346126,399.9999999999998,399.2361546180568,383.8388639128669,368.48851241766505,{}
45,392,15,0,13.079733333333223,7.016464154456306,140.32928308912477,15.689290811054583,14.032928308912387,35.082320772281534,35.082320772281534,35.77708763999652,70.16464154456227,56.13171323564989,52.62221231250408,49.60130753160104,48.62682211840661,14.081314220660827,21.04888492500163,0.0974485413195225,0.1461728119791132,22.188007849009303,21.049392463368694,21.04888492500163,48.48064930642738,49.65003180226074,56.56854249492415,400.00000000000034,392.9219926495487,385.9055284950928,371.9387873541307,{}
46,393,15,0,13.113099999999893,7.0175438596491775,133.33333333333331,15.691705105261752,14.035087719298238,35.087719298245545,42.10526315789483,35.08771929824554,70.52544295523434,56.5772473564811,52.581931645924215,55.60666310277679,56.52618146565999,20.97953738472916,14.058951811450584,0.1209892582741076,6.847992018314017,14.03508771929818,21.052631578947302,17.54344244974459,42.68501031910279,48.54089041956928,56.14035087719296,400.0,392.9824561403507,393.045107787802,371.99602191434536,{}
47,394,15,0,13.146466666666557,0.0,184.92005352428984,17.3024940218542,29.40858488375225,51.90748206556196,57.67498007284722,52.226915739403125,98.72366355824586,69.449872737715,69.44166317086706,63.0013743712625,56.32749996752705,7.441369960165048,39.04216526185223,6.874090635847551,1.7685767169898554,11.534996014569392,11.534996014569506,14.632469630189917,31.10025472140705,25.72778582640012,53.17370428550905,399.9999999999992,404.753460547731,399.000831078913,381.0479040717918,{}
48,395,15,0,13.179833333333224,6.054354789153469,188.5618083164128,13.537948868448057,24.217419156613133,48.434838313225896,54.48919310237913,60.84551259712862,103.633860733317,79.63260425817616,76.30065365969426,62.14996517129043,68.22716472186585,4.381236885298449,38.30049019083504,9.645787658761948,6.536522772421222,12.10870957830688,12.10870957830671,12.083733990097244,36.463197303452034,35.65054852634012,54.48919310238006,400.00000000000045,405.8224576398613,399.7708392822513,387.52600326601487,{}
49,396,15,0,13.213199999999889,6.231013383432924,181.6636964746681,13.932969494066269,24.924053533731023,56.079120450894976,56.4242259878731,56.42422598787265,100.47207186066557,75.8035494690631,72.42529140472857,58.68269052211622,62.82331832051386,4.354798201762833,39.62152462259655,10.56573989935896,6.068161428685926,6.231013383432852,12.46202676686555,9.566278016987326,42.191569462981306,31.83999996698753,56.42422598787218,399.9999999999997,399.5629740728479,386.7748163385889,367.84094977183696,{}
50,397,15,0,13.246566666666554,6.6657409335976725,187.11626473597244,19.99722280079211,26.662963734389105,53.32592746877956,53.32592746877956,53.74092149004593,100.8709641194542,74.52524923963294,73.70851705603854,58.533234132736425,63.17872890517583,7.277941810155198,39.6415553914826,7.587641461650946,4.800344598187394,13.331481867194665,13.331481867194665,13.31708501432604,48.62284528486566,50.32619336809353,40.54611918756024,399.9999999999994,406.664830499828,400.1665856947352,380.0057001282525,{}
51,398,15,0,13.27993333333322,0.0,180.4821129736914,13.28727677659808,33.21819194149621,53.56272507295944,59.79274549469353,61.2513194791022,107.12545014591774,74.27813527082054,74.16377317794286,66.74739586014857,64.27527008755055,4.532230583096407,41.61411717206806,11.948607900890693,5.356272507295671,9.395523512235352,6.643638388299265,9.888503090392533,35.43380274057267,37.081886588971656,60.16070432456439,400.0000000000007,400.0000000000007,392.8744644636335,372.5772310588084,{}
52,399,15,0,13.313299999999886,6.764133573679128,176.38702345056484,15.125062479635028,20.29240072103753,47.34893501575289,47.34893501575382,54.53418831492138,95.65929437600278,75.62531239817608,71.90528099094945,63.53012196449868,62.319255599228654,8.435702344714173,32.57230522576265,7.870631374254799,3.350063610580264,6.7641335736794295,6.764133573679204,7.023024918565852,39.83750341738278,33.742809378857146,54.53418831492161,399.9999999999999,406.3550077657322,399.3131076786352,378.8518693619884,{}
53,400,15,0,13.346666666666552,0.0,175.37968859828726,22.025950844685045,27.86086892004604,49.251523357785466,49.25152335778549,49.2515233577855,98.5030467155705,71.03155714448289,70.66882783918595,59.24521575815834,63.30256763521288,12.073576216672564,37.12673926334014,5.140625436462415,6.71629606832812,15.574699204358067,13.930434460022948,14.20073156969147,39.82507522041078,35.76772334335578,44.05190168937063,400.00000000000045,405.4809451091053,391.0459299686638,369.7474266179552,{}
54,401,15,0,13.380033333333218,7.387168551531349,177.90657756548623,14.77433710306234,23.360278082405053,51.71017986071837,52.23516976555674,52.235169765556975,97.16303228651566,74.24012513514425,70.5655473096972,62.72984977279839,59.36536947446916,8.853895521919412,35.99108529660202,8.853895521919185,3.5858276863773426,7.387168551530991,10.447033953110962,11.399390484471269,35.06142626680048,30.32459216257348,52.23516976555676,400.0,406.5628059024182,406.8982261441929,391.79859514061695,{}
55,402,15,0,13.413399999999884,7.362101738322867,169.96731711976025,7.362101738323092,23.281009858985936,51.53471216826269,51.53471216826179,59.35516178355777,96.8333298350194,73.98820678018498,70.32637810945903,69.36300306686348,66.28020293055829,8.477700374838605,28.90125127785996,1.9267500851908608,3.468150153343004,14.72420347664628,10.411584125907057,11.367825502624784,42.003151857156354,37.76430166973682,46.56201971797241,400.0000000000012,399.2540469900596,383.9602508785803,368.7670808133496,{}
56,463,15,1,15.448766666666502,11.12814918043978,169.9140955342392,19.05168546755128,26.138696818121087,38.60438636840942,43.14864724910622,50.65953231384109,106.75745866894424,80.69727356795478,74.83479956398759,79.1893745105329,93.92879807477205,36.23208111893814,19.96827610622995,6.136756198799276,17.311817258530482,21.574323624553102,21.574323624553163,21.56551402098592,52.804125027476175,61.65898785314107,66.76889508263916,399.9999999999998,399.2145802518957,390.9079031741939,374.84773212566085,{}
57,464,15,0,15.482133333333168,9.345386270320004,161.1774361964622,19.2660073523631,28.42288271813286,37.02943476886068,41.636816090432006,51.2294265873786,107.95842641526944,79.57309676805124,74.77678734534817,82.3117224254766,93.68283266038172,37.02767869543391,19.81642120997321,7.666624674993955,18.14453591863776,21.31075952695535,23.82615347721182,23.807188497852792,58.96258469237336,64.88289082675999,66.77211456770547,400.0,399.26242040711134,390.923215860468,372.6747414060901,{}
58,465,15,0,15.515499999999834,8.713960744790914,152.24147178870678,17.427921489581827,28.7459722952882,34.85584297916365,39.48242798999928,53.88250982742437,108.67305195549956,80.00446652895224,75.34734348326083,84.24263894971386,93.72229689206551,35.386394373846315,19.46104124279759,7.608517489222436,17.017343616313497,23.629043672266167,24.096990954484266,24.08281718853931,63.24100572500237,66.38121620154726,66.8330280544499,400.0,399.3126614601794,390.9417956207306,370.4563848228679,{}
59,466,15,0,15.5488666666665,8.814059788122,143.09979229228736,17.628119576243893,29.07618313862939,33.18639306350273,35.83477577762361,54.50146920123456,109.92140145525092,80.92349414409816,76.33393939249834,87.66169058845674,93.28025518165214,36.1581818174991,19.33873684174023,9.17698883555238,17.912950557875547,23.90047531347893,26.442179364365963,25.39832854816484,66.54072089188577,70.45559170520892,66.95546570825834,400.0000000000002,399.3654283290597,388.8365677058157,368.1914572071003,{}
60,467,15,0,15.582233333333166,6.845061508073818,133.87302434158588,17.849736578878147,31.51703002260002,29.44172278268247,34.22530754036931,55.18665018104888,111.3033101387322,79.82644874167208,76.29114787385163,89.80976308220511,93.53219039978752,36.641092896069495,19.555151508366293,11.291362863333347,18.885114591201383,26.33347740671285,26.77460486831727,26.76425241341764,70.93705658206216,70.31665202913183,66.68228312662939,399.9999999999998,399.80081722281705,389.0079229388163,366.3355158903476,{}
61,468,15,0,15.615599999999832,6.905178322274825,135.59491746605838,20.13188131125674,29.13297925703783,29.7002949775702,34.52589161137446,53.12950281731394,109.20228964801986,80.08220832741074,76.15622320233535,91.83333052821752,97.2987440913688,41.92547509628093,14.095013926022489,16.755807371240962,21.50208757081998,24.89697450718455,24.89697450718439,24.882014379610894,59.90380918559509,63.715216012529936,63.662598527748685,400.00000000000006,397.7766316149783,384.8731084033525,363.9559600761545,{}
62,469,15,0,15.648966666666498,6.962895244599006,134.7279747272654,18.157009370305914,33.68199368181635,31.52584905817521,35.8436970744152,51.07178054537233,109.69598948219696,76.02002166746303,72.4181964901669,83.93064127654122,88.86187776697284,35.60203314682951,23.149415746749128,11.942060086677088,18.155916169317152,20.30015361005229,20.30015361005241,20.2977663621308,63.76985370581099,70.34483569305354,66.85829880624776,399.99999999999983,400.4482065578343,389.5489428635742,368.6588379897461,{}
63,470,15,0,15.682333333333164,11.834455265100772,134.91565374378604,18.121900007595794,33.25577051070668,31.46488899329051,38.94162743283081,50.73560901710212,113.44827064209154,80.20498940831881,73.9897265167134,83.42534130941146,89.39338357208896,36.41269282441738,26.44898900421174,8.90116324678661,18.063189748125296,22.41124292038129,24.569950407447926,23.713106090617543,60.64752542413896,62.26360509868073,67.69901963309059,400.0000000000001,398.5000551986907,387.6076133641092,364.0998062072664,{}
64,471,15,0,15.71569999999983,8.722365497912119,131.94247341170248,19.50380217793036,34.11116047190724,30.801917333736203,34.88946199164824,51.16674070786082,113.39075147285736,79.295397882271,74.70732081922358,85.6842173774046,89.17799257989577,36.58552543601456,25.534293235227096,9.77513700271436,19.78567020701496,21.573792144546186,23.65183425904661,23.61395580123383,58.89860749163995,64.22599521175033,61.05655848538471,400.0000000000002,397.913555977777,385.0065312293828,358.41699644831283,{}
65,472,15,0,15.749066666666495,19.52367117628964,130.2569757099111,19.87760339660098,35.097606077242425,30.86963460262721,36.14162856754288,50.00871510334015,124.41612619702212,89.33871590307172,79.15588521276993,87.36982769878568,92.10911289998457,40.11203303708999,34.09584197857339,4.702451378391515,20.639218712992943,28.35813135906185,26.66860345474837,26.66768771244557,59.71990471148024,65.83431929748298,67.5288046229602,400.00000000000017,394.8830172685775,379.0811239660403,345.39554500625576,{}
66,473,15,0,15.78243333333316,17.813881977677873,141.7037185687908,20.370953395136706,38.14257636253373,34.30128686947424,40.74190679027341,53.441645933033726,129.68701835216876,91.55604836919314,82.34810556323839,91.84364322788235,98.22150905141427,41.90744796709976,34.24688287179595,5.766208300418612,23.90215078185872,24.703409571377502,24.703409571377502,24.66820729138908,64.95446590111067,70.18027774906977,70.73979957916241,400.0,394.97036176396256,381.8926604279423,360.8321765593496,{}
67,474,15,0,15.815799999999824,13.0602695880604,144.288233878321,22.19818982743405,37.575868153798176,33.79165111088339,38.014633776718064,50.48844896538589,123.13340253122536,85.5865728189251,78.43985199904273,85.56110115091735,95.8303197126437,40.69369444982658,31.45021872951247,7.905293967437046,20.22599821198833,26.48083949528219,29.040954905137845,27.96623011299107,71.01205900950453,74.31330033818813,70.26430432950848,399.99999999999983,394.3694444659975,382.93424117703233,359.81641865457766,{}
68,475,15,0,15.849166666666491,8.631516109083918,145.1564658598445,22.006134536054773,37.25076757743546,33.499290992750495,37.68573706831892,50.05163074494919,117.79727013424872,80.56723902115753,75.36842992233085,80.80714710490656,95.76361935698948,38.93840189766456,28.178181264896352,11.158747322870797,18.16812851937993,28.789697072873143,33.49929099275032,31.41328027866973,74.66514752803226,79.9163227387952,70.28858265758709,400.0,396.2632125598353,384.3751356797726,358.85729348177864,{}
69,476,15,0,15.88253333333316,4.765620909636592,139.64163807058986,22.25090806832728,37.220689164982616,31.03147512679769,36.41882385545856,49.20373773358363,112.85569901678772,75.68190125406998,72.45076152802017,84.91903211656324,90.9846772677464,40.10065405504383,23.92560031855556,13.81619173325032,17.18599459501877,28.03222316979196,30.51486275291036,30.32822575591547,70.76586009713617,74.13566295890445,68.86280989206999,399.9999999999999,394.885686578874,383.6369232195276,360.9434841114303,{}
70,489,15,1,16.316299999999817,7.016788013684667,135.08000362430664,20.457276682060897,33.94269211889795,34.44664088265499,39.31906484785959,56.178141917102266,117.4971576410597,83.55577496086318,79.84801379018222,90.2384201108282,91.36781210220272,34.89821253347429,26.427772598164893,9.261014329271577,16.37618387493137,25.299388972400845,25.97159606564692,24.5078062128282,62.90713391956365,63.020073118701134,68.35518489003528,400.00000000000034,397.3323979163389,384.1330969141748,362.19134542232473,{}
71,490,15,0,16.349666666666483,4.961618386624671,136.71036978007012,20.45727668206096,33.94269211889809,34.44664088265508,39.319064847859785,55.87055494120128,114.91262429591616,80.98236739353261,78.13192053482635,86.96119466391133,92.08827139567018,34.25932583138922,24.901166359829176,10.91370459648681,15.56789561026801,27.4463167773657,28.06715205473828,26.6620434412464,65.81822532590542,65.5195606619194,71.03956424395618,400.00000000000017,396.9294709299869,385.66171724734056,361.6744147879603,{}
72,491,15,0,16.38303333333315,4.93488806798397,138.12398198279072,20.3470647548984,33.75982860438222,34.26106238484414,39.1072365591556,55.56955683537301,114.29354180630732,80.54608142471419,77.57633107161655,84.99081453106817,92.68717091542452,33.996325812427244,24.804817391619626,11.005299415847048,15.14760587749106,27.298451960725856,27.298451960725902,27.280396992957208,66.6323083785752,66.88967061435761,70.65684432469294,400.0000000000002,396.9625925043733,385.1616118923261,361.4616025341351,{}
73,492,15,0,16.416399999999815,4.934888067983983,142.42945328428883,20.347064754898355,33.75982860438224,34.26106238484418,39.10723655915571,53.37897590337561,112.12083066812704,78.37000016217024,75.42106620201855,82.01196547554275,91.46926692619525,34.04993669009059,24.73869394910082,11.118719273064356,15.1353337887856,26.84869380823816,27.915942538144776,27.58683878752117,71.78785579916172,70.61938612186106,71.24036958601413,400.00000000000017,396.5759076554254,384.8769792976751,363.45040215270376,{}
74,493,15,0,16.44976666666648,4.908437339407639,143.80967529141975,20.238005607104093,33.578877780190474,34.0774249751622,38.89762392248704,53.092867528910105,111.5198691835112,77.94994127243359,74.929537998343,80.34981940605792,91.65857928660556,33.67417352965674,24.766424239458843,11.008633556754036,14.706189865892838,26.704786286372208,27.152133759903727,28.16985675127961,72.11435308115773,72.59455519922778,70.8585251239647,399.9999999999998,396.61267151105005,384.4657116717788,363.31721357661,{}
75,494,15,0,16.483133333333146,4.902608759376894,145.7815260413186,20.213973755988885,33.53900415790339,34.666678992598875,38.8514344942906,50.85496649171033,109.23029919499494,75.69729532267564,72.6202243529541,77.32063893946815,91.04395991818546,34.11934105638045,24.1988680597176,11.680175944880716,14.96338010330021,28.83800987592822,29.25177577945753,30.204297248768967,75.08853251521913,74.30906677976685,71.41672434243543,400.00000000000006,395.7714237149359,383.7649903787523,362.7201642561189,{}
76,495,15,0,16.516499999999812,5.006183326173229,148.861367641519,21.23943706680029,36.100101353780246,34.75603841163781,39.0995417007731,49.45744289727058,111.1553086773645,75.09274989259701,72.39407053190769,80.88029508029626,88.14366757573077,35.769958795198704,26.09775210500061,12.124055781296532,14.852429205977614,25.526626468779664,27.236581948906743,26.030157267902663,71.41701788658281,73.35883320685133,70.1223159013507,399.9999999999998,394.5685564366696,385.7165979633562,366.2733925827728,{}
77,496,15,0,16.549866666666478,8.142422670876178,145.79607140760854,18.62243310691872,32.33396002894711,37.8560351791313,42.188557859984975,52.13694395531068,110.28746597959784,77.96866430019291,73.22008605653161,85.81683112480982,91.28425202442588,37.8263635367706,20.737662531142742,14.94508664410455,19.29252925371111,25.248580872382217,27.47342624985044,27.85494392249308,69.13758454778758,71.65452500598076,67.14413744089356,400.00000000000006,398.7421653679918,389.07071846857775,366.8471963332404,{}
78,497,15,0,16.583233333333144,0.0,142.28217726093624,21.315698597998743,34.37053123642235,32.714948914795784,37.664436643208624,53.97171552230546,108.9906592742837,74.68948330152602,72.87307423551488,82.4703028630455,92.39684815916792,35.87199425731433,19.453206066097664,16.959808432474574,15.642541758107654,27.79227071372961,29.977010301653493,29.77963588836724,71.97921470647998,74.56670281684364,76.02931179597269,400.00000000000006,399.3242011515746,387.10153760544,367.2312645025201,{}
79,498,15,0,16.61659999999981,2.2314703064615244,141.83447149273164,18.40117554794044,27.147007935234427,34.64173486702534,38.97095350679688,51.51749251811631,97.21632869492518,70.06958892714289,68.9096100257259,74.00790405161456,86.84899374275528,30.22105959984321,15.676300583343275,14.544759016500052,12.73937808962694,20.57313969555097,23.29723396499076,23.29195674670285,71.36340241225082,69.71058888764856,56.45222959561848,399.99999999999983,401.1001924357125,394.162559095426,368.52379114294206,{}
80,499,15,0,16.649966666666476,4.132890850693004,136.32276413244583,19.05168546755122,31.610536642848487,30.08789955344665,34.08069103311148,49.76659606244405,96.15079743143023,64.59088304032372,65.39172753643606,74.71719596720482,84.70066582009588,31.311791811340072,15.09999815249762,18.19714277731498,13.715926195619543,29.586995837136573,32.07985978336586,31.04518778685945,72.27805276450988,76.95213183199962,75.21974888361642,399.99999999999983,396.28367830345576,385.6066897100764,357.6443370585451,{}
81,500,15,0,16.68333333333314,8.763078963993134,140.92627638701225,20.19789902282549,31.367049142453407,33.51233297741621,37.81854932841739,52.987650957303856,113.09550404311464,81.79525688543691,76.41286867932183,75.08029547847275,89.5225077363242,30.186984806622945,29.51469562421244,6.332723995026299,11.05075343587066,26.65186418611077,29.228513926252067,30.180982224637148,70.93851390826597,75.7165691689683,69.27822210531683,399.99999999999983,399.0810453718829,389.9939352353478,368.7007547766576,{}
82,501,15,0,16.716699999999808,12.90976276337295,134.44726727708095,19.567117923340355,36.63747469786511,30.387455090452026,36.63747469786535,51.6390510534918,120.7317945345668,84.09442892694553,77.17405308790853,79.0491335530628,90.0038623274022,33.278241946238495,35.454991508310286,5.169780209920418,13.604684762948636,27.91518118744749,28.31570640454464,28.563922921860296,73.34699611328773,79.93639560282026,71.15420244712277,400.00000000000006,396.7946797130685,388.1525795925362,359.43644913104873,{}
83,502,15,0,16.750066666666473,11.500666450709096,145.7550971012861,19.689444878332267,36.866519707761,31.09509868674797,35.22154974974903,53.77354126521003,121.48656858223136,84.62015864670924,78.24535551317331,76.31120065779169,92.2064369238384,31.368475109101496,36.29177837734585,2.672650345618649,12.800588497436138,28.492726554189737,30.577427107063585,29.434320253719648,74.76387677348606,76.59253227311996,71.59903427950267,399.9999999999998,401.0874303949028,388.2484592498212,363.68300594125554,{}
84,503,15,0,16.78343333333314,10.023520220651978,150.7698715265273,18.07015805810495,31.69715407001304,34.794755915891564,39.14309777739468,59.34228731995598,118.68457463991196,87.03740692415903,82.18346010623543,81.3787109488228,83.9415274962754,23.33153518683355,35.99704884888206,0.6128474352603916,8.140347246135889,18.482458058574608,18.482458058574657,18.472088351687773,69.38175812524008,69.45604266284727,68.5714285714288,400.0,394.6582091390172,383.39801060633016,363.9310922062189,{}
85,504,15,0,16.816799999999805,2.095619951033101,143.439024178912,19.320661304137943,29.63654156330401,28.50351296149181,35.128991689856385,55.127153940537575,104.40310452420972,74.7992491637386,74.29865498220613,74.54643515603902,84.24525910321609,24.67182588022752,24.565634377156243,6.194504345824612,7.46880238268011,25.49431703177697,27.95905739276209,26.91954602856964,65.27237722114734,71.43148439928166,67.64666395538123,400.00000000000017,399.2527260706348,388.7982183162824,362.8389087039528,{}
86,505,15,0,16.85016666666647,4.3758333679374,145.03098825372987,18.04202317610805,29.190449397807395,31.32619958242053,33.9656008227918,55.09033444930884,106.46862099727214,77.3545361952719,74.7051648607096,76.5928053609482,85.60091255828945,26.54643792107732,24.897739256312093,7.646138735143722,8.805006637188967,28.777550954972043,29.19044939780741,29.174798111283053,72.22016977178794,78.08619183265614,69.18800052023842,400.0000000000001,399.7725538130305,391.2212837607392,365.9123040636904,{}
87,506,15,0,16.883533333333137,4.9139900814895645,141.36585251029092,18.121900007595737,26.734996469439608,31.46488899329056,36.243800015191695,55.334234000842585,104.77290636245888,78.03812329234113,75.32827783551181,77.57839753632709,85.3016200637934,26.63735868630772,22.91302262978604,7.633695218415369,10.964111115112589,28.90495682103401,29.31968327500845,30.36766323009931,63.93443563695462,70.24909516868513,64.63344833852811,399.99999999999983,399.993963129815,391.2104012241472,365.7540619134909,{}
88,507,15,0,16.916899999999803,0.0,147.4175892224304,19.856558059726613,32.94598040771241,35.52049089657645,37.6135588637436,52.402904679679786,105.18133986152792,72.23884080129095,71.81786192224388,75.1174456185912,87.17361681678312,29.136708479458093,23.48357557312886,11.54277443424985,10.631350965678394,26.201452339839893,27.242972904345823,26.921603340651583,75.6250738795676,75.8212029803995,80.47059569506655,400.0000000000001,400.8514406639794,387.9195109562638,364.8995121383067,{}
89,508,15,0,16.95026666666647,7.003009752518525,158.5373760879692,18.2616152089105,31.707475217593974,36.05019914282781,40.83421298606796,55.76084675335683,112.50678991855465,80.82334930639438,76.83464779002338,78.98889025142591,89.18100512257774,29.00119958791356,27.88933251106073,6.4395634867731815,9.58985353785647,29.54573051340711,29.545730513407165,29.510805331471147,74.5877497388833,77.96967876431091,75.74913223583985,400.00000000000017,399.74857998880407,390.3259272734978,371.3180417413155,{}
90,509,15,0,16.983633333333135,8.085410115958933,150.43075466667972,18.492040405247625,33.93502070609971,34.30348993001309,39.73701144097343,54.56211928548417,114.3449664333769,80.51129941817996,76.66212297949619,78.36811171059912,89.31984356481303,29.490938064941588,30.326037443803216,5.678675776258956,10.856291925200937,27.28105964274202,29.49534150516541,29.628132962897386,71.87819653773187,77.23476255357264,76.70493534898883,400.00000000000006,398.6399230212899,389.6062969198736,370.6896520218784,{}
91,510,15,0,17.0169999999998,11.861337533247395,151.22704106829872,16.035134256519882,31.149398408717182,38.02268640726536,42.76666067170903,55.765253456127,114.47139036302238,83.37920710271247,77.30144910454442,82.29351920327235,91.06746058891554,31.31389425565692,27.3807481172654,6.202268910540852,14.06856118732412,27.24459655119,31.53636229427241,30.40624514679729,68.07368316447179,75.03232633239526,71.74511856285781,400.00000000000017,393.24804727148734,381.6595849856268,364.734050830261,{}
92,511,15,0,17.050366666666466,12.108183500472936,156.1002196891507,20.36042885349828,34.02496885350526,39.26719822760882,43.65667646368242,56.92578260289277,123.09016862059352,89.0901769149489,83.02880471173489,86.66447301958146,89.47441327106947,31.254423148131195,34.82846995923444,1.3063757309549828,13.16235170433913,22.929609827828703,25.138247723848007,24.02005943048408,62.87857527672122,63.10041266499661,64.89369389116814,400.0,395.90944535219313,385.1389577923503,365.6038164314974,{}
93,512,15,0,17.083733333333132,12.78750277072991,152.57431376455168,17.574741537199426,36.79108726580589,32.60186307903691,39.29831676416687,51.85556180658721,118.77778334727168,81.99084232822572,74.9930445666912,77.93977095996058,92.216546121149,33.72745364079185,32.49394026686514,6.430259532599393,15.13338167085999,28.434427697693955,31.03147512679776,31.0205770702305,66.01580834533593,71.81788977084284,72.11693052154635,400.0,398.77171243373226,387.659168528144,367.19410631222416,{}
94,513,15,0,17.117099999999798,6.9051783222749785,158.45842168539883,20.13188131125663,37.69493775482288,36.01300410154235,40.79318471777229,54.98187262905044,119.54138133895653,81.84894022874903,77.66123676462689,80.6855001463648,94.42165825425798,33.41695606920257,30.981385177802963,9.430622835419284,12.443343227150422,29.132979257037647,31.264524577858392,30.109889432302168,71.8089408312639,74.81011823298843,73.20791769511973,400.0,396.8225207887347,385.90001589434377,365.191896120074,{}
95,514,15,0,17.150466666666464,13.94545357265845,157.40457756758346,19.966850889955023,40.23692330764344,34.23033660317563,40.65763446698474,54.0554994620456,128.0022486052453,87.78438719744872,80.60476899466164,82.17083162452559,93.96375779183404,34.13304686453375,39.50748907156651,3.1202611488955654,13.92846611712298,31.1829821655314,33.72955233591074,32.86951906089348,77.66246950825064,78.64719070733184,71.17648026415588,399.9999999999999,401.0136356092824,387.6861174868917,366.6885353198718,{}
96,515,15,0,17.18383333333313,16.298952047591598,155.4337290340315,22.83170880817463,36.44556474042439,36.92378378960927,41.28204527003539,55.38567568441402,130.8903944304379,94.4830070785718,86.34026293989666,89.52971202720278,94.78292228864802,36.77247183011673,38.72366421293941,0.3001834435110595,16.284951810480266,25.030916630865644,25.030916630865644,24.99027167230384,72.64439332970016,73.24476021672251,66.30122367096658,400.00000000000006,398.9899845081989,387.4216674181709,370.3831424224391,{}
97,516,15,0,17.217199999999796,13.558953580496825,164.4086872793078,20.55108590991345,34.09834029183912,41.64261803019583,43.79443867212921,56.83056715306512,125.02724773674323,90.92890744490413,83.99691006112994,87.56382670222831,94.51411367356218,34.323160131323334,33.73581193656287,0.5873481947605796,15.07527033218912,27.11790716099367,29.739613018100712,28.357905028285927,74.2628373750452,70.3104734811352,66.49979633301089,400.0,396.9073950742013,385.2695905088917,368.3446402245789,{}
98,517,15,0,17.25056666666646,2.966301422091787,151.78944362430622,21.390303751668643,34.14469353777228,34.1446935377723,36.63112036673832,51.88908269348823,109.89336110021527,75.80046513536847,74.48114926484686,73.5525709840324,86.00239830458383,27.914668071402502,30.00110322088733,8.013286645548305,7.485945893480675,29.663014220919656,32.08545562750305,31.262135454092345,72.19982731568507,72.52081733868283,67.02134717150052,400.00000000000017,398.8655271578999,388.8514566583988,367.15694667700456,{}
99,518,15,0,17.283933333333128,3.0885959032303147,158.95020036056553,20.135181841037564,28.725602387478013,36.01890826870357,42.40497078380594,56.14962019431148,103.2949489320969,74.70316875654333,75.47850290905387,78.71924457869181,84.3437720202237,25.394862096529778,21.737712279396533,9.160979244898272,7.169462017746582,24.41749456518141,27.01418120152762,27.01221548100466,72.00843501325909,71.96015580775236,74.15846757258574,400.0000000000002,399.642111470246,389.4877412082414,366.964968519388,{}
100,519,15,0,17.317299999999793,2.2216051953542,153.80505057965888,18.319825757732858,31.41824197508487,33.98402472783091,38.79866674806743,56.64004121305184,104.13144879392956,72.77240760094966,73.8041200728602,74.03647770026441,83.47753498216127,22.19626809150634,25.204687898950283,7.728948448392316,5.931234173212488,29.22065414080105,31.808545660327034,30.70789486378652,75.32055932539288,76.84922792673609,76.60512219653214,400.00000000000006,399.3269678706926,390.4024730161601,369.3280828368145,{}
101,520,15,0,17.35066666666646,0.0,166.85937974803255,15.79602817081092,26.83834183988729,37.89307805604965,40.53430007694918,54.63294271720803,97.03422970700592,70.27449103280213,69.26069422215937,68.36327010479818,85.3802489377972,23.38982604615819,19.14126123738538,11.098523577997412,7.542906505414749,28.5386231283671,33.19081323160596,33.26717123660717,71.6121726056245,74.30444495770769,71.37129800237715,400.0,399.2165575532081,388.4097317219867,365.4469350902492,{}
102,521,15,0,17.384033333333125,4.790642474824281,160.58302176550032,15.597201877543997,28.58372070687481,35.3340330205106,39.50464987654144,58.20187012001201,98.31911076415356,69.7528073139509,71.01777322104203,74.6616743739861,86.20616601469487,23.28047958825391,17.360508045482675,14.810871503032558,8.74864556089733,28.583720706874697,31.19440375508783,30.8692046620277,73.43609801023314,78.2727475886154,75.98871125971375,399.99999999999983,399.0751831154686,387.7817207116974,365.1211348471279,{}
103,522,15,0,17.41739999999979,2.967525632055472,157.2788584989356,15.27627317077039,27.995580821704927,36.22326666879951,38.69180047599221,54.718468985781605,95.90664549278128,67.96216810613859,67.6617949785757,69.55688098167195,84.41746741064196,23.92476610946767,17.878274697829852,11.34272883378003,8.630699597677904,29.675256320553927,32.09869748288809,32.17755999391818,71.79097063928066,73.41374223137467,69.7526352781056,399.99999999999966,396.7671660429515,386.0635657234819,361.94690068991855,{}
104,523,15,0,17.450766666666457,0.0,162.8830734791449,13.606701590200895,24.52983013670348,35.481936693484855,38.12305439092606,54.17107993580811,91.98371810886046,67.55559480355234,66.61767159912097,64.9649647081319,83.46169799495658,21.20219182755386,16.88930603668439,10.391677574850291,8.184295083460484,28.703368449247364,33.3988402073003,32.30702374577595,73.1718996120166,80.2355235844638,69.51413356361893,399.9999999999999,396.1630366216429,384.9037425090255,364.35738830241,{}
105,524,15,0,17.484133333333123,2.18136753259684,162.56677209791246,13.796179633895434,24.388430433987608,33.86393065278325,38.65393115909495,54.70841939241485,92.88118484462429,68.49632991552119,67.17412610122051,62.98115025545872,83.37504652865482,20.151661079906035,18.46754973607858,9.216472354232906,6.921005522577843,30.849195491187903,33.86393065278319,33.43422417865327,70.84802653278888,77.67675198173237,65.62255483141622,400.0,401.0395413854435,390.0502302987833,369.1734966543107,{}
106,525,15,0,17.51749999999979,3.017171309818051,156.90741307134283,15.531839938942928,24.325212770526008,37.2593171394823,39.33910091975064,51.38057596708267,93.31306540235296,69.09915167973082,66.89441138768052,65.36328437091436,82.22328071645438,23.76473388858141,18.74310658455136,10.811751309961892,8.418265398695212,30.17171309818216,32.63569759322524,32.41765476877339,73.5644934492251,77.47150721614565,72.91323929348806,400.0,396.7608952642939,383.81573677967776,359.0560628349483,{}
107,526,15,0,17.550866666666455,2.122351924650933,156.09029097417888,12.909762763372834,25.81952552674604,37.06528289493011,39.13423584668071,55.54726563088057,92.14527632793228,66.33835244526261,66.46243110236048,67.82493403322894,81.40377680188351,19.941038657709555,16.442408250479843,12.031593677668411,7.724698819923333,27.915181187447445,28.315706404544592,29.270719743656,74.89147465773283,77.9166930296609,69.13135852336262,400.00000000000017,396.4937399643493,385.6436674691521,363.3191273055908,{}
108,527,15,0,17.58423333333312,0.0,147.5441463011392,15.256343529688408,25.49431703177689,30.00471147552139,36.176009285047485,52.55788098749982,93.06062816743612,67.58171275081698,66.6461819610031,66.27189264774347,79.644229021471,21.567003914031147,18.981005022419826,8.512246351554268,8.126614937892896,31.71248432761609,33.790856375408474,33.924222301797215,75.83328328646462,77.954256061602,70.91127069194634,400.00000000000006,393.01674700102814,380.6075085843818,356.477211789454,{}
109,528,15,0,17.617599999999786,2.9945539283251508,142.86250715523502,17.461099902584657,29.94553928325259,34.4699043069225,36.98001308168195,53.10586211261807,98.52492005119464,68.58116920081308,68.6318853257817,69.43931927079097,81.48957483630727,23.56593417433725,22.062436483630563,10.413113635635682,7.30588507484174,27.850961462121514,32.39105320715661,30.921935838869445,74.7962258576793,80.43155794284706,71.65060867831957,399.99999999999983,392.9146894704057,380.3555043034298,358.2530433915971,{}
110,529,15,0,17.650966666666452,3.052234803643608,146.0774194658483,17.797434311818474,30.901522177698222,35.594868623636955,37.69231934661803,51.97768575077479,102.89698750476455,72.03532795921306,70.04600797351259,73.398969962769,82.35927452791543,26.9552968112414,24.32327886745645,8.668493880074493,10.533793553278542,26.2563165723304,30.901522177698222,30.51424281348983,74.9324065039309,77.63308578537965,72.35792396603343,399.99999999999983,394.9667315497872,381.6209065141526,358.9199723295112,{}
111,530,15,0,17.684333333333118,4.925152335778423,146.93141843137528,18.16306436746014,33.693225948745656,34.19347087641335,38.46666943430517,53.273667858362046,109.73257088668822,76.04537281453038,73.22314848163046,78.10469171373904,85.56013955914148,29.18275299486072,27.395812320803884,8.295664983535062,13.15945714934503,26.522757028410844,29.386283686275068,29.3484296136474,72.55452498438399,74.53081036562554,72.65225746984012,400.0000000000002,397.2311689390867,383.3401446033589,359.99460948730206,{}
112,531,15,0,17.717699999999784,9.15046188710837,140.58958068986902,21.054251697583,36.12779806226027,32.31368493783945,36.60184754843327,53.67802012503466,119.69897083990472,83.57120634026595,78.68280101581661,80.13522190413289,89.56995593898137,31.77320736672266,34.389965661375186,3.6610609168305928,12.951753210689049,29.190504928127865,29.190504928127893,27.908087316822844,74.34954530769909,73.48529486175886,68.90600522302088,400.0,399.2296722812551,383.5817844708825,360.3565692629012,{}
113,532,15,0,17.75106666666645,11.990741759891552,136.6973576028718,20.528466758301743,36.24682640442689,32.42014712357295,38.886331179514414,51.64617812023828,120.09333669728628,83.84654396605788,77.87597534414965,86.05593470516749,87.1984923442352,35.199564188201975,33.39156089121582,4.086840785896129,17.2701981597545,23.24664587360564,24.8944225813116,23.786543375976063,68.84223664844376,68.91757011915149,77.77266235902883,400.0,399.0134089794032,383.3482425445212,361.7014823307719,{}
114,533,15,0,17.784433333333116,11.231075316248536,139.99913367140792,20.895651690034576,38.02268640726526,32.070268513040105,38.46666943430496,51.08881195619266,120.96238307867785,82.94167107362348,76.9936037958986,81.34140791909692,89.31139085355062,34.806223979420565,35.07982040851368,4.8652582390921,13.917731393001418,26.79572569844849,29.38628368627508,29.346190894473807,72.66959066653448,72.20566628676772,73.8444433880059,400.0,396.8829428756848,385.0763669309094,363.9684243830048,{}
115,534,15,0,17.81779999999978,13.141364055589465,148.3318365095204,20.495609570554787,37.29475141464975,33.538845274652274,37.73023449568248,52.25375657161849,122.8977243148694,85.60308394754372,78.34159164680761,79.99436784188788,93.43694756187448,35.369410574719154,35.07558369559365,3.0484538709259823,16.417576871131246,26.282728111179093,28.823690502588803,27.693183357568103,70.95919130878201,68.4616628362163,64.23411090301302,399.99999999999983,396.8898927047087,383.9547328433549,361.31485540655007,{}
116,535,15,0,17.851166666666447,17.721242348242335,150.12382439084402,20.38735865997157,37.097773091721216,36.02407751453954,42.818846327384925,52.68378205770341,127.73547497027792,90.69256150834862,81.59348961073101,83.33831381174821,95.91941462960996,37.261179976988274,37.53667853504362,3.145275204465406,17.677824141885935,28.67145347189568,29.22978175482248,28.89291127605657,64.742161143011,70.96383691242818,64.64932549127744,400.0,396.0550159969556,386.8348718367897,363.8190018785005,{}
117,536,15,0,17.884533333333113,17.7409683467425,155.49787155559352,18.381641626925457,35.0223917528722,36.06417689837887,40.19162615816491,54.17107993580808,124.8929187259328,89.87120821591517,80.29778163617209,81.07792867878675,91.70169575909756,33.30539506926823,37.45853079612823,1.422621077708868,15.64883185479914,28.703368449247503,31.32497947761995,30.95921756611085,67.90721095935169,73.03553048948015,62.7237951139876,399.99999999999983,394.7174910095366,385.3604305335038,362.3574742356773,{}
118,537,15,0,17.91789999999978,4.166610153782868,147.56213246543248,19.207123774504392,29.82838931114663,34.3587475296354,40.45046769028005,57.20560001192908,110.31685619930477,80.49757104906081,77.93470668483405,76.38750604162976,87.26211627672285,25.02044468724671,27.80540584501444,4.862630592927758,6.896094295424859,27.401600090295545,27.79475647897428,28.02643450832943,76.21068311097775,79.34929013004944,75.11463277166501,400.00000000000006,395.9814415449453,387.0352487021856,362.8780176819817,{}
119,538,15,0,17.951266666666445,4.882261948656155,151.16101147933156,15.89549327306742,28.718326344709656,33.89569913191431,38.13168480218311,59.595602006851934,108.7769715215536,80.07504971459322,77.21735611914346,72.5825657745064,89.05793371657501,21.9030280815116,27.21991964668041,5.684176837762607,7.141658078214391,28.71832634470952,29.13037503666117,29.37699188254919,74.774617560146,75.18271230747268,73.88202973242383,400.00000000000017,395.9270620758322,386.2853552271329,360.9243309661902,{}
120,539,15,0,17.98463333333311,4.262500923576633,150.0527468177016,16.23111994874753,26.36211230579921,32.60186307903691,37.22068916498249,55.78016263554613,101.98874122028911,75.68190125406996,73.10201385934806,70.17572478491809,83.48205812336425,21.891955056821416,24.652605127038555,6.542740666414375,5.6041196425405815,25.92778090329356,26.36211230579904,26.640273177594736,74.92404290569135,82.81950210651229,70.84604806631489,399.9999999999999,400.5673761717088,389.03348782423205,366.7299341076723,{}
121,540,15,0,18.017999999999777,3.1557755714306466,154.48802697708638,18.401175547940493,31.94979255593049,34.13493190995038,39.54175457395023,56.89155318325068,109.88716868634924,77.9419070135939,76.52037716145435,73.33403210366271,85.418095436042,22.62304991031988,30.414565372391507,3.4568837891133626,5.969888004503673,27.14700793523446,27.14700793523446,27.005777357735155,75.42619829255233,72.67271520487577,71.44190802207711,399.99999999999966,398.89053156010834,387.9037433171047,366.3962803899355,{}
122,541,15,0,18.051366666666443,11.361175016003738,159.50838245870088,16.22088371448052,31.9016764917402,36.74692712764776,43.77541061147622,56.80587508001865,116.24670093910954,84.3450638443365,78.65755975446086,82.75262136832612,85.45068538917405,27.32239498445608,32.13094463938978,1.624834110333154,11.433795750572244,24.91102414134193,24.91102414134186,24.882145970044405,65.06531278721008,67.13982423435124,69.17912952992575,400.0,395.4816323865384,384.8894309103559,368.45417406921655,{}
123,542,15,0,18.08473333333311,11.44097103641943,153.13552587839135,18.502510891374268,34.32291310925871,36.52575057823584,41.37287210754303,55.00642856555342,119.25742785667464,84.93746739652309,79.19470698217765,80.39835057520668,87.51938335071884,28.98197321644261,35.24596133932687,1.1028148103667943,12.78635000133977,20.686436053771462,21.286167089176782,21.2118551525432,68.02161750343168,69.47103125419949,66.44709654207844,400.0,399.8678237298988,388.52681397385913,371.55050554311794,{}
124,543,15,0,18.11809999999977,13.793103448275843,161.4441366995811,18.698879707712155,34.687185280754804,41.379310344827424,44.55072579736024,57.09601006883728,124.13793103448276,89.47576859930494,82.18874627721493,78.37077823125321,88.91209488498168,27.023764071660707,40.0607281310422,0.3911089217814378,9.88946845075941,17.269315671053864,16.508175079578372,16.501071652302812,69.61738807709708,64.92408101571971,67.15230556877022,400.0,400.2377414771561,389.4485179719249,370.3091959443589,{}
125,544,15,0,18.15146666666644,14.364254499892228,159.90518823453283,18.728696496928176,36.6218069965818,37.45739299385635,41.44529280975286,55.67885959005052,125.1628637899955,88.69272887192533,81.53966007679833,83.45210412977235,88.49400208761267,30.31348008642476,39.13059227870724,0.2359508896527131,14.045287168269624,14.364254499892285,14.364254499892263,14.30607499367528,66.6374986250533,65.07277167262009,65.03692835937397,400.0,402.1606484747565,393.276394893364,373.8295508782141,{}
126,545,15,0,18.184833333333103,22.549499093767352,168.98350865703682,16.33481224442738,32.125740184540284,41.37287210754295,43.565919762065775,54.59301322149658,125.42994245189014,93.32527186451152,81.96711408605802,80.40446104207763,87.91021622521248,29.68413212059216,41.10593348623229,6.539295067580838,15.287641827856874,18.502510891374307,14.190778059451178,14.96758036101744,68.50570533369643,68.69397678477844,69.12088950781073,400.0,396.9678347382932,390.5043255438567,371.3675374834774,{}
127,546,15,0,18.21819999999977,22.577108729117523,172.52550027832356,16.117199796162293,33.86566309367634,40.39929362513284,45.15421745823528,54.76806105353551,127.2733240095572,93.42941177942592,82.0961000795512,77.04181071669404,86.25987179276206,26.92010786836056,45.59691046634703,9.78366012381639,12.768097652360552,22.577108729117523,22.577108729117523,20.40970180810882,67.77561355145593,70.73598303541507,56.442771822793866,399.99999999999983,397.9361675503143,387.5027359228312,366.6007078989499,{}
128,547,15,0,18.25156666666644,15.811388300841887,174.25555945220228,15.811388300841887,29.8328677803525,40.80441152620621,43.41658669218495,54.817880294663,116.21101496846148,86.40023148117139,78.48337199664775,74.26116527530905,83.52163547925352,24.073674457380434,37.30798628140815,5.9785027945004,8.060038881210858,27.20294101747083,25.000000000000057,24.990259950108,79.02740983749254,78.50702581581481,64.03124237432851,400.0000000000002,397.8190543450625,389.6793553679743,370.6818042472544,{}
129,548,15,0,18.284933333333104,7.989681536104353,166.12154079093915,17.865471033304342,31.33810927691392,38.25303737805891,42.62443691294726,52.15700861584661,108.64882262814768,77.39942033126619,73.61422204342387,69.78522196896483,71.88161492438519,18.71955591957737,37.75973664410151,2.9966087539245336,3.983146615298778,24.77495071957517,24.774950719575227,23.68307453461688,73.95334443327124,71.52399494963709,64.87064315795685,400.00000000000017,400.50299825113854,390.5714209510687,371.7563703821567,{}
130,549,15,0,18.31829999999977,7.00086422251945,165.62630314309158,18.25602035117853,31.3088166055996,38.217281115906,40.39929362513316,51.3502772396007,107.73144966702124,76.43456223181165,72.97157275342488,67.0297086012597,71.62624502085919,18.03112863785975,38.3978957003128,4.017298090300415,2.8837349082310766,24.75179282954912,24.75179282954912,23.6615743334126,72.26153867234859,73.40755859268234,76.85023118631158,400.0000000000001,398.25011632632135,388.0083338622725,371.4088785449683,{}
131,550,15,0,18.35166666666644,13.540254609499046,168.7364001837792,15.74022626344367,31.871529043647428,40.62076382849714,45.01814781511584,54.16101843799596,115.28036837337498,83.43804714496703,76.64600518258783,71.17526443038287,77.70306356521724,20.288102992923086,40.8358343605272,5.711824242980242,4.858759583314281,24.587019414551776,24.887482939441828,23.79308605111544,75.66312633558152,77.10962728023253,70.28676385436032,399.9999999999998,400.1176661866773,387.41426288538185,366.3924385343876,{}
132,551,15,0,18.3850333333331,26.418426811076845,166.00099709631988,15.972058270861089,33.56068989368375,42.201104072313534,44.36950720121769,50.88784842706137,126.6033122169405,93.08060634740228,79.870385175465,70.96624442230711,78.48745323287642,23.89803444648635,51.847816865118034,15.187989404569066,8.443163438961733,24.52889350394308,24.52889350394308,23.449188114242645,71.83967512288939,73.44096474062349,69.27404227721655,400.00000000000006,395.9422351839709,383.5616261741692,365.30761769481626,{}
133,552,15,0,18.418399999999767,22.74317695987432,169.38881520944724,17.980060105366857,38.498392233162015,38.49839223316212,42.89782991019532,52.4915434964383,131.65454366831025,93.16057845958474,81.78571329522913,79.1998041953799,83.30683629514033,28.7872527733208,50.39987539705987,10.850677399366988,11.1675780243487,24.632833776173207,24.9338571714709,23.837265011109537,72.67165132076082,74.8265755706351,64.36606531156698,400.0000000000001,399.9875658620712,387.89902194753233,368.9469510075339,{}
134,553,15,0,18.45176666666644,13.951177828860292,160.66584886965012,17.784331996740327,31.19578199151929,38.07930478557855,40.25343954762011,54.07768787825088,116.8072726038704,85.66068630375625,78.73441044199888,77.73838735402546,85.43934635128369,27.512101149510613,35.21306014676861,0.5708912821311287,10.166723471143657,24.66243112081621,25.15084350753601,23.795234504146265,60.3201299375142,67.65669024405025,67.95383714497751,400.00000000000006,400.0121645252063,387.6381895212413,371.2429129391127,{}
135,554,15,0,18.4851333333331,5.027411276950074,150.43640968118638,16.368065248056016,27.352074487488423,38.81213602982009,38.81213602982032,56.6114191123693,104.97542935542528,77.62427205964052,75.2180770519152,76.62349231647977,76.34619064992899,19.92790612804004,28.48644392749532,0.428557121033009,7.0333786334259685,24.833579790307347,25.13705638475065,24.02440802026825,64.88858997289651,61.58617921670009,65.818779348295,400.0000000000001,398.5123352984981,385.9401888825092,369.55405685118666,{}
136,555,15,0,18.518499999999765,3.124904636933638,149.68586779450473,17.8146973640509,29.063293131180536,33.80101169819908,35.97035364248874,55.94364835504122,105.34683406280055,76.28864448919106,75.00915172899568,78.1931532337801,78.67445578682896,22.49163853670518,26.897408060767702,4.498327707340991,8.570887771600383,22.206619823634952,22.534007798799365,22.510150173360955,65.23500757477308,64.161332648741,67.20361528848383,399.99999999999983,396.3088773596058,384.1091290360715,365.55374326177326,{}
137,556,15,0,18.55186666666643,9.2188242647786,152.18863635046256,16.277548962258308,29.408584883752283,36.39770598669081,38.59750281911059,58.81716976750457,113.5913020823524,84.19556021886578,79.59427877238363,82.04493987510614,82.81883285491335,23.64058793077436,31.158405448900567,1.0748513608431267,8.592668878969448,22.80172718662616,22.801727186626216,22.799132865428533,63.60663253081316,65.08071439711227,66.21415974539694,400.0,396.5796587253717,384.6906251138191,365.7924180603683,{}
138,557,15,0,18.585233333333097,14.219666422980744,158.98070369577903,18.126589141889564,34.02335635942336,38.812136029820266,41.02811173123296,54.37976742566856,120.5111486096368,86.49485411104618,79.42721708450154,79.10448798573827,85.43954066516437,27.98180815572892,38.177657090729554,0.5378818312719886,12.8613522321931,25.13705638475057,25.13705638475057,25.13701091477901,58.49763738322798,58.880131129910296,68.38018621872077,400.00000000000017,396.5540943598618,381.6662835885664,364.9221892690307,{}
139,558,15,0,18.618599999999763,20.324818247054854,157.19518903554064,15.871016626723828,36.19148625826072,38.746089426467385,43.173832918406745,54.61105893668789,126.9681330137904,90.78443480032853,80.51501317308794,82.55550060295695,88.0592006431541,30.744591947903928,41.39007071046217,3.8251339281641776,15.144535144624117,22.8895056965577,22.88950569655764,22.888403341772232,54.5377985842664,58.18197185351255,61.631880264903415,400.00000000000006,398.3909703285138,383.6980340843585,367.0153292291329,{}
140,559,15,0,18.65196666666643,13.627900193970586,164.7731988289593,20.655587173103594,40.57560500375209,41.31117434620722,47.89455939012585,51.72395042249112,126.4395089718302,85.86950910422728,78.34726921133199,79.10460526810266,88.46596224051564,32.85585750050052,41.45418416007681,0.4441519731436756,13.483998364156832,29.468032069378395,29.89083749065646,29.87206732194545,77.06606159649436,80.15234838423635,78.79758948037777,400.0,400.1819137101717,387.0147271697866,370.21765464150553,{}
141,560,15,0,18.68533333333309,13.676685402288264,162.29265190609482,18.54105539747665,41.03005620686444,41.45906024334746,45.85921965565714,52.15201980829087,125.30855468741002,84.27876390023278,77.13800453386193,77.1674532643093,88.14593997509189,30.87404900103116,42.18236149282416,1.507774998905802,13.8880212789835,27.3533708045763,27.35337080457636,27.257744902093123,75.03536517991921,79.0992899816572,82.91812048669445,400.00000000000006,399.6965577841868,388.6148701060323,369.5715713998191,{}
142,561,15,0,18.71869999999976,15.455885927574814,153.89282110672752,18.024505467180983,39.88696741179156,38.17322228759143,44.58159137567462,50.69907543057149,123.97508994524358,84.08911065211524,76.00244006994467,77.2438592362414,85.70390096211531,31.173414620340168,41.93238072824522,0.6436988269687163,14.529202094435846,24.43790139344033,28.749609700471943,28.874490238309303,75.58863368117892,78.62321386545983,78.99152349548683,400.00000000000017,397.219275308989,384.109085006471,363.4993050227303,{}
143,562,15,0,18.752066666666423,18.16306436745999,162.6115184962633,20.77025873451009,38.89023574320135,41.54051746902041,43.74245148429262,50.37527684340765,128.15533793934355,89.26521799411503,80.18917089105219,80.33723521643947,83.1627960925822,31.38346763523475,46.37498058070776,6.150838850467721,13.245587775279889,20.77025873451015,20.77025873451009,20.543925147499863,62.82862873938103,66.13539867303263,66.29662036280968,400.00000000000006,395.707339047497,380.4117306988456,363.8894656618506,{}
144,563,15,0,18.78543333333309,22.974661075767504,153.34287227968846,18.16306436745996,38.562595231536015,34.46199161365176,38.89023574320159,52.25448616478553,131.90244634916567,93.35070266232356,81.77682638111912,84.07931797326694,85.80618666737792,32.77852613821642,46.78534999044939,4.943961113139721,15.701713496452951,22.97466107576767,22.974661075767614,21.656212586146523,59.77524005615044,64.25230704088233,66.71634416622076,400.0,398.25153146676337,382.65320256569487,366.1350530633216,{}
145,564,15,0,18.81879999999976,20.40043226983662,155.56094297280546,15.930061258670476,38.890235743201366,34.461991613651435,41.54051746902036,52.59333307164,127.7785554727374,88.89488040429305,78.64403214397373,81.29495457579299,84.82951781821896,30.485607965922327,44.62386093562554,4.418204053032241,15.46371418561273,16.401001884253724,18.57748417624936,17.45190600947734,64.50577917427069,62.738497553057584,64.07766896967163,399.9999999999999,398.2515314667634,383.3886224766821,366.3221412658562,{}
146,565,15,0,18.852166666666424,20.62942858681461,155.0641570310311,16.108877340075832,36.73389213818185,37.08542064660118,41.57214076986751,53.18369701156513,126.61618578743088,89.89273181947473,79.49925344323538,81.21840737508785,85.58598763438908,30.24781647664895,42.97884829631357,4.878680076878709,14.91482194931541,14.408217909446297,13.857380256622564,12.73103181966485,61.42490534889373,62.44710498404925,65.23598116212275,399.9999999999998,398.5441735082496,382.9036431976724,365.5260100248284,{}
147,566,15,0,18.88553333333309,16.245404659971555,151.85760770813152,18.522611164090662,37.04522232818122,35.14418369531341,40.1231897118609,53.63444397932967,125.41620742530472,88.38455695403061,80.1124766489279,81.94288565085526,87.52191825451553,31.157478693323128,40.3568036402786,2.222157054000263,15.447030949843906,16.725667786973354,16.72566778697341,17.567873852445928,62.59863701056099,60.72094807131453,61.30353641791836,400.0000000000002,396.1014782737136,385.4305707096007,370.4664711702532,{}
148,567,15,0,18.91889999999976,13.697692318338577,148.84613671101147,15.923243882462092,34.07723002960869,36.65806033362834,41.52273992686989,49.99999999999985,113.69240734914436,79.6162194123102,72.54629434505341,78.20070563644254,83.47991152200052,31.010397664417724,32.49805418578421,2.665933146696944,15.146449803826158,20.761369963434944,18.56953381770519,18.31923937594445,58.57153861557816,57.47883515298122,60.087832939313046,399.99999999999983,398.88282122823216,386.3610330638721,365.2501990564147,{}
149,568,15,0,18.95226666666642,4.986771434294413,151.79784669253735,20.19488512325416,35.96012021073351,36.30424403438664,41.12197070881562,52.49154349643834,113.29962257757118,77.41551091630207,75.00490211043109,76.94248625740352,77.96226738738903,24.9846376846441,35.84530671898904,1.1217592429842398,8.158249039883799,20.194885123254256,20.194885123254217,19.044412602478587,61.95170364661715,62.9204957201033,61.23787808337408,399.9999999999998,398.05557866372806,383.2358991921201,362.1165288670304,{}
150,569,15,0,18.985633333333087,7.149700054031522,145.43973203685462,18.228230045921293,34.21413492628453,36.80533368765214,41.68955707763128,55.427470381061546,114.86344163241054,80.69981452207773,77.15231269241804,85.41615176568325,82.7772787843046,28.680382666038327,30.76370344081124,4.513861678674175,11.5971523129017,23.05708986345087,20.844778538815707,20.62487567025039,63.749615708046576,68.47180946419815,64.30756766342509,400.00000000000006,400.3448992289748,384.7641491605384,363.1315694637608,{}
151,570,15,0,19.01899999999976,9.136550383454464,139.93790492733908,20.42994773725613,33.533241291952606,33.897347962202154,38.25303737805896,53.91612185082806,116.94196646519312,83.44415251973788,78.87527256676094,83.37618839744039,84.39997507737303,30.00194380339167,33.01087782612035,1.7728988847613891,13.034552364020328,24.475845782354444,24.47584578235456,24.55215251326252,64.41116441185903,63.31246651144363,59.12862632654681,400.00000000000006,395.81036907727565,381.257433426022,360.13610106997965,{}
152,571,15,0,19.05236666666642,8.122769321068974,141.85806758942604,18.16306436745991,34.09181985181907,34.461991613651264,38.890235743201686,57.03762827167738,116.67070722960412,82.6215971212394,78.88999021680172,84.46495984340982,83.91323672731289,27.1563250051006,32.48109461394381,2.444261712011212,12.593400894167871,22.6408710177875,22.6408710177875,22.774617001678905,60.17631196499963,61.048804334641375,61.49086184470367,400.00000000000006,400.1712559641444,387.1365426008898,363.40795941244073,{}
153,572,15,0,19.085733333333085,5.0750960708918695,145.5588515547473,20.925157160444783,36.94725709474919,33.04663137840825,39.637767442878975,54.895557334520255,117.54080274134245,80.59661625948738,77.89171117485705,80.3688327316546,88.62590458764657,30.000694410104074,32.753051695434465,5.779950299194411,11.83513632692177,27.611507814894395,29.852610680740995,30.000694410103904,77.61647544632405,78.71741836045629,77.067969933672,399.9999999999996,402.29220878510057,386.80090334443975,363.399559961616,{}
154,573,15,0,19.11909999999975,0.0,148.76600419553426,22.952465615527124,36.29103463088192,37.11907351948705,41.50038582569295,54.43655194632306,113.63120012675468,77.3459582952524,77.06427794824504,81.1703966423172,88.43065679133338,30.67545934998975,28.34712947597665,9.674612062709455,10.179274695500451,29.603000150862947,30.02774208545888,30.0274266510649,80.70014282539842,79.4728950592928,84.75216307460283,400.0000000000003,399.78465678116254,386.5463706013641,367.4187222290632,{}
155,574,15,0,19.152466666666417,5.101443274928462,157.94714285145596,20.65927068393105,36.78703061325109,34.899241527664365,39.84354568466621,55.1805459198766,115.52263070192818,78.76734145174258,77.16417010911346,81.59136943441035,83.6042940927739,27.58200751199569,32.818081469947856,5.279296266567371,7.823237859346023,23.266161018442894,20.659270683931087,20.80227967493028,66.13013218121182,69.25448763253718,74.27813527082061,400.0000000000002,399.4661369062568,383.722139765898,366.054772256116,{}
156,575,15,0,19.185833333333083,9.30247355561913,151.34923854497788,20.80096322925804,36.3798293384232,37.20989422247582,41.60192645851631,54.89525878904219,121.28941595625068,84.95952953880648,80.28540544457712,80.97085985306069,85.75657790501953,28.52736620034716,37.812157733444224,0.0124628074269139,10.555997890648314,22.67434082257643,23.00862431952681,23.0063425101971,66.21489585952168,64.55734247173382,64.60719850962361,400.0000000000001,399.8536255469862,386.466130788821,367.0648092529524,{}
157,576,15,0,19.21919999999975,14.444810863565095,165.73807540936488,22.953163534304284,41.363643447478765,39.887037703266046,44.87200923217292,53.31876913476856,131.79653141720678,90.49648067578929,83.23351201129014,86.66219962398225,88.49164071768041,34.31716488675113,43.96110601644341,0.5997174446227973,13.745039210598064,23.291557661496803,23.844878452392013,22.419740025748524,63.7154351772017,66.06584293996582,72.58427627472207,400.00000000000006,399.5563672956505,386.4088153351428,371.5785460048444,{}
158,577,15,0,19.25256666666641,11.69314598839838,161.45598828931134,21.142393944222263,39.587021768789405,40.04927121555785,45.05451823962209,53.19071591598371,125.54171852242784,85.95731871644365,79.99055929088888,85.65706413139458,87.85963776431424,33.75572149056006,38.63467820069036,2.573937791958542,14.957011646803494,21.14239394422226,23.38629197679688,22.01933349886877,63.50327119563247,63.554493838258566,65.66767257209094,400.0,403.1168622142705,392.2737795971181,377.4550422983514,{}
159,578,15,0,19.28593333333308,9.281825619803376,162.91093311132096,22.95755396761266,38.533881228522674,41.50958608235861,43.70988052074099,52.55417167404139,123.24017766583285,84.77095185542392,79.90304483136276,78.62029268751394,89.29610085244997,31.607722180461337,38.72492762375214,2.4531895838586024,10.00783124210227,27.38670614796281,30.034398961745268,27.84222395174362,72.7681054874659,70.52181141067967,67.1589577418114,400.00000000000006,397.4835323568372,388.12344353865046,370.7334678628157,{}
160,579,15,0,19.319299999999743,9.159630335555264,156.40943438919186,20.481556079070543,40.53924002115597,38.34966884544399,43.13443970839793,49.67507005354072,119.81890509642906,79.29361176117548,74.63376378775877,77.75965843990843,84.35069212506107,31.477032194902225,38.57693245133498,3.949773862793677,10.5165758064569,27.4788910066654,29.21975281122633,28.024009032643846,73.59179890370888,69.32701240155131,65.78899964113775,400.0,398.8199744152706,386.88556986564544,367.6894862480394,{}
161,580,15,0,19.35266666666641,9.333257081544476,162.54185886936264,20.869797285814773,36.84950893902426,39.53290123712364,44.47361377106083,53.27993056302389,120.31450645857916,83.47918914325908,78.80088107531196,85.75648957246233,87.51740311604465,33.369311650886175,33.63344868242359,5.194694953567932,14.351445380196424,23.63317205660659,23.084763916056204,22.803830389391976,76.07146508275912,71.49308986944499,64.38475220930526,399.99999999999983,401.9169438874492,392.5193207139071,370.5335559606905,{}
162,581,15,0,19.38603333333308,9.175777155032115,154.96887811804908,20.517661465041744,38.417272575853296,38.86586310378556,41.57489015456138,49.762638477077765,117.84397997109356,79.4333924715195,74.69417887608108,76.78585357491806,83.31045249344913,30.44218602881176,37.51347265272068,3.1791078519255507,11.260578279250126,29.27126210325267,27.0738023873134,27.23930914621758,73.5651499193225,76.88092969759231,77.73172620757134,400.0,396.73651685015057,382.7261315515657,362.994486478982,{}
163,582,15,0,19.419399999999744,10.055934575799515,156.57900659327063,20.73084021016152,36.25718773575697,41.4616804203228,45.862117918926096,49.92647461769779,116.44928547590828,80.25870635812062,75.12596553164701,76.98445754289617,84.96644246300446,31.48714349827833,34.965859314206114,4.705797079765375,11.925323738848531,27.35509951410254,27.81334076436409,28.592184788447923,73.9107976781379,69.95554544906935,67.08145048057597,400.0000000000001,397.4130280552811,380.9859061759275,361.3496233897386,{}
164,583,15,0,19.45276666666641,9.209620681650131,158.73144563258697,20.593337891157656,36.36136845566581,39.5805756827036,43.88447779753053,50.39369157989231,116.53633158751236,80.19434437508423,75.53554791667466,78.48905681437657,81.6724795783665,29.72373625192165,36.314600418849295,2.982985034405374,11.000494217787832,24.973090385081715,24.97309038508165,24.88964983252947,71.30866991337683,70.94316581825206,68.80981476324474,399.99999999999983,397.3720150969848,386.01645041454526,366.2999913760039,{}
165,584,15,0,19.48613333333308,9.965028064633763,154.02336276092373,18.37460385201221,34.08564032915572,39.48465542415581,41.627108193339,52.01897368233574,114.07672346411084,79.99999999999997,74.9314290858241,79.18036037170577,85.33074709491575,30.587610306650618,31.526600646072097,5.986063413811166,15.070794947712784,29.308026792080483,29.72853646797196,29.35518548616011,63.56964597882586,67.20823354408361,67.03287060006033,400.0000000000002,396.81587595558176,382.5584527153829,362.7324968014884,{}
166,585,15,0,19.51949999999974,11.564625207099404,154.02440429826095,16.51135911749134,30.259022176585667,37.40497256183596,42.36991589970805,55.18305525143696,113.4231578253408,83.17753211401141,77.26822451456906,81.70164723261803,83.41540727488916,27.56918328870825,30.73591380160053,1.7882713484567605,13.18850119486865,25.35711819541676,25.35711819541677,24.19754668380552,60.31690235732282,62.73851980835786,70.41795448446327,400.0,399.440212702163,387.8031142540925,365.1706755028762,{}
167,586,15,0,19.552866666666407,12.115650656307643,150.60355217337417,18.552489726167305,30.01634058824291,39.29141443546079,42.030103250492935,50.30750112466742,110.79077870757482,80.7744858091643,74.50712223538358,76.81673021606446,85.65142603933725,31.289547707424617,29.24711802785077,4.52421923207919,13.228294552588636,27.37023971661361,30.60085828340633,29.19368236762938,67.28143351433312,72.73187085691677,73.28337047710524,399.9999999999999,399.3097492699984,384.69287905937085,368.94987652633927,{}
168,587,15,0,19.58623333333308,8.068058751011053,152.5071604839373,18.45235631537423,32.03865725362887,36.90471263074869,41.26072306622466,52.2390928956771,110.19280729133114,78.15869352301134,74.06008815209816,76.76223251098406,85.08199277386973,29.15471545113792,28.905833733872328,6.257597462683179,11.732995242531048,25.513441949247834,27.67853447306146,27.62587061650516,65.20700992364289,71.4290528552882,79.96368957531662,400.00000000000006,394.1615592542808,381.87645920278857,363.613887451407,{}
169,588,15,0,19.61959999999974,9.500142503206378,146.83791009529943,19.58504549956964,32.495487051287085,35.03479446357133,39.685132572443706,50.00000000000007,111.29772736010148,78.82828754303563,74.05135540040374,78.98888694184893,85.68069439566648,32.49476640334626,28.742242431848013,6.494306192159684,14.138766790444263,28.341649519266248,28.341649519266216,28.585403194649075,63.68834802400585,70.25236054380957,65.16432990292124,400.0,394.64488446899327,383.11025267404574,360.2358333032236,{}
170,589,15,0,19.652966666666405,14.074999646750406,155.98821163554786,20.517661465041765,36.227747649366485,39.43512492930394,45.39050998372538,51.953719839279685,122.64244299233783,86.42095629887585,79.13998896893463,84.3291115211182,90.31656061979152,35.68989266660162,34.903306216383726,4.613857834860141,16.025231411155005,29.27126210325259,31.86363565511844,30.712091847312365,70.11185493583696,75.72362095380925,71.83767307067724,399.9999999999997,398.50522414303134,386.8000945329355,364.4922195286864,{}
171,590,15,0,19.68633333333307,15.5157375633989,150.95814167970445,21.734575386024588,36.791087265806,39.81504435856704,41.87242783642901,50.16367815564982,124.14419601919364,87.3812689333214,79.44578233203958,80.64469782218146,89.28394179526163,34.92722920545293,38.806073438264434,0.9344488379044832,14.016732568568957,28.03222316979195,28.43442769769404,28.38608734012076,68.72606736136049,71.6880938664167,62.68195656809954,400.00000000000017,396.9908101401076,385.9858751465302,365.3400954996618,{}
172,591,15,0,19.719699999999737,23.030249143454853,163.22382491843928,18.62243310691872,36.76248865986583,41.64102633351277,46.55608276729672,55.362947354894814,133.7555338049491,97.00188008684086,85.25771204626744,89.69871935076662,95.35528692018318,37.34538120829586,40.77542750038879,0.6258330076801712,19.497105239264897,25.74860131176061,25.248580872382348,25.424465937004527,58.39503371661351,64.95424504710684,66.41864636981911,399.9999999999997,401.3555585570755,389.6470422295648,372.34595073444353,{}
173,592,15,0,19.753066666666403,20.8861543855412,171.94998674038376,20.297693581733743,38.00540467631844,43.25445870099283,48.08353833265943,51.81936795137843,130.86064238315453,92.91143952858636,82.19014754790692,80.43488229862749,94.87888320515547,36.11000226631995,42.59916470304972,2.3048937616799776,15.330498507174184,29.37292729575729,29.3729272957572,29.25442082132298,68.5085345779346,69.64325150676154,71.71250961401978,400.0,396.39698093578056,384.8320784018673,369.3497893444933,{}
174,593,15,0,19.78643333333307,19.142096986053275,173.9028133192831,20.65558717310353,34.27172867865228,44.639912600309,48.931358315276505,52.73305893917205,126.61802589824713,92.37459406846456,82.4597737523319,82.84812433515287,95.20473378854932,36.657941378409305,36.96391456487424,2.1771169036936726,17.31102143423425,25.544638343965246,27.71237822053933,28.66733393187957,69.50298612548482,74.3985571089255,66.61226709280393,400.0,398.1762918515445,391.0018150534321,371.4020942631304,{}
175,594,15,0,19.81979999999973,21.474844240369293,185.61908187156823,18.66651416308897,30.200822368561308,46.66628540772228,48.865430154776845,53.27993056302374,123.52962257743408,93.33257081544478,82.53888920749682,76.81416886813633,88.10923506579593,29.305422321489687,40.96069564162576,6.046333841571709,13.04464364968851,13.19921874583493,14.316562826912817,14.305368578356706,64.97879198676236,66.03368427401517,57.26625130765106,400.00000000000017,401.5406678361996,394.4856082496456,377.0994606235362,{}
176,595,15,0,19.8531666666664,18.44081782230294,180.2528559545312,15.812870826978632,32.0186230737975,43.42065756966339,47.80615564806577,50.99497613906098,117.16472984695542,85.15491547720907,75.89609097236428,73.10672578460617,85.69690592753261,28.40714865078212,37.67544843374219,1.908179367080038,13.23046624284359,17.030983095441755,16.280346950177478,15.20204027328174,63.82574706897447,64.67523555797356,62.3757125152366,399.9999999999999,399.6435243469844,390.2801041943459,374.96181381287465,{}
177,596,15,0,19.886533333333063,16.511359117491487,178.8423003580636,17.272646515048425,28.0537294213772,44.559318582407975,46.7562157022952,51.16862887174186,112.78645503694445,84.73983179941611,76.45806886592936,72.85370054684427,86.98542210059111,28.886901411335657,32.80949323967343,0.3377065812475166,12.261346642221724,15.21427091725016,14.34415218186242,14.339540988360852,69.69744288364512,68.64535699591232,66.04543646996595,400.0,403.48266870424993,400.6167885702736,385.7083576335473,{}
178,597,15,0,19.91989999999973,14.074999646750385,177.66028571068293,18.351554310064543,29.69124428176296,41.57489015456148,43.72321105878058,50.74813292849652,112.81970469448028,83.1497803091225,76.12197407481096,70.44215119169439,79.18413945527368,24.06516260694343,38.0054235526793,5.2600098874078185,9.087716612986355,20.51766146504165,20.517661465041705,20.49675214342028,68.67646712150815,67.83684113009105,76.12219939274449,400.00000000000006,398.9213463510148,391.8630052330824,372.3695377150092,{}
179,598,15,0,19.9532666666664,17.104382453549114,174.90764992567364,16.350511250688474,27.78043983321012,44.12523733632941,48.48265117876255,51.85098446668035,112.9452098530592,85.22649890741222,76.59517349496514,73.7749536823452,80.48857429822829,25.34454176739576,35.701986211973804,4.355118206214115,9.77093855434316,22.90393337255472,22.903933372554764,22.062604551824503,67.08629076391867,66.38747523512791,60.47312410456372,400.0,398.768596359622,392.2644191449336,377.00619306462266,{}
180,599,15,0,19.986633333333064,18.35155431006449,178.14746569057738,16.201541283138404,28.14999929350088,45.878885775161216,45.87888577516098,49.26249876362674,111.91616287166607,83.77285606543307,74.6097724556331,69.26668764918634,81.88700560830489,26.328594362989065,36.337812054704045,6.576104377165507,9.98504083738692,23.23440984892173,23.23440984892185,24.297738599452828,68.97656539725244,72.74815467239154,71.83767307067727,400.00000000000006,398.9213463510146,391.2052405977674,378.470956569008,{}
181,600,15,0,20.01999999999973,27.82873458925093,181.8043766867948,14.229110075920987,28.45822015184187,44.201946617579,48.56693558264342,51.30378598295394,121.76078216484365,93.33363462387904,79.40437366810056,72.40130704908597,87.39923901381496,28.61702179721658,41.84906822416269,9.022949391683596,14.320606005031436,25.153750562333737,25.651892991477027,25.31505774369145,65.99090064480686,69.64362278460374,68.31454874614275,400.00000000000006,396.2366463509156,389.1407970765637,373.9373851125545,{}
182,601,15,0,20.053366666666395,32.17031004888909,187.71804704901544,18.5281804758198,32.71494891479605,43.62636123743341,50.69174099077775,47.61036231951643,130.8597956591841,98.14484674438803,82.09548543496487,70.87669659100027,91.92894626336864,33.816212072151075,49.41003255500232,12.100899417975713,15.00179996338079,25.120791707289204,26.298961517465024,25.93641895799965,68.94670969752656,75.43525459092268,72.5290811409081,400.0000000000002,400.9895310915949,391.9165554536394,374.0147608083077,{}
183,602,15,0,20.08673333333306,29.027882465419005,189.14209906244395,16.066831504108958,34.2610623848444,45.49741993454284,49.79103976411298,50.9513750350316,130.0790065506555,95.81819415857969,81.37460255551605,70.99432075734273,89.44059201835898,29.26899129976732,49.75728520960445,13.27314721733626,13.06894495245433,26.84869380823804,27.29845196072577,28.639367649714245,72.59390516558585,78.03929889577518,86.71933770043715,400.00000000000017,401.70110123528144,392.6385009008284,373.3855149442294,{}
184,603,15,0,20.120099999999727,36.56085462341461,190.74421184027423,18.52029322214002,29.96424940021922,46.30073305535026,50.67016204398489,47.59009508356812,132.37571200898796,102.42950394631684,84.21654031564742,75.23510481148355,90.75227097664184,35.44491169554749,49.2880760020314,15.012591136834544,16.864678299623392,25.110098047591247,25.60737598657915,25.59679437802714,65.26232778108329,66.01028605836325,71.90437814534741,399.99999999999966,396.9429206062503,390.0399307006703,375.0073559597996,{}
185,604,15,0,20.1534666666664,39.34185312860855,190.8563526749948,16.399961475607412,30.0548727972281,48.62928133415642,53.02244807028122,47.03792309283071,132.7760669968099,102.73929010106283,83.04473303599343,74.68149746686231,94.316403969833,37.46539596334708,48.12570191236057,15.01702341369912,20.07413959886572,25.684822525265734,22.973203662604806,23.17844918201382,66.9771115415731,73.48250982671726,75.5245330271279,400.0,401.17180637581566,393.7666494116053,380.3875990234408,{}
186,605,15,0,20.18683333333306,45.55792631335964,202.820856554352,16.26129832435702,29.800756140997407,48.21811638094204,52.57413849666628,48.78389497307127,140.31232562774343,110.51544817980204,87.70815948556742,75.05147820164257,94.28867309428756,35.892618935153564,55.44202797711728,20.714207983653296,18.91297250681396,24.973090385081647,24.97309038508168,24.809016634334967,58.45609534169535,62.92315932425703,71.51204790612535,400.0000000000002,396.9763168497257,389.8234616121761,376.9530616032073,{}
187,606,15,0,20.220199999999725,45.11886593997383,193.8390326642429,14.109983854439662,28.21996770887944,45.99292034061688,47.69299777699421,51.50627302828493,138.53676233229152,110.38300881748091,87.91545399245581,78.0117178007049,95.5533907602636,35.27825339644619,51.65048149203437,18.99129732218909,20.98909896480552,20.568659273070526,20.56865927307045,20.830736639476072,63.71038165173098,65.01382540636502,70.9017913765716,400.00000000000006,397.3031716973532,390.63255218855113,378.0053877475548,{}
188,607,15,0,20.25356666666639,47.20898399012945,192.90966743083305,16.20154128313832,26.048257745325245,45.87888577516107,50.20850477347376,49.262498763626766,138.19327513088692,112.26962972211008,88.69683179981428,78.54181940258991,101.47719749183284,40.74767092961668,47.967392490300426,15.004623344552217,23.9745804350988,14.92879154312327,14.928791543123303,14.421211501264793,57.94008868649746,57.68484600505906,73.40621724025797,400.0000000000001,399.3494369101802,391.86300523308233,376.78566372610993,{}
189,608,15,0,20.286933333333057,49.89719295020234,207.9102929249667,16.245349045706153,28.226114797809373,50.34426483590055,54.705167003678056,46.59446792998166,140.72423863968683,112.573198450326,87.50095587320891,74.79920421419479,96.67444318249704,39.16373428196039,54.688097420755525,20.816759663384342,21.522412533329543,14.969157885060758,12.01683536252208,11.996098789068924,60.68614681529016,59.274841075399536,62.83877437375126,400.0,401.745227953914,393.04928199962205,378.0679720764789,{}
190,609,15,0,20.32029999999972,39.88934971887204,192.52260765224327,18.025582006957748,27.64998060586762,49.31666849301346,53.58855859290409,49.94247848509908,134.8379590391733,107.19940628185545,87.41462050925315,80.35997990060218,94.69917221835772,37.90508011423526,47.30723406435845,14.841366563482666,19.25807980903608,9.274085431690612,7.881457097819507,7.538663978026705,55.52958105162833,60.44241825079172,69.46971650384353,399.9999999999998,401.7878515791282,399.7132016480672,382.8548950821549,{}
191,610,15,0,20.35366666666639,40.618939853878345,192.62625585855548,17.413343958321587,30.74649768096356,49.70300018864896,51.76842571012245,44.74565735863917,133.16972952742034,102.43271543388695,82.20993873446491,74.18259420331617,88.79180954247909,36.77682381074703,51.573619709400646,16.05468906229737,18.029802012229425,14.16556753887181,14.165567538871754,14.27819082241433,58.38169060385951,61.20643314677898,74.26985431142919,399.99999999999983,393.05018499561305,380.2076327275421,361.39938404068135,{}
192,611,15,0,20.38703333333305,44.764475698866654,199.27295354921912,16.11423834581641,30.106322701815213,49.93795335687349,54.26366016296524,49.741346477936176,140.16643722817923,110.07378651946836,87.87549135139795,80.01998274757432,94.449215334551,37.64784542998007,52.91939362482594,18.09147436032117,18.93378996819036,13.999155701381817,13.999155701381891,14.301054124909797,68.37405390833925,65.4442604896638,83.35083667523585,399.9999999999998,397.6351688817483,390.8247372646523,375.9561816150045,{}
193,612,15,0,20.42039999999972,47.12590928928332,188.6737373050993,14.050231556310148,27.47889100666548,47.95638569634016,54.052320028208186,49.92282755085523,137.9500933459782,110.47539022126332,87.13662962475007,82.36167369576265,98.68242253240749,40.70081482327407,47.3200658994366,16.901828129590513,25.79486774336613,16.918719213924195,18.31926067111037,17.55870037378986,60.07854602715452,63.160792711474414,64.11741234888623,399.9999999999998,399.9876617467853,393.03623628765257,378.0595933688052,{}
194,613,15,0,20.453766666666382,43.87921410134668,185.94867436330307,15.79556341087932,29.510940517295708,46.382621038745775,48.95038114307206,46.83711593357262,135.79193355045365,106.38108567297483,84.24845995763872,77.01700478055182,94.714285253581,39.116380462259485,49.59940985457877,15.856442160701818,20.53595637521641,18.53781810912889,21.3689436421924,19.85352721893304,50.224492022939216,62.14119611333285,69.46389303067495,400.0,396.8096852736067,388.5437213145453,368.52766484377736,{}
195,614,15,0,20.48713333333305,40.28285203857915,191.3523013565608,16.070745708809195,29.45154589254704,45.0240709074261,51.53429575448675,50.96378781919391,136.5255120752239,107.08017147722268,87.02711862361332,83.43332486511315,98.04729018207058,39.80634016890201,45.72833918623121,12.464852770346056,23.544721899542537,20.94205756923112,20.942057569231057,21.98064554617531,54.157636174606864,66.04939226585657,72.81360644011946,400.0,401.5745339948368,394.8502020992584,377.1185915770442,{}
196,615,15,0,20.52049999999972,45.56108917647674,199.704778145034,16.401001884253745,30.05677946936068,46.44371044062348,53.02581179851329,49.20300565276147,140.99679132011974,110.94003924504592,88.23956832069325,81.23792477507595,93.39060911098738,38.12595294326502,53.62622442893303,20.10320381658312,22.61389417890064,23.520453582294927,25.18763842170378,25.40158559058159,64.71216004282724,63.86347597669192,71.59672062630337,399.99999999999983,398.2515314667635,392.0866725137272,377.7406853605861,{}
197,616,15,0,20.553866666666384,38.60051813123757,193.82982226685343,16.278820596099724,30.41381265149105,46.09772228646427,52.630789467763016,48.83646178829906,133.95894893585864,103.58571330062844,84.33268479147296,80.47106997827404,93.17702839589606,37.99330703308601,47.12830981699744,15.238845553161354,21.79943846160677,22.80350850198277,23.34523505985744,23.335779838900866,61.28756413205997,63.36370112840365,66.7083203206319,400.0,400.7056276120913,392.46018906380834,380.03289331319735,{}
198,617,15,0,20.58723333333305,40.80441152620638,196.02295783912643,16.278820596099674,27.658633371878587,45.60701700396558,50.44799302251771,46.69047011971504,131.24404748406684,103.58571330062853,83.25379685194844,81.09013885466607,92.84914970946102,40.30988921023709,44.26091685744825,13.687488634981378,22.153976450433674,25.000000000000007,27.6586333718787,26.57536453183667,62.74608192118592,61.05278435809549,64.0312423743285,400.0,400.0312487793923,393.3764100705582,379.0118731649446,{}
199,618,15,0,20.620599999999715,42.03402534376522,192.8752426468762,16.017417077516548,29.925430978279625,42.71940789724602,47.49495798923633,48.05225123254908,135.55565860798,105.72227889209202,84.79138538199345,79.37539113246305,94.2560573000253,38.76431294008216,48.61372761900952,17.609380210221957,21.06614593888424,24.59855273752761,27.214494065843947,26.144750382706093,62.659797951398446,66.01001953088945,65.63712541755774,399.9999999999997,397.90696767069136,387.0783738517385,374.6869123333824,{}
200,619,15,0,20.65396666666638,34.09834029183897,193.2239283204212,16.227934521197053,29.739613018100737,41.10217181982681,48.11918579670527,48.68380356359127,128.6701502968129,98.93692882134474,81.91185626031688,78.87142056780795,93.34797236606572,37.42674389930721,42.51212746389831,11.699980347307928,21.64286472241633,24.921852331681208,25.41540227082401,25.41492399379337,65.63023317321245,64.73069598607958,68.19668058367795,400.00000000000017,402.0073231816557,393.15910462592944,380.8333036318114,{}
201,620,15,0,20.687333333333047,33.45589223240887,179.38033483488408,16.20154128313822,32.40308256627656,43.21047814943791,45.39050998372518,50.748132928496496,132.27879062730935,99.94736434343906,83.26734080410415,81.02958756699275,96.42243463197462,37.98751991193387,43.27127149066598,9.493864138041316,19.783910020822987,24.88131923853884,25.3740664642483,25.68289294776355,67.28942079033595,70.6189080865231,70.72599790858145,400.00000000000006,399.34943691018015,392.5701346160447,377.0681635005935,{}
202,621,15,0,20.72069999999972,26.65186418611072,169.7104352139248,15.949044456577992,30.982162797563426,40.39579804565107,40.3957980456513,49.42601822481216,122.8785542505264,91.960153144314,78.59557934800637,81.49508363601876,93.1168672166583,37.91933681576791,35.30502967083862,3.648146788605686,21.06893894527002,24.97861820737023,24.978618207370232,24.978516448368623,66.42716790979074,67.40159148199172,71.32629516214945,399.99999999999983,395.82668598240457,385.4260748074711,370.39561117814833,{}
203,622,15,0,20.75406666666638,24.88748293944188,156.72397143006378,16.205554794386664,27.080509218997925,34.556877231799014,38.4267894577915,54.16101843799596,122.24796473057545,95.17306691738058,82.68861120199631,89.16753292964279,92.43749719143044,36.726091149182366,31.357493107441428,2.5866881473842795,23.158179734600708,24.887482939441814,24.88748293944187,24.866370020609168,68.05918153825223,66.10696406852833,61.12398236528772,400.0,396.0285971199058,385.7158423711094,366.5884842086736,{}
204,623,15,0,20.787433333333045,14.064772381713649,147.86417684166793,17.92913720714966,29.249992834122548,33.05969551244418,36.67643917579809,54.10825970044998,115.16807272468463,85.92758702376611,78.7697856599516,83.34813290730267,87.60562563058068,31.52395699018428,29.438402583709035,1.7832107203294072,16.480816034602185,24.86323981738736,25.355628999999126,26.161984270577705,65.97262637288128,63.6032391181875,65.44276774048302,400.0,396.3172350360694,383.1327640987818,366.23138705312607,{}
205,624,15,0,20.82079999999971,3.1512185631742007,156.45411415837867,18.374603852012275,27.561905778018467,34.085640329155765,37.35224316987638,60.53293187792726,104.44281214393718,76.93104929743687,77.3449344519014,77.9608643091625,91.2917818138426,24.87502859176118,19.496314392709,7.946104990209619,8.165644345272995,23.26359225469508,23.26359225469508,24.3322785195212,60.28794622656301,62.06865432874332,72.99000431050459,400.00000000000006,397.6658038401497,385.7508571823432,370.3519806945071,{}
206,625,15,0,20.854166666666377,4.940681914275306,156.50345979081226,18.22033462320224,27.330501934803426,34.935896852699386,37.03864175596024,58.12392578346704,102.35681205634832,75.02682114829403,75.3649568369724,79.41874524948332,88.80459696078594,26.518285951038365,18.12664804017629,9.959891822271402,11.770781244502473,26.880215740024425,25.192633491345813,26.55971152605673,58.51658368307682,61.61758387016545,60.1059896445541,399.9999999999999,398.2385774180906,389.76312823035255,370.2875467785829,{}
207,626,15,0,20.88753333333304,3.1653951311368447,153.6765921488403,18.04552869625307,27.6859001067542,34.74733117111337,39.089746306086965,56.6685299858743,104.91267502233734,77.27714342798762,75.75543240635363,81.20320885877766,84.33718062455421,26.29202270735425,22.02448668587158,7.221471111352912,10.622163878472064,17.04617446087271,18.45726673783608,16.283317131970307,62.5994190151261,57.53171998961528,57.54580396625086,400.00000000000006,398.8900277259939,385.8991871877104,366.81726372835584,{}
208,627,15,0,20.92089999999971,10.123338658193283,159.37427687083792,18.25010830550136,27.999771244633457,39.53290123712388,42.28842215688395,57.7119097901403,113.67927859863536,85.69033940540743,80.64067232875584,81.29578508679151,90.75165791504072,28.4232412660906,27.570358618836508,2.8862043207793704,13.862433172394276,14.316562826912897,16.479601385028943,15.67326372054913,58.96014822320137,59.18263934857197,58.198192615398014,399.9999999999998,398.6719346143634,392.6106907912962,374.5635303531519,{}
209,628,15,0,20.95426666666637,11.884784281276644,151.52597719731503,20.34706475489848,29.44437264860147,34.26106238484428,38.54270793360783,55.56955683537308,116.86415118663338,87.44643935843702,80.87678810283842,80.58155137356471,92.54767676820347,31.891592000917967,29.602001039204765,2.86198870214173,12.731330795000986,20.93695690360852,21.73592723406358,21.58240743383488,66.43428932592508,67.07296469945584,66.3921287810473,400.00000000000006,400.3590473798157,392.2289270342452,372.34703375537055,{}
210,629,15,0,20.98763333333304,13.31136572062012,154.07465819956104,20.17582100850549,31.33276230106673,35.62416474023061,40.35164201701096,55.40523079026456,120.18144518409224,88.8652733936308,81.89105356874882,84.76048774570722,94.27803485117396,34.40959338130267,30.288471867893463,3.4244276185921763,13.945686267439442,18.045802910754723,20.76074854228332,20.44029037166615,65.25305869083002,66.36304557409801,71.24832948046122,400.00000000000017,393.6216997349672,382.8405622956908,365.8973544449639,{}
211,630,15,0,21.020999999999702,15.716152118174096,166.1012154012042,23.20462052125524,33.9992353890412,38.816032359705126,43.1550770826326,54.07818098674169,126.8440502047274,92.84508907484228,84.75391214857882,86.79412078649466,96.3307732668967,37.7997156575243,34.88345201370237,2.2753911898369097,16.221716518760218,21.085430688578747,21.085430688578747,22.1306781357788,67.30924635982865,69.32005717875427,70.63531861266033,399.9999999999999,399.2768788653812,389.874624689703,376.8797505201845,{}
212,631,15,0,21.05436666666637,20.641022635017745,178.7284571853362,22.83170880817472,34.75603841163776,41.82485660906354,45.66341761634965,54.88567166145938,133.07410867086966,98.3558966059891,87.70267831874719,85.30668637215922,99.12025363390558,37.53330171586481,40.52096893532655,4.27060667252465,14.79188182184464,23.374105300450275,23.374105300450218,23.374102364023827,65.23659246259888,64.69764072889211,73.33674128894394,399.9999999999998,395.6912129166497,389.1257061670754,374.3339897795332,{}
213,632,15,0,21.08773333333304,33.72631463737181,177.4580786436537,18.378311255377334,32.450326930080536,39.49262215614967,45.456690285014105,53.58152441929953,137.83733441532976,105.41056427475723,88.54394589121785,81.71938941761721,99.6455360451913,37.10268288301654,46.91882575600357,10.6107830103241,19.141478602324696,25.411062377361617,25.41106237736151,25.39342674166778,61.08211761559926,65.7330995958954,60.009519506425136,400.0,399.1111445446486,391.7058884448183,376.0163593461916,{}
214,633,15,0,21.121099999999704,29.35381485626765,183.81555541424376,20.87256413769683,33.6559983892008,40.56897246966109,44.874664518934544,55.0040360692254,138.74979336338478,105.17139917846188,90.5079903560229,81.26501055222275,100.11702876591404,35.690714093881525,47.95367739793312,10.158126319027817,15.374461455825896,27.21449406584392,25.08570008295896,26.12743300975177,69.27659120273938,71.7474867938543,72.57198417558381,400.0,400.0726040664257,395.4725167208967,378.5428753767163,{}
215,634,15,0,21.15446666666637,36.329662233175895,180.3412243455268,18.403180236077706,32.49423774119531,41.69184712544537,48.176071364735584,55.20954070823268,142.3581278883488,109.89914017713308,91.37850763440156,80.32751564935177,100.38323492784832,35.31550568604814,51.476346148140806,14.748220234650717,16.22478623370546,25.44544786637922,26.12153575787985,26.81653131353744,61.55071180310733,65.41071110772225,76.95367245479675,400.00000000000006,397.00042634914223,390.03940736752594,374.64213793633735,{}
216,635,15,0,21.187833333333035,23.111687012628103,178.885438199983,16.115965660106532,25.240042082951373,38.66057581712268,42.98224285228218,57.47094611870829,121.9343834790898,96.6957939606393,85.12653730460545,77.56116423876892,92.39935920780316,27.52321338104776,36.93165877150807,10.145674320309809,9.853123157670892,25.240042082951422,25.91067232388331,26.932260032517604,67.54421243002031,74.17927279866575,73.5867356047801,400.0000000000002,401.7053997367244,394.6409770483761,381.0455512114124,{}
217,636,15,0,21.2211999999997,6.186419764707186,166.5744499953077,18.03635802466341,20.749882696849586,36.072716049326594,38.19832424183206,58.8929615820509,103.07863775472296,82.3340191907396,79.5969068286098,74.80519574705863,85.09261337711882,21.097154477540244,23.12965751924071,0.7039954669578492,4.178553739362087,27.05453703699522,27.05453703699513,27.336598172593146,62.40579171612558,67.77659584307719,70.60382838803302,399.9999999999999,396.42595229822416,387.3620202454793,376.1526363068165,{}
218,637,15,0,21.254566666666367,6.145397494464456,173.41022498142678,13.741526546379866,23.400976481593528,36.42152662327104,39.16937717882413,53.750275747389125,87.98870168845137,64.59979175918005,65.96356727443492,68.28070761385482,77.31870774373203,19.194222214598767,15.136344605266116,9.533706769653577,6.202097027900322,24.29181651200029,22.68392666014289,23.70745824884216,60.85663607859868,64.31505449564361,59.10454050882986,399.9999999999998,394.75509831218926,388.18900434586544,372.93120767482776,{}
219,638,15,0,21.28793333333304,6.211262495105908,181.0878640760967,15.987215339548545,25.703672170251284,39.58918583324012,41.666415495455176,55.98756352867692,94.45408692769212,68.78114379067685,70.17624378881601,71.54212095775108,83.93831711279222,22.12950572862883,16.7119088904999,8.80359486195971,8.413344242263975,27.16317961141453,25.038399588941903,26.39356764677501,66.60659841454031,68.44307191899094,68.18257625570233,400.0,397.5511269600804,390.67433906862,375.16488227208623,{}
220,639,15,0,21.3212999999997,9.794923015498211,176.36302212296422,15.944979452190116,20.77816945637664,38.25039715366224,40.916525017991,56.86119431422731,103.21915713409167,82.44625898677897,77.58852802745946,78.09474025065163,89.39247668644134,26.932791238476057,19.466160946391028,3.255864980986189,11.815453482236194,24.972251795082027,25.635766823421022,25.621241387478108,54.130193411802566,60.40032208543323,62.33450836913025,399.9999999999999,395.7985257511052,390.87756795531135,375.1915822503181,{}
221,640,15,0,21.354666666666365,7.834222162029669,160.74479938144026,15.81838500667922,29.55357823389034,34.35533686120473,38.50250899076113,55.39631616093097,108.05285964756838,78.52280323895714,74.69390296855943,76.05005258623908,86.37087954676156,26.08386472446045,26.78835803234597,3.0469335566047,11.430403920442131,24.773985727782392,24.77398572778233,26.1190893898546,66.3984942682078,69.7800621460583,72.22795951114178,400.0,397.6027308045406,388.6862666320971,376.1556403951976,{}
222,641,15,0,21.38803333333303,4.351426345763453,172.04650534085266,17.94139044567784,31.15147189433313,37.99719703147226,40.64567634960893,59.74303950445419,109.76036296453516,78.62727593341934,77.87529980484885,75.14966431167909,87.73950444679633,22.129564361211123,28.100004012916315,3.958661073413056,4.607621905120141,24.806946917841664,24.806946917841657,24.07644685633238,62.9492006755861,64.89608317070724,76.52203147966678,399.9999999999998,397.4177001623943,390.4238328160426,374.8546069229521,{}
223,642,15,0,21.421399999999696,6.916627565616474,168.70050228370062,16.657444999530878,25.60086708054684,38.75780873678804,40.33052260967133,61.864197647070256,110.34134780909775,84.93663709920602,81.23085325791772,73.45807377527387,81.66726121066097,16.324016394505293,32.67162240807784,4.31690028929836,1.1794809533600985,20.749882696849777,20.749882696849777,21.04194020794614,73.26935682273643,73.17499834646753,87.54385100284227,400.0,396.90234261958864,391.2635403671428,378.3148699538857,{}
224,643,15,0,21.45476666666636,4.95673985453802,169.9952215711434,20.43716197896884,28.039554909771628,38.71337584245909,41.41177423140032,60.5047207071421,107.52812866969816,79.58616589759055,79.99052440456501,74.10446121765949,84.0106885985033,18.9982442920292,28.452132523063028,2.114685525362802,0.294020447376738,24.78369927269004,25.946059384894955,25.86249089039944,77.38392005378364,79.22720208926046,83.47361839471436,400.00000000000017,403.0106898911984,397.95552574748666,379.9851126704463,{}
225,644,15,0,21.488133333333028,3.088918209917034,167.97013498607996,20.13728302356383,25.565347170878763,33.90782494882914,38.14532599680115,59.97594285835336,108.06800093481918,82.68267263740087,80.99330095375115,73.99344342915799,87.14469089960573,21.01135684570613,27.32772659853765,0.6599192279077215,2.0151104995040896,27.017000233704845,27.628124377243715,27.946400874701112,70.74098437732704,75.26614479726584,81.6082603899496,400.0000000000001,398.0092389438869,388.1849794484914,374.9951795662909,{}
226,645,15,0,21.52149999999969,4.328626632025809,165.97616327584717,19.953982836492084,24.67696855132784,33.107627495635974,37.79810709031114,59.07425697166086,104.47156293747688,79.81593134596876,79.08450991075472,75.27040621266224,86.4452649134762,22.285761394495125,23.49511134754892,3.843174610425649,1.784954017247628,24.19775849606458,23.31036780201091,23.186959676818844,76.34021578651755,76.79372201891255,75.13004603016296,400.00000000000017,400.2809564571288,391.0465583273112,375.294674943514,{}
227,646,15,0,21.55486666666636,3.1008683647300206,169.1181880770411,20.215188501566125,23.61550989693652,36.16202853397896,40.96198988555874,60.20797289396148,106.36023693091322,83.00254861703392,81.38170612888894,77.91642057759441,87.36719935385236,22.786877716088952,23.62694694064509,0.7350605714867697,3.885320163572828,25.00000000000004,25.66425230069729,25.62211134896637,67.41555527064077,72.45597061797866,70.7786364987019,399.9999999999999,398.3740994052239,390.8877962162152,377.4216678790653,{}
228,647,15,0,21.588233333333022,15.67001649074215,170.92533344492736,16.877124266632613,21.82580739929368,36.548444939580286,42.0470664982109,58.29583114417935,111.79653534946809,90.39847671158006,82.14388796007165,78.36017745409174,90.23682432008434,26.678662502812585,27.2625684450934,6.592298088350958,8.787784431327054,25.26714237369056,25.267142373690568,25.24809294422448,67.88490484957288,73.73564239122732,71.53495541713575,399.99999999999983,404.29857257827126,395.06470396533047,378.92290243716576,{}
229,648,15,0,21.62159999999969,3.160056526016906,170.17425192460698,20.6010481049842,21.19830361474519,36.37498227229424,39.023819396134606,59.6238272853472,104.06618391698848,82.91761914687832,81.30531991529017,74.68539780871822,87.69049301099062,21.79644565940441,22.72370425234601,1.8897295375144267,2.124478548385696,22.78749167583541,26.15412150048253,26.13930236052414,67.9715760977976,73.629027259797,63.59491084423614,400.0,402.8111546841299,397.1249460958992,378.8972345774201,{}
230,649,15,0,21.65496666666636,4.397729159182471,168.62581946131598,18.13230183616839,16.746053728687983,33.636160197251584,36.2646036723368,60.8175892413252,96.67505114725154,80.03987885535547,79.41082477658824,72.44904850353646,85.6004322024528,18.354330931153072,17.643445325806283,1.881395524495474,1.5627226669263337,22.42410679816785,20.860261013331105,21.16110340743625,76.38343262968016,71.18661372162757,66.14892230898346,400.00000000000006,401.9173195194791,402.7285158317447,382.9371749660643,{}
231,650,15,0,21.688333333333023,2.25920204391002,177.67442730499366,20.828813681835747,17.205570166722914,36.77714476315361,42.20537717456586,59.81554736454684,98.0868413945818,81.11133154585906,80.70386563196928,70.71424683435373,83.10065330499901,17.306128536338292,21.162613965122887,1.3755999426662129,1.8681728479003823,20.828813681835733,20.82881368183564,21.10254409863103,77.86256094689878,76.1926186584219,75.09935573694439,399.9999999999998,405.4056077258329,402.2712092773344,386.71309848979166,{}
232,651,15,0,21.72169999999969,4.524325320526972,169.556599065248,20.856109215927265,23.617671546163454,35.118208329286894,37.92075622029214,58.16002162039821,103.78865396871367,80.17124893795778,79.4585467935392,71.60346730092567,85.34077889432513,20.472830449546223,25.289967025910187,0.9985270541458248,0.6475296654157319,23.61767154616345,26.477935087619407,25.03579650303664,84.04571956349366,81.75818485763227,80.17124893795778,399.9999999999999,405.1040064735191,403.8831535727989,385.2457032895055,{}
233,652,15,0,21.755066666666355,2.1977690231789087,169.0140108069639,20.849867652627267,29.892890553781825,38.38238589730723,40.52485843212043,53.8789698883193,105.05703751808096,75.17526690818582,74.81437618701159,68.37690103781154,81.07580370223172,21.0787700418656,30.303666062415004,3.297959009890974,1.3731715450435331,20.84986765262727,23.67069679566816,23.590382953313,78.49377173719245,75.99389533467729,72.49307058622131,400.00000000000017,402.4558571832844,396.5374664065817,376.4862371886292,{}
234,653,15,0,21.78843333333302,4.925152335778505,169.88563198910362,18.16306436746003,20.895651690034583,40.193588547672725,40.6138466053448,57.18269424859411,99.60504175003126,78.7100365933184,76.96565039162715,71.04521574611738,85.67217192914177,21.24391255153512,21.24391255153512,5.920434645509772,3.1343477535051534,20.895651690034526,20.895651690034526,20.89565169003447,45.97043371807598,50.14956405608285,61.35719910778949,400.0000000000001,400.1273296429882,393.9752464881023,375.50854944930455,{}
235,654,15,0,21.821799999999687,6.277165068158064,164.70831396794972,18.300923774216606,25.97639259291008,39.32632643340224,40.92210961019044,61.902523581312536,111.6073947313502,85.66663143140062,82.90380692216104,77.1983145593639,84.76559916686335,19.12240808752256,30.61747375320033,1.717653490273733,3.615480423582994,23.17030788780811,23.90273245357341,23.48861119042101,51.60167408542509,57.03090050223415,70.18083899194313,400.0,399.93227070120537,392.6240050712201,376.9566979939959,{}
236,655,15,0,21.85516666666636,16.007733905771783,165.3222907696983,16.00773390577167,21.655977363621528,36.859130122168274,41.07755966702629,59.20534619832164,112.67803963435033,91.21838036783528,83.21494274713177,77.42897475852521,81.71846725688499,20.369030761984504,33.05575010035329,9.112142256402308,8.191234262404237,24.58368192473209,27.813261112818044,26.421577380432662,67.25051798275678,65.00883404999814,64.03093562308713,400.0,397.1615361925677,388.6212823208923,371.97312331974337,{}
237,656,15,0,21.88853333333302,4.870665799157658,159.0255600797365,15.857738945609846,20.6644848928676,33.8151914494882,35.92425589756155,60.24680867103407,99.9377067112472,79.28869472804945,77.66373314746124,75.31563664629914,78.77598938485403,16.84273730908808,22.845390018825697,0.459026383685682,2.883627282129055,29.06118575771241,26.94319192317116,27.994724451198977,67.13555109087213,67.80643580548974,63.43095578243983,400.00000000000006,395.14880430771353,386.38841667474816,367.19781160163126,{}
