,frame_seq,video_id,gap,time_seconds,m1,m3,m4,m5,m6,m7,m8,m9,m10,m11,m12,m13,m14,m15,m16,m17,e1,e2,e3,b1,b2,b3,m_0_16,m_1_15,m_2_14,m_3_13,label_measures
0,0,20,0,0.0,5.363212185231862,142.15041882820364,21.452848740927667,29.49766701877564,42.90569748185545,40.22409138923947,37.63813509571306,93.89451408512048,64.4143887896645,61.7329353468798,66.93707477289138,64.6622114309821,28.18649168160164,28.09300414700249,3.318807478264944,7.494584023687366,18.96181852559916,18.7712426483118,20.146563706086795,60.766897489356666,54.47207015969002,51.02103553844955,400.0,397.1041241201837,383.619661831638,370.1490741291294,{}
1,1,20,0,0.0333333333333333,5.363212185231862,142.15041882820364,21.452848740927667,29.49766701877564,42.90569748185545,40.22409138923947,37.63813509571306,93.89451408512048,64.4143887896645,61.7329353468798,66.93707477289138,64.6622114309821,28.18649168160164,28.09300414700249,3.318807478264944,7.494584023687366,18.96181852559916,18.7712426483118,20.146563706086795,60.766897489356666,54.47207015969002,51.02103553844955,400.0,397.1041241201837,383.619661831638,370.1490741291294,{}
2,2,20,0,0.0666666666666666,2.662882145807515,141.15787302206766,24.11342340775708,26.76163435906916,39.943232187113175,42.60611433292069,37.280350041305546,90.69449781576736,63.96462415319694,62.63432180300356,66.94008704445662,63.75996061384035,28.10161227054448,25.33080904386884,3.2745856315256106,7.588222473054543,18.829420228011024,18.829420228010992,18.569104578771544,59.77693097549434,54.73910692699337,42.68924829359685,400.0,397.2070548526893,383.78774491918153,367.6320736906645,{}
3,3,20,0,0.0999999999999999,2.682389826610664,142.26784705862391,24.141508439495315,26.957684124796486,37.64913532652634,40.32516126576961,37.55345757254841,91.24069248675706,64.3773558386544,62.96647881376339,67.83672711250006,66.51277611866885,29.662806790363675,24.051776387935547,4.665351121120011,6.430619112895101,21.626118163548536,18.77672878627409,18.75597241261028,59.640840007829865,55.57441909820511,45.679452741382285,400.0,397.3197970035907,386.4131279535836,375.5728936252543,{}
4,4,20,0,0.1333333333333332,5.436017076051399,135.9276042691992,21.744068304205467,24.612614120568374,38.05211953235955,38.05211953235943,43.57299158979775,95.28548702350868,70.72047206751664,68.00359298414105,73.16941660265468,71.17531447635918,28.616150591918085,23.08919036785494,3.509305710449212,7.544614737677193,19.02605976617972,19.026059766179824,20.37281503046017,61.70725477434189,57.81326007102467,46.20614514643658,400.0,399.77831145535305,386.1103092769091,372.3770893165824,{}
5,5,20,0,0.1666666666666665,5.359359648371138,142.04830843066622,21.604269425499364,26.796798241855672,37.51551753859805,40.19519736278357,45.5545570111547,99.18435877396024,72.40096194739027,69.71651573150325,76.17318924825713,71.42792316967905,28.308234852370106,25.352167459157386,3.103870762873271,7.740229095385644,18.75775876929903,18.94819775090387,20.07014177496967,61.71957552039129,58.84129937436853,53.660546661574685,400.00000000000006,397.1715816073877,380.97659362020585,367.3605508856479,{}
6,6,20,0,0.1999999999999998,5.432005624844781,138.62261242960898,19.012019686956577,29.99923158690094,38.02403937391316,38.02403937391327,48.96343702246621,103.35095553124232,73.3823550471974,70.66209495933174,77.16244651416105,75.43213710747978,27.334212113652825,27.053621399055828,4.653129350399354,9.32964126034858,21.89711471885294,21.72802249937892,21.69901526216404,62.75878983151768,54.294303274509616,51.88916087331215,399.9999999999999,397.1312527415884,383.30296349718736,369.5361128244708,{}
7,7,20,0,0.2333333333333331,8.089662959078765,137.76199610027737,19.06751845292761,27.10003551851042,37.8479434608248,40.4483147953944,45.84142343478021,99.91816320520566,72.85688570965638,68.8090998106801,73.95999715714515,74.85240186458736,28.627403641371643,25.511815276792504,3.2643224824861363,10.622747263150472,21.57243455754357,18.87588023785061,20.26698059270211,64.80110673865875,56.6598708111153,53.99845817077502,400.0000000000001,394.4442381936564,380.8256513092919,367.08811087923016,{}
8,8,20,0,0.2666666666666664,11.03301662314827,134.03559374042723,18.731297079120825,26.892457981061373,37.46259415824164,40.13849374097314,45.568927870756674,102.00057476397726,75.11608082539924,69.68755440560722,76.9100740498858,76.3322724783435,31.05293040572542,25.36861224244467,2.9748972805082303,13.562720672553382,24.23130131261535,24.083096244583825,24.11931154721799,63.07406885025159,57.60837830863522,61.77793911638592,400.0,391.5966707750392,380.7401725436757,364.4040798453295,{}
9,9,20,0,0.2999999999999997,2.677277815972196,134.29157205054284,18.93121298794337,26.90630905370798,40.24831089475487,37.57738483806194,48.26531222075225,96.7160821041994,69.8148639091297,68.47793671928139,77.35687548650935,78.66880311438479,29.752644417888177,18.694968697224223,9.558329860234949,12.369603348539384,21.58490381617065,21.4182225277785,21.45938762739024,62.50398055663442,58.05279753348577,56.286542749779045,400.0,394.2967663696176,378.1032929904679,364.3557732061969,{}
10,10,20,0,0.333333333333333,3.839326794674833,144.29434399443502,19.00369808194006,27.283543152118806,40.81260365013194,43.521779437030325,46.470130510028206,95.637006235185,68.35727016864764,66.82315715101993,73.34344412616338,74.22012136651881,27.364853859665573,21.760381501679262,6.903833267798859,9.72172439751273,21.887530301063983,21.71851209364585,21.66645179735542,63.46517022144428,58.78433995597516,62.67634847353462,400.0,394.58306396879,383.56777000757705,366.99224933115664,{}
11,11,20,0,0.3666666666666663,2.71050987961907,136.20143579995116,16.48738793374954,24.54471088067648,35.34072505307534,38.04381907852972,48.86441176808993,92.51538431932106,67.97924194138349,66.62375413683628,72.88053897554812,76.96788585510865,26.06469663965902,17.575591582110178,8.331899408334948,10.972954315127822,21.852829278797923,21.85282927879781,23.17211269412371,63.51108228240179,56.02809337982183,54.480574319980526,399.9999999999999,394.3675442290162,380.6409084004863,366.7310852113817,{}
12,12,20,0,0.3999999999999997,5.417662435885557,138.57465535453045,16.252987307656312,24.52950995268116,38.02025793913444,40.72266253832184,49.05901990536253,95.15673357177371,70.63767596520108,67.93707603704422,73.87058221588029,73.46245745225656,24.62875977405781,21.48933851541437,4.191127380289117,9.967662496193045,21.8392954756916,21.67064974354187,21.70909800351956,59.586215489052506,54.46895883746368,51.53902887485363,399.9999999999999,394.12330616597205,380.2025793913441,366.5039628448968,{}
13,13,20,0,0.433333333333333,10.828126721428694,141.18149953235468,18.94922176250037,22.32275510001194,40.695609556454336,40.69560955645434,46.3369184550292,98.05285778709448,75.99000045100973,70.58669110626693,71.58020351459913,70.06627984475949,24.50663940552704,27.203315942428617,1.6558540138869375,7.285757661102593,21.824787139849345,18.949221762500244,18.995011045017577,58.90109277969327,55.06897349041208,51.71776763586151,400.00000000000006,394.0939822785769,383.0712869455377,366.450509619966,{}
14,14,20,0,0.4666666666666663,13.71988681140068,140.32928308912466,16.144147055911493,24.36524488633429,37.76565031733726,40.44995791125908,46.057214074733096,100.1356545954884,75.77055147343347,68.93760362038279,71.11162774269405,69.67786273013041,24.358420811271344,29.71945520607425,4.31687944000123,9.91167986946175,19.02605976617985,21.525529407882,21.561020596541084,61.27786988478477,57.366184904855686,51.40558273817734,400.00000000000006,394.3951208017375,378.0780163211546,361.3649338060008,{}
15,15,20,0,0.4999999999999996,13.52555998562588,141.31459504406257,19.12803037036312,24.49583097576472,40.66675038947514,40.66675038947515,43.36624431129113,100.41760504818411,75.93611237473652,69.1772025772475,69.6730682914773,69.2165569990118,26.107723398421967,30.956188159780822,5.64342408099742,9.138096733665291,22.30692498654541,18.93578397987636,18.976702174734783,60.621551285693386,55.93050421139151,52.033868194537774,400.0,391.37277671607126,380.344903473134,363.7042948418942,{}
16,16,20,0,0.533333333333333,16.154017910681905,143.0996382100635,19.037692680086955,24.380142284932443,40.47468982547103,40.47468982547103,40.74244152015152,100.19687953976272,75.81687910578717,67.77727458727429,69.61036315100773,66.21053222510898,27.190813695380257,32.28272637241753,7.089509188798274,10.301331031237396,21.70630934442484,19.03769268008684,19.020252276687643,60.335248366988765,58.611831768606805,51.43701314077706,400.0,391.9546080931037,378.08876834543673,364.4612004810603,{}
17,17,20,0,0.5666666666666663,16.12227644701378,140.37083428951175,18.80932252151617,27.40260073562016,40.39516002033648,40.3056911175344,40.66238560252063,102.67188634425376,75.42897776001328,67.37900615921512,66.75714177380473,66.38402314255848,25.931744871613205,36.09922757307265,8.270796325958031,9.063673417356426,19.00028500641256,18.809322521516066,20.187272611384515,60.009913192101976,55.50139639787682,48.66447417707721,400.0,391.70090999139467,378.0627037175689,364.1814916285083,{}
18,18,20,0,0.5999999999999996,16.352279864760586,144.85593277754066,19.077659842220548,27.389729793767,40.9714449448407,40.97144494484081,40.9714449448407,103.7077809963668,76.35929135939621,68.05071092571177,70.5264217998224,66.42112908452509,27.53053168235681,35.09868581017599,7.25477300451405,10.529605743052912,21.972715840335308,21.97271584033519,21.96801674369044,60.60790924721459,56.80032859905714,52.06831135981098,400.0,394.3051269294908,380.4810053863672,366.42933968418015,{}
19,19,20,0,0.633333333333333,16.678801402973683,145.7381329717647,19.19384642081248,27.556538460008746,41.22096884072052,43.8716489618569,41.49365738536594,104.77083456740432,77.2148032436212,68.89079376400605,68.51244615523353,64.38215142613285,24.970942178989844,38.32345987192196,10.026211632473178,7.866477365729679,22.610930329969385,19.38871280172794,20.738178305846645,61.26078365375918,54.41899772845511,44.21306772167057,400.00000000000006,396.9812313217207,383.0632654597328,368.8954196612585,{}
20,20,20,0,0.6666666666666663,16.678801402973683,145.7381329717647,19.19384642081248,27.556538460008746,41.22096884072052,43.8716489618569,41.49365738536594,104.77083456740432,77.2148032436212,68.89079376400605,68.51244615523353,64.38215142613285,24.970942178989844,38.32345987192196,10.026211632473178,7.866477365729679,22.610930329969385,19.38871280172794,20.738178305846645,61.26078365375918,54.41899772845511,44.21306772167057,400.00000000000006,396.9812313217207,383.0632654597328,368.8954196612585,{}
21,21,20,0,0.6999999999999996,16.577839207719155,142.13842963319138,19.07765984222064,27.389729793767096,38.25253084755882,43.69116475371028,40.97144494484069,103.8866801822933,76.50506169511776,68.2046978758043,70.1950919191512,67.02314922059043,27.65934033145049,35.256143094503614,7.041712790805036,10.562569186207613,22.47405903402288,21.803039819680656,20.47489011921016,61.345371790166496,56.34956203993329,49.35873068733869,400.0,391.5926255238981,380.4810053863672,369.1456504026272,{}
22,22,20,0,0.733333333333333,13.738000589126726,143.29729037329628,19.42846675303269,27.61303944072176,38.564405379473136,41.30548690052068,41.30548690052056,101.9948245231048,74.38845069416571,67.52516889751405,68.28265026481586,64.5967615496977,25.16087593243799,35.53134248683807,7.153123014932589,7.715377225713382,22.15186033916337,19.23320082477738,20.63941498740951,61.50436339040357,56.86576615146248,47.0313382479153,400.0,394.78529706955504,380.847507549668,363.94035351844127,{}
23,23,20,0,0.7666666666666663,13.832634754888154,144.2843932229702,16.5991617058657,27.80325175980384,38.8300561419326,41.5900195928029,41.5900195928029,99.74854776702858,71.98288350586344,64.99685638718142,64.8716215964547,62.86786494482669,22.291792749360862,35.817150147849475,7.26361786215125,7.514087443604808,19.562299673716257,16.5991617058657,17.90857507392468,60.613638711745466,56.355655827036,47.35531344582435,400.00000000000006,394.4896703033962,383.2214063134735,366.2279851354733,{}
24,24,20,0,0.7999999999999996,13.823710580093106,144.00564780737042,16.58845269611175,25.035804668177708,41.56318763987779,44.23587385629797,41.56318763987779,96.92383056699263,71.93644348586456,64.9815741773067,66.67981058332111,63.28333777129228,23.422845524463128,31.914027554535323,5.927806322880542,8.459139833732138,17.48576445922482,16.81726974925551,18.13588312838056,56.20201238017546,52.16469564134877,36.04782690502738,399.9999999999999,391.48201658587993,380.7422322645238,363.69759573407663,{}
25,25,20,0,0.8333333333333329,16.831022919408237,143.3109961141832,19.6361934059763,28.19161448604812,39.37244401058125,39.37244401058125,39.37244401058125,103.94282824135664,75.79153293647035,67.3258556366145,64.72876489092698,61.30457518164462,23.64675936917456,40.8835017704896,11.521488562875106,5.698711859168043,11.566014213985342,14.303619049965054,12.811762946083036,62.71064341975568,56.09385171099757,50.80379826802012,400.00000000000006,394.41335481609417,382.9853970981137,362.952639610604,{}
26,26,20,0,0.8666666666666663,14.233523557739368,142.44905825498094,19.926932980835023,28.60902828111472,42.79535563040951,42.70057067321799,37.007161250122216,99.67532381829524,71.16761778869662,63.89732309158876,61.7222697043992,57.55273339989981,22.719048210342635,39.95532033524137,10.095530816012117,4.2187827962847,11.73726421065516,11.38681884619154,10.038076575595936,64.89046067592813,58.20935329037218,43.078459195721926,400.0,397.16376970663526,385.57877101155503,370.95741039120537,{}
27,27,20,0,0.8999999999999996,14.256286515004849,145.44207326973202,19.95880112100657,28.51257303000948,39.917602242013245,40.019303304274295,37.175846935150894,99.83472954290674,71.33843492925526,64.20621236545969,64.38406890940826,58.15908987120588,24.09956170504085,38.50594176488096,8.448185837560573,5.424624590433609,14.538616626275797,11.756035026086677,11.471747084687308,62.6055034699217,57.62552023935984,48.5551622414725,400.0000000000001,397.1546582503991,380.28761188161576,362.82739324751657,{}
28,28,20,0,0.9333333333333328,14.25628651500466,139.71160784704657,17.10754381800579,28.512573030009648,39.91760224201329,40.01930330427426,37.06634493901227,96.94274830203236,68.43017527202271,61.25304916050254,62.5635795146344,56.97958061442114,22.73485266515422,37.09370697998804,9.287671640150506,6.438692609429722,17.343521086933347,17.107543818005563,15.669384668965677,61.87982454726125,55.27019319598844,42.76885954501431,400.0,394.3094019629744,377.2397672297741,356.96557185655803,{}
29,29,20,0,0.9666666666666662,11.677587834649987,140.13105401580043,17.51638175197498,29.1939695866252,37.952160462612575,43.88815972569398,38.06427934930788,96.38432277320946,67.20956523584555,61.22229872112087,59.94221162770464,56.66518866855915,20.430190010923297,37.941781448857455,9.233694900509022,3.3282264428823964,20.643253864456508,20.64325386445641,18.93675506860427,56.1872894870171,54.85599890986407,40.97568894653069,400.0000000000001,394.2158906403804,379.62264722406894,356.2142847083296,{}
30,30,20,0,0.9999999999999996,11.848926552078227,142.1871186249401,17.773389828117683,26.660084742176355,38.622775238689336,41.576902321180505,38.50901129425458,94.79141241662686,68.13132767445049,62.202707852609706,60.06251008724325,58.41883820344174,20.734235950869905,35.54440448720561,6.16376956425529,6.129526400009354,20.946140786889824,20.73562146613701,20.734235950869905,61.07268343249609,57.44290802243472,53.3201694843526,400.0,391.11554835098974,379.2697763248738,361.4408177505789,{}
31,31,20,0,1.0333333333333328,11.940298507462677,143.31467324367517,17.91044776119407,26.86567164179105,38.80597014925373,41.79104477611942,38.92061137434409,95.56901846914694,68.72157870579898,62.70286251536538,59.3013233365632,57.14932916221926,19.402657152554298,37.31280221645045,7.341076901190036,4.37340751560248,20.895522388059653,20.895522388059767,20.89516924121233,60.255836881635446,56.14275124196138,47.85438669218315,400.00000000000006,397.0261472995995,382.13619118340927,364.2280368398721,{}
32,32,20,0,1.066666666666666,11.940298507462671,143.3146732436752,17.910447761194064,26.865671641791096,41.89751894811403,41.89751894811404,38.80597014925365,95.52238805970148,68.65671641791039,62.68656716417911,59.70149253731336,56.71641791044772,19.402985074626827,37.31343283582101,10.447761194029908,4.477611940298402,21.10766511004619,21.10766511004621,20.895522388059703,56.71641791044772,53.73134328358208,38.80597014925377,400.0,397.02614729959953,385.0861967485516,364.2280368398721,{}
33,33,20,0,1.0999999999999992,11.851526711546173,136.32475861434216,17.7772900673192,26.66593510097869,41.58602606549072,41.58602606549072,35.5545801346384,91.84933201448246,65.18339691350377,59.25763355773063,59.25763355773063,56.29475187984417,22.221612584149057,34.073139295695,7.407204194716314,7.407204194716428,20.74017174520577,17.7772900673192,19.258730906262485,53.3318702019576,50.36898852407103,35.5545801346384,400.0,394.07440165441415,382.2232203123527,367.4092749672269,{}
34,34,20,0,1.1333333333333324,12.402728125058502,145.76503771620347,21.70477421885232,24.805456250117004,40.42794751197801,43.40954843770487,37.33715593823492,96.17114096632658,71.383061024825,65.11432265655719,62.013640625292624,58.91295859402794,23.25511523448472,35.65784335954311,7.751705078161535,4.651023046896967,21.704774218852435,21.925132906105,21.704774218852435,55.81227656276326,52.71159453149858,43.40954843770476,399.9999999999999,396.8873000018722,390.69824003936776,375.195338299912,{}
35,35,20,0,1.1666666666666656,12.5,143.78396337909177,18.75,25.19455546343297,40.625,40.625,37.62998305872593,93.75,68.82098607982887,62.5,62.5,59.375,23.4375,32.8125,4.6875,7.8125,22.09708691207961,19.008632907181937,20.3125,56.25,53.125,37.5,400.0,393.75,390.625,378.1379130026504,{}
36,36,20,0,1.1999999999999988,12.598034663047898,138.61416654429664,18.897051994572017,28.34557799185785,37.925106475498914,41.06456893808424,37.925106475498914,97.68555395734256,69.36073345430603,63.02205210852162,62.23022735330324,60.66457386003037,23.619772527822647,36.21698454266118,7.65730530330552,7.657305303305634,22.04656066033385,22.046560660333963,22.045121025967774,60.9525101346552,55.60769303693087,44.20546066533913,400.0,400.0,390.5517739797252,377.9541626163914,{}
37,37,20,0,1.233333333333332,9.72893382321448,138.47933515861698,18.459354051844794,27.85942672344876,37.0466762797836,40.11342177775791,36.91870810368959,92.29677025922398,64.68094910769926,60.00091130239173,61.11388251189169,58.85174590721692,23.06474482126316,32.31235926117347,4.515224662930677,7.57363335245077,21.75455737730472,18.459354051844794,18.459034694145544,55.93811396039587,51.75768551495719,36.9187081036897,400.0000000000001,400.00000000000006,393.8115707312779,378.4667801064023,{}
38,38,20,0,1.2666666666666653,12.306236034563083,138.58182388745476,21.53591306048565,27.859426723448745,36.9187081036896,40.11342177775801,33.84214909504874,95.4229382851429,67.68429819009748,61.53118017281588,64.60773918145674,58.45462116417514,27.68903107776714,33.84214909504885,6.153118017281599,9.229677025922342,21.53591306048554,21.754557377304668,21.53591306048554,55.37806215553428,52.30150314689354,39.99526711233045,400.00000000000006,396.88803658284286,387.6586434639922,372.378039951278,{}
39,39,20,0,1.2999999999999985,12.784823645326096,139.6726279634755,21.7054263565891,24.80620155038764,37.33827776369699,40.31007751937989,34.10852713178292,93.07492105304578,68.28749006370613,62.01550387596888,65.11627906976742,58.91472868217056,27.906976744186068,31.00775193798449,3.1007751937984267,9.302325581395394,21.7054263565891,21.7054263565891,21.7054263565891,58.91472868217056,52.71317829457371,40.310077519379774,400.0,396.8992248062015,390.6976744186047,375.2450474320191,{}
40,40,20,0,1.3333333333333317,11.931994984498791,137.25036239125495,20.88099122287294,23.863989968997696,35.92006152987952,41.761982445745765,29.978766376512823,86.55837937091518,62.71395723095971,56.7220537897872,55.41266364138562,54.93982831001836,25.29669022814824,31.37080563878897,4.200960059455156,7.07434399622548,24.04970475410877,18.14487300085391,19.4408065089076,58.41334939813942,52.102816321815,35.79598495349637,400.00000000000006,400.00000000000006,394.0382141768601,376.1536580171544,{}
41,41,20,0,1.366666666666665,15.930061258670456,140.7251743524121,18.74485227938987,24.99313637251994,40.61384660534483,43.84942319850627,34.36556251221488,93.7763159754681,68.80209161537812,60.93879729916466,64.3912651317612,60.60999083891738,28.140352889497308,31.26401426184657,5.8911157460972845,9.014777118446546,25.187638421703863,22.091020265161195,21.893030144798782,61.103200529288415,54.5270713243425,53.11041479160475,400.0000000000001,393.7534585603351,387.5069733110203,371.8910246015933,{}
42,42,20,0,1.399999999999998,15.93394972184153,143.77957564160988,18.74942782160237,24.999237095469606,40.7437716502542,43.86012666438806,34.373951006270794,93.79920639284084,68.8188859261465,60.949630640849136,61.66307275384759,60.20006487655951,26.559914611755403,32.84542993640059,4.4703018472692975,10.68356986933236,22.09641259337105,21.87433245853588,21.87287085673961,57.40048190150196,55.12469187016484,53.123378827873175,400.0,396.8751914740552,387.53857338995374,371.91616749256247,{}
43,43,20,0,1.4333333333333311,12.883132528016551,143.8682444454797,18.74771160065053,28.12156740097573,37.62539039585925,40.74004218633552,37.495423201301165,96.91356057379204,68.81258661850761,62.51138088353821,63.501030922217296,61.43093726332893,24.986393637109245,34.44708483255522,5.701836920096071,8.825136124734854,22.094390007582728,19.006312942212386,20.39223841168132,59.12478029246188,50.37227903295116,43.74466040151805,400.00000000000006,393.81352132416674,384.3788912620461,368.82413474780594,{}
44,44,20,0,1.4666666666666646,12.881167647420734,140.72517435241218,18.744852279389946,24.993136372519817,40.73382868832228,43.84942319850626,37.61965193129391,93.9323066282957,69.01455354656896,62.60722365085383,63.30704644316779,61.90740085853986,25.032122955844443,31.276695564184024,5.544749816025728,8.667036120195576,21.86899432595494,19.00341418017456,20.40252602207533,59.64643491414108,55.985823385114486,53.20222197299099,400.0000000000001,393.8402061406571,384.47261426291504,372.1009250131698,{}
45,45,20,0,1.4999999999999978,15.799050110667377,139.5678299865937,18.59069187935128,24.787589172468564,40.398827738083,43.488799144446816,37.1813837587029,96.101870027471,71.33164464766767,63.53345848602101,62.63709075193003,61.33328313870686,24.82666996845785,34.1162992126732,5.486857038980929,8.583400120385818,21.68914052590992,21.909340491398552,21.730126887053075,59.21459576721929,55.46614887920259,52.76467913722764,400.00000000000006,393.8078254480672,384.4074801098837,369.04071271596274,{}
46,46,20,0,1.533333333333331,12.87841832433564,140.69513833540765,18.740851426632727,24.987801902177043,40.72513456534973,40.72513456534985,37.61162249014876,93.9122579598742,68.99982325887574,62.59436328776326,63.28003230042828,61.90869427509824,25.02691896227373,31.2701157618028,2.417885465713539,8.769345793558045,21.864326664404828,21.864326664404828,21.85118879835148,62.66653897330696,55.84593668942853,56.222554279898176,399.99999999999983,396.87806077175793,387.4242648255395,371.746044970514,{}
47,47,20,0,1.5666666666666642,12.493900951088436,140.69513833540765,18.74085142663277,28.28427124746196,40.72513456534976,40.72513456534987,37.61162249014877,97.02903764513734,68.78740667500972,62.54003989445948,63.29353435101916,61.89418750312245,25.026780164305933,34.39163983869173,5.543566358975454,8.772828315659922,21.86432666440488,22.0863052149694,21.958981305455723,59.63370413344319,52.74461195918275,53.19086662842536,400.0,396.7920140817157,387.36130484059055,371.746044970514,{}
48,48,20,0,1.5999999999999974,12.490474156913102,140.6565488442277,18.7357112353696,28.103566853054453,40.71396458293453,40.71396458293453,37.60130647360748,96.85152643584864,68.76853984667022,62.51629553311602,63.66437097475716,61.45791348535306,25.015487552634227,34.28978447964164,5.65965315371534,8.870676654555496,21.858329774597845,18.99414704683233,20.333492392191488,59.05413052941674,56.52477682205108,53.17627757792283,400.00000000000006,399.89028905579374,390.377276103009,374.8313046117357,{}
49,49,20,0,1.6333333333333306,12.30623603456312,141.65541467708022,18.71397786001165,27.689031077767247,40.11342177775809,43.18156343543882,36.91870810368959,95.42293828514288,67.75418390638085,61.586076420251175,63.01664730109326,60.155505539409205,24.67734769452568,33.83300133191506,5.650754979326166,8.798010917178658,21.754557377304742,21.754557377304625,21.60162030071524,57.65200649793576,53.07417967924084,49.22494413825282,400.00000000000006,396.9238078379589,387.6586434639922,372.31448878775495,{}
50,50,20,0,1.666666666666664,15.38052052484303,135.4883313844149,18.711210788999526,27.684936944717386,39.98935336459174,43.0654574695603,33.83714515465451,95.40882893605642,67.74416569220745,60.02834795825254,63.46844430948079,59.66389330605523,27.73411011842859,33.83205868933953,2.702297908975084,8.906916134187668,21.53272873478015,18.711210788999544,20.045005870851355,60.09057192326202,56.730477812760114,52.29376978446621,400.00000000000006,393.753341284296,384.52531734063,369.18375743816966,{}
51,51,20,0,1.699999999999997,15.149776296267415,142.4401271043449,18.179731555520853,27.269597333281283,36.35946311104171,42.52744864198091,33.46694970437984,93.97747057620164,66.7278427902681,59.11568317871456,59.81074246239564,58.45626796086344,25.770659594941662,34.82425231570949,4.3129319654051415,7.378321626767502,24.239642074027845,21.42501910509977,21.243863234557693,58.67013235584216,56.42455620856515,51.50923940730913,400.00000000000006,393.9058372046395,387.8461087665827,372.696813575951,{}
52,52,20,0,1.7333333333333305,15.151515151515106,136.3973022415381,18.18181818181821,27.272727272727323,39.39393939393932,42.42424242424254,33.47079096117346,93.98825708648982,66.73550165316733,59.12246833606025,59.8532555539615,58.42732927512964,25.77361748988335,34.82824936046484,4.2777788364952585,7.379168492954136,21.427478217774205,21.42747821777402,21.228477476107173,58.64121821695437,53.43658729921879,33.47079096117354,400.0,393.9510487786426,390.956069528526,375.8064484346059,{}
53,53,20,0,1.7666666666666635,15.108205966200828,136.32849861128696,17.77777777777783,26.66666666666663,38.51851851851848,38.632310549348986,35.55555555555554,94.86109981381996,68.21252997464498,60.74074074074076,62.222222222222285,59.25925925925924,25.18518518518522,34.07407407407402,4.444444444444457,7.407407407407391,20.740740740740648,20.951312035156885,20.740740740740648,56.29629629629631,50.37037037037044,38.63231054934899,400.0,399.9999999999999,391.1223342946396,373.3333333333333,{}
54,54,20,0,1.7999999999999967,11.428279894537468,128.56814881354703,19.99948981544071,25.713629762709505,34.28483968361263,39.99897963088131,31.55736931015741,88.6152389746929,62.92043932306839,57.14139947268757,57.14139947268768,57.14139947268768,25.713629762709505,31.42776970997818,2.8570699736343386,8.57120992090313,19.9994898154406,19.9994898154406,19.9994898154406,57.14139947268757,51.427259525418776,34.40367830574589,400.00000000000006,397.143003432323,385.7044464406412,368.56202659883496,{}
55,55,20,0,1.83333333333333,14.813189313952616,133.31870382557227,17.775827176742865,29.77414203146784,38.51429221627643,41.5826039575428,35.55165435348595,97.8119276243108,68.14067084418143,60.72992257783176,63.008052607495074,61.448876161337694,26.679241412027068,35.56654715512434,6.150084870954288,9.112520118653492,23.8855500646853,20.949013229791667,20.71972255115861,58.13995725893688,54.46723051909942,38.51429221627643,400.0,397.0929527201477,385.2454613620093,373.3981642154158,{}
56,56,20,0,1.8666666666666631,14.776275559990244,124.6419319083223,20.285062381934416,32.007976752090165,37.672258709306966,37.67225870930709,31.8765266001829,98.52744585511056,66.71388659939612,59.33852692539665,65.50444864987412,58.965861326664594,30.37224629667025,36.25019914940026,4.895470819708862,10.688726945453936,23.363343051924584,20.285062381934534,20.3187448036008,58.03419732983434,54.849600395214,40.57012476386906,400.0000000000001,397.1028234484108,388.357300634982,371.02871910043945,{}
57,57,20,0,1.8999999999999964,14.47907475876898,121.65869707679552,20.2707046622766,28.958149517537844,37.64559437279932,40.54140932455319,34.87022962422418,98.50028466793664,69.55986215828842,62.31842815966547,62.6695420190232,61.96731430030775,27.498209814578217,36.18185501918185,4.855647762337526,10.730382092079251,23.346806532415783,20.47650389446507,20.21902004740548,60.85402645356362,54.92790960781838,40.54140932455319,400.0,397.1069381607803,388.30924156650434,370.84525809390334,{}
58,58,20,0,1.9333333333333296,14.47907475876898,121.65869707679552,20.2707046622766,28.958149517537844,37.64559437279932,40.54140932455319,34.87022962422418,98.50028466793664,69.55986215828842,62.31842815966547,62.6695420190232,61.96731430030775,27.498209814578217,36.18185501918185,4.855647762337526,10.730382092079251,23.346806532415783,20.47650389446507,20.21902004740548,60.85402645356362,54.92790960781838,40.54140932455319,400.0,397.1069381607803,388.30924156650434,370.84525809390334,{}
59,59,20,0,1.9666666666666628,11.58325980701507,124.55371064075746,20.2707046622766,31.853964469291785,37.64559437279932,40.541409324553314,34.74977942104555,98.457708359629,66.60374389033723,60.761814887461696,63.35243490204334,61.18237008463405,27.5463654147892,36.10886922921827,2.0943648819182954,11.010135061972278,23.3468065324158,20.476503894464983,20.195060568216377,62.66272437868077,56.085241094905086,49.31395165764185,399.9999999999999,396.9907771584208,382.5217002380907,365.0564988867544,{}
60,60,20,0,1.999999999999996,14.370278511270447,123.6178099319416,20.11838991577857,31.614612724795062,34.488668427049134,37.3627241293032,31.61461272479508,97.71789387663917,66.1032811518441,58.81526756522419,63.984627927068914,59.55374761691644,30.209775907726,35.778085263013395,2.3682291312884445,14.014144429237376,20.92344134032324,22.99244561803276,21.602663581107777,60.38559870962706,54.54566450774007,43.20653117993846,399.99999999999983,397.1296081359766,385.6485864291027,371.03157484262886,{}
61,61,20,0,2.033333333333329,16.874649821691204,118.15602545613936,16.87464982169131,28.12441636948552,33.74929964338262,36.56174128033106,33.74929964338262,95.62301565625066,67.49859928676514,58.99521259915366,61.92086980328179,59.14482006981939,26.821294879891298,34.983213557317185,2.202554429244288,10.763426361778444,19.886965531777147,22.49953309558841,21.13621099459681,60.225318469071226,52.41248388986514,45.34925875825184,400.0,391.42479176625295,380.1896844520291,366.00662063901495,{}
62,62,20,0,2.0666666666666624,11.333559613258192,124.70134920170088,19.83372932320173,31.16728893645981,36.83406874308879,42.500848549718,31.16728893645981,93.50186680937954,62.33457787291973,56.58761264886118,60.05318537617302,56.25277470419326,27.029793083309528,35.216580830437806,2.318752766824673,8.128191106811187,20.035092143791864,19.833729323201844,19.80566442710142,57.12335336032959,50.54378774760698,48.25089138885792,400.0,394.49294848249,383.1786667041368,365.9024406673205,{}
63,63,20,0,2.099999999999996,5.704979053851258,131.2455198971904,19.967426688479527,31.377384796182163,34.22987432310769,39.934853376959055,37.08236385003343,94.13215438854638,62.75476959236421,59.83833525747025,60.01951381178685,56.80771216708365,21.37083402052508,35.61805670087517,2.2153195959620007,5.064764132031883,22.997505790396776,19.967426688479414,19.946111752490083,58.20772826862094,53.05237485943064,45.72888584706256,400.00000000000006,394.1496496228343,388.4521033732913,371.2183884786292,{}
64,64,20,0,2.133333333333329,8.50294332496275,130.40926844276623,19.84020109157974,28.343144416542376,34.12966541521642,36.84608774150525,36.84608774150513,93.53237657459,65.18923215804762,60.87345470216746,59.62051270482266,56.46374975047343,21.234926058895667,35.391543431492664,5.028039963370588,2.19671648885128,22.85097356834147,19.840201091579743,21.234926058895667,57.7329637218096,55.51997525896684,48.26663570945507,399.99999999999983,397.1682665098992,385.7271829383806,368.55897524094735,{}
65,65,20,0,2.166666666666662,8.565967322978956,131.37586473319558,17.13193464595803,28.55322440993008,34.26386929191617,39.97451417390191,39.97451417390202,94.22564055276908,65.67241614283901,61.34093496563253,59.67124249695905,57.3044939491308,18.544933826819147,35.66333428234452,4.9604455865442105,2.1073788439567807,23.020345473786687,19.98725708695101,19.971467198112805,58.79586974639244,58.1798666996973,45.685159055888,400.00000000000006,397.1465098908354,388.4917758107776,371.2907422581719,{}
66,66,20,0,2.199999999999996,5.632545941822855,132.3648296328361,19.713910796379874,28.16272970911404,36.6115486218482,39.42782159275964,39.42782159275964,92.9370080400764,64.77427833096236,61.94182675080947,60.67081264345518,57.64612084367548,19.7409406294139,33.75427338264888,3.169490875301108,3.2338460199773635,22.530183767291184,19.713910796379874,19.708763057075885,59.6893966871437,55.81199922040469,50.7710830116219,400.00000000000006,397.1843597809307,385.8705082986252,368.94250816628335,{}
67,67,20,0,2.2333333333333285,24.826995797845463,126.92351483058796,19.30988562054637,33.1026610637941,35.96715793761566,41.47017622373679,35.86121615244354,113.10075863462949,79.99809757083537,67.5834574516864,69.33158200371167,65.83533289966135,31.72284737528139,45.51538971236028,9.76704451544299,15.268023610347882,19.5059300946072,19.3098856205466,20.69683242558176,57.35131557836519,52.972985278339024,44.22300224451422,400.0,394.51195698041096,386.2371183303644,364.1397206241203,{}
68,68,20,0,2.2666666666666617,35.86121615244349,124.16562581823143,19.309885620546424,35.8612161524436,38.71816572219652,44.22300224451426,35.96715793761564,126.92351483058783,91.0741046239506,73.10170984921172,74.48098739353645,71.72243230488698,37.24049369676823,53.79182422866529,15.172052987572217,20.689163164871275,22.240182137572845,19.30988562054653,19.30988562054653,57.9296568616395,55.17110177299003,49.65399159569097,400.0,394.5119569804111,383.5284526650072,361.46546371824826,{}
69,69,20,0,2.299999999999995,35.72165701480905,123.28767123287668,19.178082191780845,35.72165701480905,38.35616438356158,43.83561643835617,35.616438356164394,126.02739726027404,90.4524603792832,72.60273972602738,71.23287671232879,71.23287671232879,35.616438356164394,54.79452054794524,16.43835616438355,19.178082191780845,22.08837739259883,22.08837739259883,21.91780821917814,57.534246575342536,52.05479452054794,52.126842713535474,400.0,394.5585978607055,383.6496963510163,361.6853442347233,{}
70,70,20,0,2.333333333333328,35.1351351351353,121.62162162162154,19.110994086122844,35.23893192001424,40.5405405405405,43.24324324324324,35.13513513513507,124.3243243243243,89.23012983361721,71.63612429554644,69.92339397130536,70.63048447213896,35.1423978914213,54.04528394703493,16.098093735640987,18.80075076104879,21.78988580621225,18.91891891891885,18.91859917785428,57.32146993422987,53.48746810748844,48.64864864864866,400.0,394.6316161825725,381.1673277905889,359.55089265913324,{}
71,71,20,0,2.3666666666666614,27.02455959405281,127.01543009204808,18.917191715836896,37.83438343167391,37.83438343167402,43.23929535048452,32.4294715128633,116.20560625442693,78.37122282275301,64.8578340130473,65.22131602627826,64.47854843402365,32.421015223627364,51.35368704322548,10.943969311412047,13.614771930370466,21.78789649815079,21.6196476752422,21.6192780043491,56.18167639288095,51.91471362886466,48.71921765659483,400.0,394.64185615833736,378.49822886889774,356.816303928156,{}
72,72,20,0,2.3999999999999946,19.04585635845653,130.60015788656025,16.325019735820142,35.370876094276895,38.091712716913285,43.53338596218674,35.37087609427667,106.11262828283024,70.74175218855333,61.21780130074899,65.67643885213306,64.9215372561315,29.928702858144,40.8118675338327,2.8466081015890268,13.71404566069441,21.93608614270692,19.239220263670923,20.39807020862463,56.5704383503645,49.54041723760031,46.33417808544206,399.99999999999983,394.60574100514566,381.07257183064144,359.24317800732376,{}
73,73,20,0,2.433333333333328,19.036610262239886,133.2562718356792,16.317094510491298,32.6341890209826,43.51225202797695,43.51225202797695,35.353704772731184,103.34159856644496,70.70740954546237,61.17990634943942,63.67111127079738,61.36065623332343,27.167493416828734,40.8101803047706,5.83900711851436,11.230068872620336,21.925436941154786,21.756126013988474,21.77643166272276,55.45092089937623,50.68855439356241,43.51225202797684,400.0,394.5641553668794,378.36469310842494,356.4226020845116,{}
74,74,20,0,2.466666666666661,13.59757875874276,133.25627183567912,19.03661026224,35.35370477273115,40.79273627622828,43.512252027976906,32.74730613319555,100.65882631886606,65.32501005092084,58.52374974237807,59.05014136980981,55.20041155724903,24.426142831125503,43.533373247753616,6.104571559917872,8.744386288531018,19.22988029605037,19.03661026224,19.02866450208625,54.33618649728635,49.11940977169377,43.512252027976906,399.9999999999999,391.95006030552497,378.4917250720876,359.34673093432826,{}
75,75,20,0,2.4999999999999942,16.532470401720225,140.55300965915993,19.287882135340105,33.06494080344011,41.33117600430033,46.84199947154045,33.17955099389963,101.98746264039578,68.94037954949624,60.680749411777015,60.680749411777015,57.817410964034366,26.10043123519268,42.729819912467065,7.819116530374117,10.462198174444325,22.21483959913084,22.21483959913068,21.97061616633289,56.71612694567182,53.63253169425661,46.92297100902241,400.0000000000001,394.6399918482497,383.8042270871949,364.225410903472,{}
76,76,20,0,2.5333333333333274,21.87628310286271,139.48811137490063,16.407212327147082,32.9281665019447,43.752566205725415,46.567459651129575,32.9281665019447,104.05616812194764,71.15048786973645,60.220601987557984,61.18350021068807,56.66892821371778,26.01403724128329,45.12993475293001,7.892608386311622,10.765517838929211,19.33608516148873,19.141747715004783,20.48131876247885,57.979101205845495,51.68079971356883,49.22163698144103,400.0,394.7214453196612,380.8963387117859,358.8914922908758,{}
77,77,20,0,2.5666666666666607,13.678111675535426,136.8084702436302,19.149356345749595,35.56309035639212,41.125421342961545,43.76995736171337,32.94125508004864,101.25498751993082,65.7119034598322,58.87946283988549,60.672304967941045,57.08662071183005,25.960669933561803,42.356882523179934,4.983627237017913,7.842697062375123,22.05529236763583,21.88497868085669,21.86161678615736,58.55564553922352,51.13154157282611,46.826311633297294,400.00000000000006,391.8056829235482,378.3178760532479,358.8777852325157,{}
78,78,20,0,2.599999999999994,16.407212327147082,136.8361070908073,19.141747715004897,32.9281665019447,41.0180308178676,46.487101593583226,32.9281665019447,101.32551426054803,68.41805354540371,60.220601987557984,58.31059075807059,56.66892821371778,24.57758251497455,43.83554697757495,9.32906311262036,9.329063112620474,22.046529118753504,21.876283102862818,21.84674001331064,60.56787675655573,54.26957526427907,43.83793714779276,400.0,391.8122613654191,375.2695281647396,356.0045821523038,{}
79,79,20,0,2.633333333333327,16.626623682794705,138.66599721227917,19.59466392390165,33.368510267059946,41.56655920698664,41.56655920698664,33.36851026705994,102.86732009851494,69.49893342330077,61.18117820106443,59.60026920362088,57.22890570745562,25.057407609479924,44.42354282816302,6.639817789262793,9.564499434533332,19.59466392390165,19.39772762992716,19.445180668555395,61.02308730132006,55.64799671001208,44.6827085382185,400.0000000000001,394.4712945537546,378.1008609968786,358.34135082204136,{}
80,80,20,0,2.6666666666666603,22.48534336003062,139.47606663798325,16.733781574851633,33.46756314970338,41.8344539371293,47.41238112874652,33.58356891573818,106.1273026855192,72.72727272727265,61.498540742199566,60.342641817624326,54.47665135685452,23.83353496862378,48.71288324995862,13.910103384855006,11.126510056285952,16.964603258950355,16.733781574851744,16.70155997141444,60.92452290890719,53.54878691399813,44.71048769872282,400.0,397.2193089307939,380.3230211135213,360.46747587923625,{}
81,81,20,0,2.699999999999993,19.244554411216576,140.23727556328996,16.495332352471493,33.10501743848274,43.98755293992365,46.81756464410015,33.10501743848274,101.8697143784356,68.7855139336067,59.1616016960038,59.71680303678875,53.29932871536198,23.408268294568416,45.3550507067763,10.94889702930459,11.128520992499716,11.335332936484669,11.335332936484669,11.153015169299124,65.39945205423555,56.02634706568847,41.32987001907767,400.0,394.52054974272784,377.855544124238,358.45470115616183,{}
82,82,20,0,2.7333333333333267,19.500006839927067,145.09806491855065,16.944844420923832,30.769230769230784,41.78572894270081,44.57144420554749,36.32128328352033,103.40971292076787,72.64256656704043,62.92058788869917,58.68906261568861,56.041313596492046,21.043919351957925,46.04321837369764,13.97784068109604,8.633611065662308,11.485798271612316,11.48579827161242,11.321969732392745,62.47388176582854,55.03419433765657,41.87848317213173,400.00000000000006,394.4517727041251,380.3292068172652,360.23079225413204,{}
83,83,20,0,2.76666666666666,16.47510985141466,140.14607282573613,19.220961493317173,30.32892268444896,41.18777462853676,44.01935050077369,33.40472696224413,99.19329673590138,68.86560883012535,60.656881279157005,58.51166097763894,52.0915451477332,22.004053165209257,43.89151827055355,12.692553450648916,7.220687174312729,14.001151103491422,14.001151103491422,12.544875241486352,63.20627352154088,55.37155589860515,47.0014091610682,399.99999999999983,391.5414988216032,377.8714888299863,355.50031248058,{}
84,84,20,0,2.799999999999993,13.888219141383257,141.9047098159627,19.64090786695392,33.447260864392206,41.66465742414989,44.44230125242648,36.216044652195016,103.11008978882722,69.66295280796093,62.739965865339855,60.21265313545928,54.48611371730135,21.142383531839528,45.743596872246826,11.735588114278698,6.482442621354949,16.89574780115525,16.665862969659962,15.33949025477284,59.75452998200683,54.66936297868244,50.30526928323115,400.00000000000006,391.4014573058903,374.2301706940928,354.0815020548316,{}
85,85,20,0,2.8333333333333264,8.33956942872112,142.20806766345152,19.45899533368275,30.70451835604085,38.91799066736526,44.56448946553025,36.56330333722215,94.88232903548104,64.17797037292569,60.02301587091836,57.61463703064078,54.41382386227178,19.500099642247733,38.86035793247902,7.349439944847063,4.8633714645606005,14.174542417336818,13.899282381201992,15.351472865769438,59.63456767087348,51.83452781397443,50.34534204220424,400.00000000000006,394.4752489673016,380.66782532589775,360.41779936486193,{}
86,86,20,0,2.86666666666666,5.662377761836443,142.26548056564224,19.81832216642744,26.102271754618727,39.73762957762669,39.7376295776268,40.03905713034432,91.30309796831808,65.36307096165844,62.50750553215619,57.24001911090716,53.72836149674095,15.451293502330827,35.81890766449396,6.672149466915471,1.0534972842499428,20.01952856517216,16.987133285509216,18.43620247437196,58.99584791799021,55.13302454240738,51.27501143105331,400.00000000000006,396.4675443232626,382.4201591146704,361.739087709325,{}
87,87,20,0,2.899999999999993,6.375443183417094,143.0147054501828,17.107109213770485,25.818577088478296,37.17490251082523,39.91658816546401,43.1462562796835,91.94794920647276,66.1327398076321,63.12877397889281,60.418314451451465,54.85262307759581,14.493317710532096,34.31103959663096,4.857915592209338,0.4664885833577727,20.16092155259311,17.343080487873575,17.15551979831548,59.96791168131279,52.13412064354475,51.637154176956365,399.99999999999983,396.7964388457929,384.7726535490997,367.1281118397195,{}
88,88,20,0,2.933333333333326,2.848364240206235,143.12853168861042,20.14097669539165,26.260620743145545,37.13812601129256,39.978697232933605,39.9786972329336,89.03131882351164,62.92242268305026,61.47071194018338,57.68664961995546,53.95130913217679,15.899557989283949,33.212049119597054,3.913987206759316,1.0881209247007746,20.140976695391537,19.93854968144424,19.95971069339112,62.039133318758445,55.60785143545252,48.75614219307808,400.0,396.7823527893043,385.1089576788873,367.0855314973803,{}
89,89,20,0,2.9666666666666592,4.028195339078445,140.2945896237408,17.09018544123791,25.79303520876643,39.9786972329337,39.978697232933584,43.1035724213078,89.03131882351161,63.243949675276255,61.63740693311331,61.35201081687308,56.28011412254898,15.713094742705266,30.21121744770278,1.1334302902107538,1.5248306781971903,20.14097669539165,20.14097669539165,20.140811631801853,57.61739878150263,51.15929237972648,54.789380107899326,400.00000000000006,396.7823527893042,384.74010451855423,367.08553149738026,{}
90,90,20,0,2.9999999999999925,4.024014543619607,140.46635354450282,17.072447828320385,22.94041246438328,37.09958098169446,39.93720402275752,43.05883595629992,86.11767191259983,63.17830985512494,61.56473737912336,58.86253050314929,55.8184781790095,14.284256226911909,28.77199188725558,2.645232634613308,2.645232634613308,20.120072718098264,20.12007271809816,18.71196869838764,60.19735558646176,54.48365309569704,48.705539022003954,400.0,397.1867470258218,385.5081539835112,367.4103776276647,{}
91,91,20,0,3.0333333333333257,4.0196437622957975,145.95790894653294,17.28914155045388,22.9154951771136,40.19643762295832,39.893825256707686,43.01206655375834,86.44570775226896,63.55614835671621,61.9135532191267,60.58366782778512,54.82083113197132,14.702621826499126,28.74030095732724,2.881418347906788,0.5171776521884794,20.69238273756156,20.0982188114791,20.09604591360676,56.0029514798307,52.89988556670016,45.83099035422731,400.0,396.7553329747161,385.08942492044525,370.2111544975592,{}
92,92,20,0,3.066666666666659,2.862405173218165,144.5160310988781,17.411330934182782,26.390071749269307,37.32119737981586,40.48052216971946,40.48052216971935,87.05665467091401,60.72078325457908,59.30338675891028,57.325779749648405,55.62123144877853,15.994620706707678,30.57430083356678,1.5969797187763106,1.5969797187763106,20.838624208672783,20.24026108485973,20.23944244625295,56.978250484422574,52.7086052259325,54.68617404900413,400.0,397.17354528177225,387.81100825494855,372.8275870535453,{}
93,93,20,0,3.099999999999992,2.865561847361185,147.51382463277136,17.430532233380873,23.10289820711653,40.22007715193088,40.22007715193066,40.52516428357088,83.88806892998338,60.78774642535644,59.36926856832247,57.69031974000052,55.806621054566,16.224378677589698,27.13345106454028,1.3513490569420128,2.2031084625298263,20.86160514331921,20.26258214178544,20.26204585984692,60.04903809393591,55.42988131747927,51.89753233001628,400.00000000000017,399.5789418466104,390.66342446376296,372.4899745143179,{}
94,94,20,0,3.1333333333333253,4.056786786239401,144.45807048683747,20.08007012464497,26.44701417424597,40.26245924378113,40.26245924378114,37.73029811715056,87.24449868567905,60.85180179359068,59.22704022744142,59.75218993297699,56.27307313380345,20.28390737631412,29.21145237041992,2.8719124521480808,3.282185659597758,20.28393393119689,20.28393393119689,18.86436207853808,57.84852225041027,54.927377013368414,51.95221959413334,400.0,399.5986466179965,387.84239572939725,372.8824875434088,{}
95,95,20,0,3.1666666666666585,4.028195339078372,143.4399579985693,19.9385496814443,25.79303520876644,37.13812601129265,39.978697232933534,40.28195339078315,89.03131882351157,63.2439496752762,61.632702479762656,61.97478191683717,58.87103678045276,20.1409697828816,28.60117829980061,0.4171700452127425,2.803382703830948,23.48821324520564,19.938549681444183,19.94072816117944,57.68627385204809,51.07830033587493,48.75614219307805,399.9999999999999,396.7823527893042,385.10895767888735,367.0855314973805,{}
96,96,20,0,3.199999999999992,6.420785623158031,144.6031629080412,17.228775746801322,26.002199974314703,40.30289850533023,40.30289850533011,40.60861387368544,89.75330500223953,63.75681703652727,60.715134408604285,59.39988643874551,56.73650929978169,17.459916799874804,31.681035473972543,2.367446345745748,3.156595127661035,20.904563449081014,20.30430693684272,20.10685333921549,61.32343659466403,56.868034096767474,49.56913037269978,400.0,397.155565438758,385.01163660272056,370.0623567725117,{}
97,97,20,0,3.233333333333325,2.8890846220854187,145.49058403297343,20.22359235459845,29.03494111085222,40.8578265539685,40.8578265539685,40.8578265539685,90.30411576799102,61.2867398309527,61.0774425582722,60.30007809160748,56.55535463928686,17.570108698164518,31.8635843755485,2.507627311821807,0.4848079469522872,21.032853528212968,23.292544879898937,21.649182458727864,60.95206119268107,54.64955788230236,52.32354789930872,400.0,393.8702956520944,384.8885332872048,372.33340773943263,{}
98,98,20,0,3.266666666666658,4.064738405664594,144.42696809092547,20.119428632763874,26.02702500413523,40.34137681325169,40.341376813251685,40.64738405664628,89.83899500060032,63.81768745848239,62.20336750962088,61.89045673845783,57.196795171012354,18.89816367945184,30.294703344968863,3.697287796110686,4.454861242084348,23.17257419797716,20.3236920283232,20.133337776148096,58.72841105091561,53.14542413384868,46.34514839595455,400.0,396.7859306508925,385.0253589764394,370.09214387873726,{}
99,99,20,0,3.2999999999999914,4.064738405664597,144.42696809092547,20.119428632763817,28.88539361818512,37.47503643829062,40.34137681325177,37.47503643829085,89.516577675005,60.63140170895692,58.96724262586622,59.21018196897603,54.18385073222089,19.284357511684,32.75492522618788,3.736239552654638,1.6586893081292828,23.701294108560525,22.993632723158697,21.36190775620957,58.87509321985885,53.748235358368674,46.34514839595447,399.9999999999999,396.78593065089245,387.8791399119728,369.7906794845193,{}
100,100,20,0,3.3333333333333246,2.8974858918812654,148.48025027028828,20.28240124316884,29.119372827359246,40.66815246909111,40.5648024863377,37.77859399078616,90.00880310488071,60.91615242440815,59.265939320975576,59.0843445208277,54.08223320766467,18.86109628808208,33.223594117956395,3.904288203178453,1.4114868556946476,20.488319225415943,20.282401243168955,20.29734607106957,59.66214615766171,56.756629355296354,52.47570136660889,400.0,396.7757554399498,388.1441646328932,369.9035393146751,{}
101,101,20,0,3.366666666666658,5.71764143763306,143.6539632359452,17.389527549257014,25.887722649770087,37.274461812303,40.12546090401792,40.12546090401793,89.03746528997972,63.153413845485616,60.27690153574281,61.145728237237,57.29338342872472,19.155169824453424,29.777805721968207,3.581861024084901,4.30315111589141,23.574439576769034,23.048549491274603,23.04849702454578,61.83423241577975,55.52294411247226,48.93512827595298,400.0,393.99901650757846,382.32385200671206,370.3800565914456,{}
102,102,20,0,3.399999999999991,8.692457675643796,142.44908213517692,17.38491535128772,29.548674206124687,40.66815246909104,37.778593990786106,40.976638450831736,96.31689397755883,66.89365631445155,62.51441306265565,65.31954698213372,57.98946489492607,20.67951404329574,34.65509196355288,4.984121874787093,6.136230448858328,20.488319225415868,23.179887135050134,21.53942116742144,59.50891243464332,56.52010903234213,49.59696942999371,400.00000000000006,393.8982610613602,382.050847723985,369.90353931467513,{}
103,103,20,0,3.433333333333324,9.09725494789658,144.29978507571,17.260827654353427,28.911528507309622,40.37787683205293,43.24785631065214,40.68416094428585,95.62941628163652,66.72698524721518,62.26220015407114,64.60009217558093,57.44293537326939,20.340504591474883,34.60417793570457,5.080906126169339,5.823629945277048,20.34208047214293,23.19354024972641,23.00755830554408,59.434785615422015,55.7886868670746,43.53395329789064,400.0,396.4775332686579,384.7289241913044,367.2632918729249,{}
104,104,20,0,3.466666666666657,11.662997246940584,140.71322802015172,17.735810661165512,26.88188040586381,40.92449178218566,40.924491782185775,40.924491782185775,96.92399818423212,70.22054221061532,64.36797404393303,64.93968541213928,61.64393752483238,22.43126368197659,33.630080482723656,3.665678772616843,7.297727464751006,23.50752248063316,20.61746110567953,20.4302738932546,60.83681559324714,53.43819788704775,49.90958882141853,400.00000000000017,396.7348134724775,387.695992736928,369.645261776296,{}
105,105,20,0,3.4999999999999907,14.578746558675792,140.71322802015183,20.61746110567955,26.40323298402112,38.0167198520639,43.83332356835185,35.11027110530773,96.61651135119092,70.22054221061535,62.90845362584992,65.34481200612458,61.24500893862796,28.22815226800958,33.23528880126355,3.763753635734588,10.316717555093987,21.22697539902629,20.61746110567955,20.616632638599867,60.27046558651796,53.98634121256828,47.464959948938194,400.0000000000001,393.8420792930736,381.9075117127925,369.3346402848594,{}
106,106,20,0,3.533333333333324,17.718402080496755,140.5751109851907,17.718402080496872,29.27415565329858,40.88432235716592,40.88432235716592,37.97940454987949,102.61470041243057,73.34462961040204,64.46931125056267,66.32306141431684,60.96778316347138,25.74653005214168,38.92875343883805,9.268750818770968,10.916528742108085,21.20614006645248,20.59722404171316,22.03902972463311,56.84833835512882,51.90500458511758,47.4183707289698,399.9999999999999,393.8327123727648,381.5326504869557,366.3875064013597,{}
107,107,20,0,3.566666666666657,20.39021151091968,140.90669206573574,17.718402080496812,29.705738965846773,41.19444808342647,41.194448083426586,35.07580862718838,102.6147004124306,73.05484329505207,62.78128989580648,63.843637050156985,59.73132548492947,26.79856370006587,40.7461537587958,8.430238708716388,9.321239547849018,24.02028451091637,23.484448677622524,21.812385927227524,58.60043980449189,53.01454992839115,46.96889735524528,400.00000000000006,393.8327123727648,382.2880294432285,366.72314805201023,{}
108,108,20,0,3.5999999999999903,17.958573184943194,145.41739655169732,17.714227470323006,29.670963800164586,41.75283455915439,41.43850511080559,38.49421144361187,103.71188950779856,74.04509412690597,64.88900563421282,67.31917905718467,60.41681148777173,25.474630430388743,39.63376586006461,9.712255589724236,11.028599527167216,21.49358709794367,20.66659871537668,20.65647409526059,59.38736302387383,53.31192946644421,48.06112183131449,400.0,396.65192831196725,384.1487690319299,368.4199712601913,{}
109,109,20,0,3.633333333333324,17.828414090807158,141.44792956605448,17.828414090806934,29.455916327817903,38.21521535414604,41.138169542270525,35.29359125808287,100.34036037140336,70.89078470227777,61.960110091399656,66.6695245231009,60.579024984835314,28.402315452391576,36.67166975505097,6.922581869549958,13.579240519823657,21.33780713716424,23.630261567425848,23.62427567378029,59.61827012809465,52.70426642690825,44.83526895516385,400.00000000000006,396.6788297347511,384.2705981693756,369.000100034544,{}
110,110,20,0,3.6666666666666567,20.39021151091956,143.47263978422612,17.718402080496926,26.85549450264714,40.88432235716579,43.7902989801952,37.9794045498794,102.6147004124306,75.95880909975892,65.65990799146573,67.16775556538244,59.73132548492936,25.582004862019403,39.08409450118313,9.646797546762857,10.983298805461686,24.02028451091627,23.484448677622527,22.035136137010568,58.60043980449189,53.01454992839115,41.70619997938654,400.0,396.71985943299694,384.7878996802806,369.6154493809258,{}
111,111,20,0,3.69999999999999,20.57822453593395,138.94772678554347,17.88177902103458,26.62053551885013,38.32960311127445,41.26130643689992,35.39923385901033,100.33970602813136,73.72846367767966,63.42008332164596,65.65215311106112,61.584442915679006,28.26713864587566,36.60939175843896,6.54970285697118,13.168349954542125,20.78714587734048,20.78714587734025,20.786688540808427,60.929472629982,54.65554673540953,41.57429175468084,400.00000000000006,393.80533282854367,382.1331054401158,366.8445396616559,{}
112,112,20,0,3.733333333333323,17.768031188351248,142.91335072445773,18.013119058278765,29.7610839125212,38.61113055293831,38.61113055293831,35.659238005577144,101.07669202439652,71.31847601115419,62.43549238269043,66.0081422906959,62.55572579305601,28.65849217070672,36.71413066519972,6.67295427528893,13.30296804687589,21.558869927893507,20.72936971974304,20.748851388800404,61.71409192049703,56.90475550587439,41.564366972308335,400.0,396.6977971085145,387.52823251318495,371.8691354196724,{}
113,113,20,0,3.766666666666656,15.015800169905978,141.62816310806923,20.61388486730471,29.595282712073946,38.39602508785806,41.2277697346094,35.460577752283456,100.51358629464116,70.92115550456704,63.41463414634143,66.9918699186992,60.16260162601634,28.13008130081312,36.91056910569091,3.4146341463413137,9.593495934959378,23.74206471342296,20.61388486730469,20.65040650406513,59.83739837398389,52.032520325203336,41.646336503628405,400.00000000000006,396.7564973093466,387.6690120097668,369.52764105919744,{}
114,114,20,0,3.7999999999999896,17.65421893911783,144.65571059018876,17.654218939117843,29.570450754361737,38.36380885662367,38.36380885662367,35.4308245116822,100.21350510096414,70.67814854522787,61.70736886370503,64.85411616916713,59.59801077982377,26.81651137786673,37.81283712662446,7.745839521137555,11.35941197631098,23.722143905343486,20.80569654733696,20.626755689100605,59.4078227558673,55.5867724563775,44.52613502646509,400.0,393.8161686878569,384.7197770529736,369.2175884455577,{}
115,115,20,0,3.833333333333323,17.65421893911783,144.65571059018876,17.654218939117843,29.570450754361737,38.36380885662367,38.36380885662367,35.4308245116822,100.21350510096414,70.67814854522787,61.70736886370503,64.85411616916713,59.59801077982377,26.81651137786673,37.81283712662446,7.745839521137555,11.35941197631098,23.722143905343486,20.80569654733696,20.626755689100605,59.4078227558673,55.5867724563775,44.52613502646509,400.0,393.8161686878569,384.7197770529736,369.2175884455577,{}
116,116,20,0,3.866666666666656,17.92686104085533,141.95391758207734,17.682946804082817,29.61856933265485,38.42623644541561,41.26020920952646,35.488479395519306,100.59267395770016,70.97695879103873,62.02405213339989,63.59330438563438,61.3294650709355,26.97741850016257,38.12511209527122,7.614732240351145,11.13054329726981,21.45563265000405,20.839552660879907,20.67468404446663,58.12235937511196,50.97068517640378,41.67910532175982,400.00000000000006,394.1375950620141,385.0414013245134,366.8826772490429,{}
117,117,20,0,3.899999999999989,17.719054629981585,142.02902742391157,17.719054629981464,26.7421439930297,38.3912850316266,41.44979717987942,35.438109259962935,97.4995352850024,70.87621851992598,61.74698801161321,65.68462662332558,61.299919872292094,28.20828009831564,33.81382676826422,6.061212273487513,12.21699665336996,24.352511275167696,20.67223040164501,20.58232933720444,59.098969032557534,53.7341513607048,44.68965869952509,400.0,397.0566515244221,382.1026018531711,370.1025635614813,{}
118,118,20,0,3.9333333333333225,17.860781957190042,145.98450400585705,18.10714920850376,26.79117293578508,38.6983609072451,44.65195489297512,35.72156391438009,98.27939339981644,71.50511753918951,62.55010822682527,65.55142203487355,59.7875352898717,27.06298303052665,35.48712519629862,7.48623160075681,10.692180441172129,23.9997046208378,20.837578950054944,20.77045578524337,57.638867450019006,52.386568285934345,45.04711263900514,400.0,396.8194329713392,387.9098872650903,369.8902350686132,{}
119,119,20,0,3.966666666666656,14.686441402452576,141.1121714019296,17.623729682942994,29.519381882305822,38.29755364589469,41.12203592686718,38.18474764637676,99.91098761503623,70.49491873177233,63.043989366343,65.86480706000918,63.49840680635623,26.56198545585892,35.18734290214502,6.893426825858796,9.997183680287776,20.769764614346204,20.56101796343365,20.611689165876328,58.85134543867525,52.74671869736733,50.02021699658061,400.00000000000006,394.1333052165705,385.1881501646061,367.4546464917317,{}
120,120,20,0,3.999999999999989,14.808316019825574,142.19068110191432,17.769979223790482,29.76434683149952,38.61536376537865,44.42494805947638,38.5016216515461,100.74009339044171,71.07991689516216,63.62369757013096,65.13752933110868,62.3493420199294,25.27329295869561,36.9905218430996,5.157291253500375,11.19551285378418,20.94212135114376,17.769979223790482,19.294940411105586,61.15196096604859,54.37820528980944,50.435306986068966,400.0,397.039645673866,385.1984295954749,367.3537012816035,{}
121,121,20,0,4.033333333333323,17.773389828117566,145.17957396974492,17.773389828117452,26.66008474217618,38.50901129425456,41.47124293227421,35.54677965623513,97.75364405464632,71.09355931247015,62.19762049251312,66.43604619109988,60.97205161581337,28.162551479163312,34.0350690133497,4.77461208214288,10.698194986191652,20.94614078688985,20.735621466137104,22.21343589018329,60.51246328705088,55.048468711764485,44.53210615574146,400.00000000000006,399.9451536381128,388.0975668560463,373.2529410928214,{}
122,122,20,0,4.066666666666656,11.678832116788335,140.17639572739049,17.518248175182503,29.197080291970835,38.06833521286225,40.98005502954227,37.95620437956197,96.35036496350364,67.15328467153282,61.31280784709247,64.64465230713051,60.90062090358265,24.8170888904898,33.57606144007457,4.499707466649397,10.321848043726163,20.43795620437947,20.645453465300488,21.88884414597169,60.72887634378685,56.05742431734177,49.63503649635042,400.0,397.0802919708029,385.40145985401466,367.883211678832,{}
123,123,20,0,4.099999999999989,11.763433953500844,141.19183806132406,20.79500979640147,29.40858488375245,38.34410346155286,41.17201883725329,35.29030186050276,97.09287835380634,67.70364675395095,61.788047300033554,63.908057777400586,62.6086965170789,27.97046081429312,33.81758648574055,1.230973825567844,10.087146626181491,23.5268679070018,20.586009418626645,20.584617860885487,59.975780279058654,54.70994780301805,49.9945943023791,400.00000000000006,399.9675662526327,388.2044599211898,370.5598394248824,{}
124,124,20,0,4.133333333333322,14.37918939173298,141.03338832911666,17.493038889618614,25.882540905118965,40.364308119909126,43.23332316133483,37.3858924185053,94.9462132881601,69.07999638796642,61.896559004009646,63.35024827604445,63.43525934458455,26.03889029381696,31.547607535212137,1.9807578969830504,10.719895742900237,23.00670302677255,20.13086514842591,20.173126564553627,61.633024691535525,53.65898646247888,43.233323161334944,400.00000000000006,394.1576856983497,385.6304508451617,368.2869444353659,{}
125,125,20,0,4.166666666666655,14.773561933875678,139.34338600559667,17.38400321217794,26.076004818266743,37.77661185095999,43.556478755209184,37.66534029305177,95.65590659178967,69.59634779528895,62.30501378460269,64.24672279811955,60.46549998232342,24.71420858432441,33.29860632829377,3.627929998939408,9.521187180315223,20.281337080874057,20.281337080874053,20.319814501101973,58.489725898394,54.640372941772966,43.46000803044445,399.99999999999983,397.1038913491769,388.4156750456863,370.960580602529,{}
126,126,20,0,4.199999999999989,14.754994400019555,139.37868651316234,17.362154854304407,26.04323228145644,37.72913389522719,40.614909336013895,37.61800218432604,95.53568546352476,69.50887853433925,62.21402999290103,66.26246367943816,61.19135676519534,26.15000798777828,31.795840352301752,4.969684775957944,10.750746658194544,23.14953980573921,23.32969458354581,23.19186228780336,59.65312100120855,53.483274255546576,43.501736615327154,400.0,396.8158802119201,385.252527769534,370.67511633137815,{}
127,127,20,0,4.233333333333322,17.859605741487663,144.34752126916385,17.616606585441126,26.424909878161625,38.28207467443879,41.210142708670254,35.35533905932739,97.0691186377184,70.71067811865478,61.80402200933474,66.84142057608653,62.63080316157652,29.397610248268503,32.32970010776546,4.86692822608336,13.663197804573656,23.48880878058805,20.761369963434937,20.6780523230791,61.079523061494,56.66434123818203,47.06928129236002,400.0,396.906138474351,387.9655157089484,370.2399035853599,{}
128,128,20,0,4.266666666666655,17.729688287117277,140.39260437896047,17.48845679785071,26.23268519677601,40.91036471175132,40.91036471175132,35.098151094740096,96.36300155014592,70.19630218948019,61.36097672017263,66.04396933181317,62.66945994989567,29.268703822753537,32.00618847441103,4.6141250732340495,13.515254412271474,23.31794239713413,20.610343990413483,21.994570078569154,61.3093260663677,55.5933203786301,43.818192373743,400.0000000000001,396.92975578890247,388.1973473390442,370.7342020419635,{}
129,129,20,0,4.299999999999988,14.462030521243811,139.31672665834992,20.452399702596413,26.19185124987208,40.59685425206485,40.59685425206496,34.70887325098505,95.6245381038868,69.47797883130781,62.2495264477476,65.58447327357976,62.13976870411261,29.212445613618115,31.762202427292323,4.59293942595616,10.536743388958255,23.13924883399007,20.452399702596622,21.74047614308301,57.88454541241799,55.23347375846538,43.77004676104487,400.0,396.9346598408944,385.2224550429025,370.6345027658959,{}
130,130,20,0,4.3333333333333215,14.848145788491491,140.2586135277113,20.59067345614272,26.20764869406544,41.181346912285214,43.77637224424024,34.94353159208706,96.27103259876306,70.1293067638556,62.75829458583303,65.65587098143692,62.95259271148586,29.431942164092447,31.96626554217164,4.511095612980853,13.415018414632186,23.29568772805824,23.476979860934883,23.43404350263836,61.71922200082077,57.799468509391545,49.58890837263393,400.0,393.9873501981623,385.27125413851184,370.7464971931423,{}
131,131,20,0,4.366666666666655,17.362154854304418,139.37868651316234,17.601644165499625,26.20349983895118,38.06058214105584,40.61490933601363,34.84467162829054,95.88563420105076,69.6893432565812,61.02360063001561,65.024318015718,63.20120629565099,29.27107150551797,31.75252912449764,4.355211331270766,13.420127939381018,23.149539805739227,20.46149572248252,20.408722866303947,59.04856293327657,54.13628968754085,46.659389167091526,400.0,394.0631220894881,382.3617976140521,370.79933911060976,{}
132,132,20,0,4.399999999999988,14.748435166799371,139.31672665834995,20.24684272974113,26.03165493823872,40.59685425206476,43.77004676104488,34.829181664587495,95.6245381038868,69.65836332917497,62.33419205187806,65.56130281205708,62.16434411713192,29.04399684161081,31.76156379755093,4.585894238149081,10.53057195426834,23.13924883399004,23.31932352520542,23.26916706023792,57.91814574847547,58.0879936832215,46.63864705041097,400.00000000000006,394.0472086113276,385.22245504290254,367.7452940653212,{}
133,133,20,0,4.433333333333321,14.733036117790135,142.05087222550273,20.22570271590592,26.16450396885718,40.55446650440395,43.43699762701088,34.79281602515962,95.7429378529225,69.58563205031923,62.271600752115205,64.32710272499332,63.53522901413066,29.139267722073328,31.801311260719103,4.119428134169993,10.319630806458347,23.115088818178144,23.294975490870865,23.1580939485342,59.74434422808474,56.37466886271022,46.589950981741616,400.0,394.0173522634321,385.1671973221944,370.75451375592,{}
134,134,20,0,4.466666666666654,14.733036117790135,142.05087222550273,20.22570271590592,26.16450396885718,40.55446650440395,43.43699762701088,34.79281602515962,95.7429378529225,69.58563205031923,62.271600752115205,64.32710272499332,63.53522901413066,29.139267722073328,31.801311260719103,4.119428134169993,10.319630806458347,23.115088818178144,23.294975490870865,23.1580939485342,59.74434422808474,56.37466886271022,46.589950981741616,400.0,394.0173522634321,385.1671973221944,370.75451375592,{}
135,135,20,0,4.499999999999988,17.71276705371993,140.25861352771133,17.4717657960437,26.207648694065384,37.967325866901575,41.18134691228522,35.425534107439844,96.49098041252267,70.4309395828049,61.509563402008325,65.46157818401537,63.57001555331124,29.25166496767679,31.95389729725412,4.391127535563442,13.308494223169305,23.29568772805815,20.590673456142657,20.43563199242999,59.38155544246604,57.42243700352219,49.8447427879022,400.0,396.8929088974449,385.2712541385119,367.8418783446151,{}
136,136,20,0,4.533333333333321,17.099291997098316,137.26849454229713,17.33515544242959,25.80677910386609,40.000000000000064,40.30341774879017,34.317123635574326,94.43392662312598,68.63424727114854,60.108392189323695,63.387031763286814,62.51272787689675,28.633452279277776,31.47493991004592,4.371519431950901,12.677406352657272,22.799055996131088,20.15170887439508,21.529733202357647,58.79693635973842,55.2997208141777,45.9529664646751,400.0,397.1574123093818,385.5880866790784,368.1756367447279,{}
137,137,20,0,4.566666666666654,17.851432118478016,144.54983459180755,17.608544173368543,26.57535820195971,38.26455450904731,41.50373663937285,35.33915834307682,97.2463636909729,70.67831668615352,61.7862785285862,65.33721407620601,61.60659263340551,28.13367730258836,33.76383535158584,5.647270991395544,11.944833793921248,23.47805889782484,20.751868319686366,20.706660301783472,60.23755724155217,54.111123863007606,47.77438859279411,400.0,396.88728044213786,388.0987760298393,373.4529193245615,{}
138,138,20,0,4.599999999999987,17.471765796043485,143.16072012066795,17.712767053720125,26.368928054418408,40.87131981606832,44.06596551613204,35.06465338192776,96.49098041252267,70.12930676385564,61.407601152050006,65.28650622892269,63.54015935448649,29.35206092802389,32.05554022402612,4.298699998612278,13.215144136358504,23.295687728058173,23.47697986093505,23.44134842993219,59.3422101370918,57.26002732526399,46.95395972186998,400.0,393.9873501981624,382.1775432944064,367.6458835357009,{}
139,139,20,0,4.63333333333332,17.48056897750155,143.2328519138469,17.72169166410649,26.38221408750888,40.89191290602656,41.20209620996847,37.98645577414625,99.44141071231957,73.0684065957395,64.34661637825013,68.14176750364106,66.56900217239797,29.36968303343076,32.070736537087555,4.273818834899771,13.197552562170245,23.488808780588137,23.48880878058825,21.89904771002625,62.19261168546075,57.16660073561866,46.977617561176274,400.00000000000006,394.0027871557157,388.0222586521926,370.56698975921256,{}
140,140,20,0,4.666666666666654,17.47176579604353,143.16072012066795,17.71276705372011,26.36892805441848,40.87131981606824,41.18134691228526,37.96732586690148,99.3913322060616,73.03160948444803,64.32029197328609,67.73327473110817,66.9352140862444,29.366933729619404,32.04977589745977,4.151613354664391,13.083100571651698,20.590673456142746,23.47697986093504,21.887237685735386,59.99038847455654,56.59438573045463,44.065965516131975,400.0,396.8929088974447,385.08413039505206,370.38037292440737,{}
141,141,20,0,4.699999999999987,17.71276705371989,143.4270108294675,17.4717657960437,26.20764869406544,40.87131981606825,43.77637224424024,37.96732586690152,99.17781674526796,73.03160948444803,64.21130665593193,68.5618951216344,63.138443092545,27.88600490346425,33.326352421740694,5.871182492549906,11.869081154003991,23.295687728058,20.590673456142728,21.88810624201028,58.62734747956404,57.985318890450685,46.68228554345149,399.99999999999983,396.8929088974447,385.084130395052,367.4728601281092,{}
142,142,20,0,4.73333333333332,17.345822538833,142.39313336529364,17.585086566069148,26.17885060448599,40.57670350743516,40.88449580822405,37.6936426717926,98.67488097481998,72.50516934753348,63.84953548909607,67.67245935766584,63.11177825130187,27.69943083718136,33.266144540537425,5.700851382955079,11.669978125107832,23.307748694053057,23.1277633851104,21.730304095028487,58.95351018373469,56.8073073101516,46.34578154242419,400.00000000000006,394.031951035837,388.07980361530167,367.880956053715,{}
143,143,20,0,4.766666666666653,31.53736993699754,143.8096752914198,17.439484741538223,28.670336306361097,40.24073461459312,43.38609156373125,34.52365662388316,111.96124242244632,83.3414671944453,67.61661830878552,69.48569556284951,69.04591267954038,34.74284778142476,42.658939680989874,12.533812174311493,18.690772540639955,20.0692354144528,20.27298922112693,20.23001263222204,59.15079780508404,55.632534738610616,49.075710681407095,400.00000000000017,394.0476721698289,382.18751978911934,364.8349580593153,{}
144,144,20,0,4.7999999999999865,29.037970949231525,145.1898547461583,20.225702715906007,28.8938610227229,40.55446650440384,43.72434583836512,32.30431868961984,110.13830453457182,81.36585140012548,66.81319429467851,72.93950240819174,69.5501203260269,39.11346922818473,38.89315939284393,8.541242847055855,20.285451761757827,20.431045063828968,20.43104506382908,21.82762060914308,59.56839009405076,56.11122037024222,49.45832336488191,400.0,397.11981590799377,385.3730561182844,364.9901985396355,{}
145,145,20,0,4.83333333333332,20.08110291724556,146.75448518502463,20.28497720927032,25.97744584489049,40.569954418540846,43.12645310850871,37.40364983920827,103.63221429620307,77.6678904282836,67.65858495199336,68.91993068189629,69.49174074611904,31.802730336619334,34.42632945481739,3.952216620362492,12.764818786617752,22.949831905423444,20.2849772092703,21.6783286112651,59.93914908498744,55.364668571205925,49.104730528029904,400.0,396.9226340355655,388.3394521414184,370.9655936327442,{}
146,146,20,0,4.866666666666653,8.606186964533773,147.00661677621906,20.28497720927036,25.977445844890507,40.56995441854084,40.56995441854072,37.40364983920832,92.2018600998028,66.22975163819808,61.935592050154696,66.4785450122688,63.33212944221202,27.501691172501523,27.282956400251464,0.2103218963942481,8.589546248737975,20.081102917245484,20.284977209270355,20.24137930897484,59.14251726604016,55.49132914463735,51.95489168978101,400.0,394.0614619036454,385.4786194764235,365.4562571601989,{}
147,147,20,0,4.899999999999986,5.740559105660335,143.97248992036472,20.29594135707288,25.991486804997844,37.42386672882865,40.28629330361377,37.42386672882877,89.39434864717697,63.40654776251981,60.53108210534208,64.24121560130345,62.953680689462885,26.174229457809474,25.767639485649283,1.4230649025605544,7.369443245402749,20.091956869811217,20.29594135707287,21.67632789078777,55.78753243014012,53.41575759253942,49.13127191961047,400.0000000000001,396.94004913264575,385.302290285609,367.944762053154,{}
148,148,20,0,4.933333333333319,4.093906341782233,145.20388070636665,20.2638025507182,28.94828935816862,37.743951522055056,40.93906341782283,40.63086031362842,92.81527641254208,63.94886135819459,62.38568296293806,65.51791366465204,62.31050942609693,23.28709119034295,28.900048607814483,1.1693661286398085,4.944748201105767,20.26380255071808,20.469531708911525,20.3135601775158,57.69986583317405,55.17737604139347,46.40763820627111,400.0,396.9717244899426,388.17702348385006,367.9280886337687,{}
149,149,20,0,4.966666666666653,5.750041272416903,144.210301452774,23.17915740079029,26.03441914096104,37.485682893155634,40.352837579891336,37.48568289315552,92.40407566422272,66.37500561240648,63.45391992055704,65.73743067015187,61.17040917096245,25.98358443857057,28.855272199424576,0.9687621361916854,4.913007976400877,8.625061908625522,11.8540137589183,10.120104458431342,59.26748354630024,55.87681606962906,43.221037318060745,400.00000000000006,397.1276734333191,385.42437005566313,368.1822863765265,{}
150,150,20,0,4.999999999999986,9.094197876961292,147.1181519939957,20.13086514842597,31.63421666181205,37.82574157816576,43.23332316133492,40.67048930743967,101.02339967614184,69.55723865264999,64.92173253022679,69.48934849480395,63.22812211639473,25.917371484398814,34.53938813663444,2.104182635367124,8.057479847625018,8.627513635039652,8.62751363503965,10.059019427608291,58.09596934720685,56.96689573798562,43.23332316133492,400.0000000000001,397.032307448998,385.5339292818726,368.286944435366,{}
151,151,20,0,5.033333333333319,17.13193464595792,142.88028929864217,23.02034547378652,31.408546850923013,42.92490851126693,42.92490851126693,34.3826352261653,105.80115949420625,74.45769969980256,65.83368363288037,66.1544940942872,65.51287317147376,31.49007950123677,39.94934482569749,4.997889293493813,10.704938554307889,11.421289763971911,9.029322367729518,10.037990489804317,60.41367531121978,56.58083453546601,45.77430091441951,400.00000000000006,397.0541203945541,388.41831806560987,368.4361856956186,{}
152,152,20,0,5.066666666666652,25.69790196893695,142.88028929864228,19.987257086951026,31.408546850922995,42.924908511266864,42.9249085112671,34.38263522616524,111.3941758817855,79.99999999999997,67.14797641078121,69.85489459005782,67.42687101107026,34.32044140028199,42.75290166784657,8.038726714215159,16.73367601734583,11.42128976397208,11.421289763971968,11.418273047130242,59.32252203796338,57.71477669512058,45.77430091441951,400.0,394.1999880431866,382.6558214727779,365.525884137529,{}
153,153,20,0,5.099999999999985,25.70379650898925,142.91306293086225,19.99184172921389,31.41575128876472,39.9836834584278,42.93475455211366,34.390521855225096,111.41972728407984,80.0183502608405,67.16355245153113,69.8619775223815,67.45237470682093,34.328588057300635,42.76219791176243,8.037510761492968,13.879972382783649,11.4239095595507,11.423909559550816,11.42085718060207,62.2700782404786,57.71493867133677,45.784800543939134,400.00000000000006,397.0733061293051,385.5992560896617,365.60972782900274,{}
154,154,20,0,5.133333333333319,25.529346807220072,144.77749482323537,20.057749162942752,34.039129076293435,42.643359655467485,45.38550543505794,31.20253498660239,110.6635301133967,76.64055193994591,63.86312906250214,66.88067427769386,63.73121451757584,34.108154522537006,45.35386947751397,8.08801053580089,13.859271876331832,11.346376358764516,14.18297044845556,14.180813579589994,58.45463272051893,55.041343870547735,48.305456716653424,399.99999999999983,394.2967819109045,380.11419217755474,363.1283625582584,{}
155,155,20,0,5.166666666666652,25.327271643358948,139.87442944063469,19.578504812218306,30.766221847771497,42.047066498210825,44.8381869923502,33.56315110665979,109.11609327217182,78.36394849796726,65.73489172999803,66.73260966867178,64.75352982310574,32.18049253017443,43.35166223696445,9.658236766997788,15.268355668064942,13.984646294441486,13.984646294441486,12.58596645589273,59.30697123985385,55.36516758050345,50.34472665998969,400.0,391.61005033826376,380.3926618979852,358.0178704759171,{}
156,156,20,0,5.199999999999985,22.377075240802185,142.7635040649729,19.57994083570181,30.768478456102844,42.05015052201615,44.84147573631213,33.5656128612031,106.29110739380994,75.5226289377071,64.33297829962783,69.51581414729606,64.76076792514971,33.57325887989532,39.15097745881451,5.470771172538775,16.675568671783253,17.01430435155178,13.985672025501408,15.383973071650187,59.298223476178805,55.36584961080519,47.5512848867044,400.00000000000006,394.39595111913707,377.6131446885353,360.8303382579338,{}
157,157,20,0,5.233333333333318,22.54680882802048,142.65337477890225,19.57611214172012,30.889317988320155,42.04192796610599,42.04192796610599,30.762461936988604,103.47373560623453,72.76503432255664,61.50376738832222,65.15414073181648,60.64978096392679,32.141704737785176,40.56435515878309,10.038526694609004,15.631300532806677,19.77485949239796,16.77952469290302,16.778321514592676,60.38186365431261,54.2700000287374,47.54198662989151,400.0,391.6121228285834,377.6325136661927,360.8031362371791,{}
158,158,20,0,5.266666666666652,19.987257086950915,142.76612204964988,17.368248355991845,34.38263522616547,42.82983661489508,42.82983661489508,34.382635226165256,105.6855087114235,71.38306102482483,61.37302970693906,67.37090477038112,64.07083595968413,31.40015473378287,39.963833297541896,3.316569154750596,14.800808615976509,17.131934645958008,17.131934645957895,18.554636888144387,60.55626267629168,56.54667907129465,45.68515905588799,400.0,394.1999880431866,382.7836361469896,368.4361856956187,{}
159,159,20,0,5.299999999999985,20.04162961708686,138.99704580234206,17.24046168477755,28.484507609771736,42.60908903089086,45.43751706488423,34.01177329985092,99.2414874042715,70.85786104135617,60.93740961145977,62.7669392302796,61.93909777379997,28.37840512811897,36.87205847159919,6.6558453100956285,12.318280872415698,17.005886649925518,17.005886649925404,16.987306686960324,57.650879029235966,55.4653775841299,45.43751706488412,400.00000000000006,394.2245093849048,380.0624382207839,362.9693499572447,{}
160,160,20,0,5.333333333333318,19.949173996614743,137.06125200810922,20.15170887439519,28.640959630010894,39.89834799322937,42.74822999274575,31.348701994680248,99.90858766054536,71.3040248470651,61.3290291909143,64.29776999378294,64.04829597673506,32.88899124746649,35.732995041811364,2.702635184684368,16.922654156408043,22.799055996131003,17.09929199709837,18.486024663241096,62.03587223921636,54.751230941421,48.531741667063365,400.0,394.31492992199895,379.9011359504558,362.4843773983481,{}
161,161,20,0,5.366666666666651,17.266923753889788,136.72820165614152,19.870653453128103,31.225312569201336,39.84255880769814,42.57997168527447,31.73723705609672,99.71757054755474,68.65814132838747,60.02023312040251,63.99654294622701,61.971645950735365,31.35324380116253,36.72575276500754,4.768305828093389,13.521086389251307,20.072391147592512,19.87065345312809,19.91420875808205,58.36275695070572,52.09210819047314,48.59011416119768,400.00000000000006,394.043073272296,379.6283011826484,364.9423475049414,{}
162,162,20,0,5.399999999999984,17.19337108416715,133.33333333333337,20.26258214178541,32.03795542214763,37.6905814930204,40.2200771519307,28.798540150609465,98.10103561957472,66.15663251451635,57.46269763662565,66.13662410563904,63.87314234134408,36.27353440517868,32.96918146460223,1.3630455879879264,16.546547349936873,20.8616051433193,20.05893293152839,20.016117937542163,60.94878998893387,57.28095822489388,52.291596700142456,400.00000000000006,393.5012232862045,381.378184994548,363.6103286921864,{}
163,163,20,0,5.433333333333318,14.626576655678482,131.1068060786864,20.079553788098305,32.070890877179515,37.729327924730335,40.56682470504086,32.070890877179515,98.57821873804303,66.53453950608832,59.09792694064754,65.37337570441207,63.446269391130045,32.34079697546304,34.070251359177746,0.172945438371471,13.069733842643243,23.654320338171605,20.283412352520315,21.6675927788242,62.01329290176648,56.1825609795286,41.766102315735615,400.0,398.4851748296449,389.5260222181391,371.1919879256978,{}
164,164,20,0,5.466666666666651,16.994371546483528,129.98194820514794,20.02805893753696,31.66714167735432,40.05611787507392,42.86191786666787,32.29427467050756,100.57994686811864,68.91515097927739,60.54486838107709,68.55547133459879,68.1067446131359,36.10588156955532,32.20029714200837,1.7201190989408133,17.857661563400256,20.028058937537075,20.02805893753696,19.99326836739931,60.19585870882827,53.6477724771114,48.89472305924761,399.9999999999999,396.0596129468661,383.83919951855336,368.3529760459299,{}
165,165,20,0,5.499999999999984,20.309017123712344,131.80536466887824,20.30901712371245,32.11137557514643,37.77695555226891,40.61803424742469,29.2900810375285,101.99090534022125,69.88190846084503,59.68658999581783,67.15665888005276,65.82535947494159,37.20242226505127,35.427356391569674,1.849026951543351,17.67669765675396,20.90941288327148,23.68418037599136,23.66754497975421,60.352239698373296,52.21652111158278,44.587428395015024,400.0,398.8020833326319,389.22378349726495,369.7133712789599,{}
166,166,20,0,5.533333333333317,23.15584223237442,134.62289700040938,20.30901712371241,32.111375575146376,37.77695555226902,40.61803424742473,32.111375575146376,107.65694850091158,75.55391110453782,63.89579486418518,70.10373753639726,67.90795027132356,36.9086006467536,38.52315010636664,4.391574530147409,17.42098866922447,23.68418037599144,23.155842232374404,23.37060342789846,60.14196737058501,52.40827545903858,45.41234284482815,400.0,398.2328463051021,388.1626479800229,369.7133712789601,{}
167,167,20,0,5.56666666666665,26.0478791869128,129.7939141643734,20.339976409200474,32.16032650358344,38.37739073417476,40.67995281840096,29.334731154040224,107.82106191827292,75.66908630427208,62.5140050092358,68.08273311845676,67.3111623563359,38.37725877679941,39.87008046872927,6.726084252402416,19.238949220712016,20.941287418552964,20.339976409200588,21.98976672044762,58.80711069556787,54.3621921746535,47.440569593734736,400.00000000000006,398.2897710046311,389.2754788821317,373.1152321602266,{}
168,168,20,0,5.599999999999984,25.88856344661624,125.81224955823936,18.19262796468568,32.16032650358338,37.83454315213599,37.83454315213599,31.77205883158155,107.3981572109696,75.28539415104119,62.23793365356221,69.65232267198883,65.12772892800467,35.883000750647625,39.61496493364177,9.065700603822052,19.369884896691133,20.94128741855295,20.33997640920056,20.59185546988374,61.95721068404509,54.0969675375618,50.9718347840504,400.00000000000017,396.0188705795425,383.0941548882484,367.4392952914252,{}
169,169,20,0,5.633333333333317,9.096313982342927,134.30546644962,20.33997640920059,28.90853807199882,34.63773169461037,37.83454315213599,37.83454315213599,96.00813604315974,67.15273322480995,62.519568404768165,68.64893785621598,61.14358750750432,27.169368262336206,30.821972098709352,3.25231848444173,10.807704502144702,23.72028479686733,23.720284796867443,22.31590837016938,58.29155437499389,54.889128883578,47.440569593734665,400.00000000000017,395.4648003758995,385.9239180430004,372.6603419535165,{}
170,170,20,0,5.66666666666665,9.032775043542872,133.367325260803,20.197899022825585,26.334838377928943,34.395782623966355,37.24308559697053,40.39579804565109,95.807047293327,69.49955884209112,64.89136462910926,67.79348290411417,61.0937355721029,24.17879111404068,31.276543238052795,3.150871270005382,7.827427576013179,20.79500979640141,20.1978990228256,20.13240906203396,58.47353735809838,53.962816382090864,47.882228458393264,400.0,395.5076650402093,383.2281891733077,370.05726089161226,{}
171,171,20,0,5.699999999999983,2.876507049623993,137.14032065464167,20.339976409200474,29.33473115404025,34.99421859918326,37.834543152136085,43.52945040655693,96.00813604315972,66.72008340759717,65.03052418979416,71.71059858011733,64.32911637881034,24.66617468626771,27.73900890581615,2.755530686008342,8.199791314121512,21.90682502735464,20.33997640920058,21.99414493013841,61.690486994632806,54.34240516527757,53.04016925145017,400.00000000000006,395.4648003758994,385.9239180430003,373.1152321602266,{}
172,172,20,0,5.7333333333333165,6.477616002337932,138.11152314316115,20.48402037534235,29.542474316378232,35.24204120908456,38.10248041731051,40.96804075068457,97.16424003506826,67.62829651143142,64.43407035596124,68.73077888927014,62.587893086350505,24.79507140127248,31.45124415807481,2.7568476716606938,8.038736003551094,21.08958975849665,20.48402037534235,20.43213229326897,60.899013431639446,53.81234193932244,47.77653496866067,400.0,401.110385794688,391.5074541389809,381.0248041731059,{}
173,173,20,0,5.76666666666665,20.33997640920056,139.97687439673336,17.49710929959169,29.33473115404019,40.679952818401006,43.5294504065569,43.5294504065569,110.6614357112463,81.35990563680214,70.96632820938851,72.25330385844131,64.41520700227397,24.97563066033001,42.09655832708552,11.57447777277264,9.116769436516734,20.94128741855293,20.94128741855293,21.99482899574945,61.19361634528991,54.21903863429361,50.2360359303328,400.00000000000006,395.46480037589953,388.7543673213109,372.6603419535164,{}
174,174,20,0,5.799999999999983,23.35537663919544,147.1716636580106,23.35537663919521,38.10248041731048,43.83771795585931,46.71075327839065,38.1024804173107,122.9041222520538,84.80483391434547,72.89684276847811,76.03894806022288,70.06894800590783,35.03447400295386,49.48815834497964,10.840263256519393,13.353947489915186,23.888267484330427,23.35537663919521,23.565789688085488,60.32842160149903,54.35842154718409,51.33280792856664,400.00000000000006,398.8234032711071,386.89320576830215,373.8880854347795,{}
175,175,20,0,5.833333333333316,19.964888596073305,147.7060342393441,23.51924128151427,38.0521195323596,43.1605124361208,45.98916507931698,37.51387290630115,118.62928223799224,80.67033206809947,70.70024310856218,72.45600290594177,66.42212416565167,31.999340532521728,49.062358281702586,10.32024068694409,10.584016806738193,23.519241281514155,20.167583017024867,20.41792027281189,61.88847210669053,56.61294971080849,56.035403493319485,400.0,396.0247841626279,380.3715227210997,370.4253051641911,{}
176,176,20,0,5.866666666666649,17.40019651751837,148.66734421493803,20.2273175883994,34.80039303503675,43.2883500014106,46.56678212155572,38.16482649621528,110.53076988741216,75.73773275616345,67.0257529091491,72.57492293413088,69.50027169065959,32.87574952578052,39.43610164420306,3.9542974548386383,14.16477030080523,20.825298063443995,20.2273175883994,20.174315913044552,59.40489274150764,53.25559025456505,52.74639098923651,400.0000000000001,396.6308269512694,386.6011392288776,371.04862592468027,{}
177,177,20,0,5.899999999999983,17.254328242438554,152.49166805353013,17.254328242438547,34.50865648487711,42.925457723763046,42.925457723763046,34.50865648487711,103.52596945463132,69.0173129697542,60.32973991103836,66.07542942637531,59.72233844798848,28.42474684515992,40.52352733888392,5.228577458956693,12.550227527071796,17.94019624159184,20.057749162942784,20.30690837277666,58.77019561401824,52.38427212411512,49.53898605189176,400.0,398.337000672928,386.1520452643695,370.2923431717388,{}
178,178,20,0,5.933333333333316,20.05774916294268,152.9921170528462,17.254328242438596,28.92769723095399,42.925457723763024,43.39154584643093,31.71408604561742,97.93441227355868,69.01731296975416,58.93454623798766,63.55527407232785,59.485790962084366,29.823960881644663,36.341619090082304,6.671682469582379,14.016207764165074,20.650716684234915,20.057749162942795,20.30688285091605,57.83205678979425,52.692510391598375,52.99195075060979,400.0,395.5497983148834,383.87408882000295,368.4079469670595,{}
179,179,20,0,5.966666666666649,14.36414763320292,151.93752468563667,17.135392161179425,28.72829526640584,43.09244289960876,43.09244289960876,32.11921054668454,92.27691082283184,63.55534452176337,56.37244755512563,60.55723063475227,56.14448271810329,26.27294746683856,33.92605270973547,3.9161102359930737,11.227268223356193,17.81653239284529,17.135392161179425,17.11364597932902,58.37528148039439,52.56217813632179,49.19750808834693,400.0,397.85158581671055,388.557699198699,373.3084389033984,{}
180,180,20,0,5.999999999999982,17.25432824243854,152.9921170528462,17.254328242438532,28.927697230954017,46.17640629003844,46.17640629003867,31.71408604561748,95.14225813685232,66.22095579324181,57.54254711688168,60.97755598452272,56.53417935860034,27.061967236476107,36.32583363369463,6.714253610019341,11.91185652668878,20.65071668423482,20.057749162942773,20.003392928507083,58.173801729789375,52.92701014198428,49.5389860518918,400.0,395.54979831488345,383.3602079401742,370.2923431717388,{}
181,181,20,0,6.033333333333316,25.7233461787582,147.11261758041596,20.08655870549797,35.13712726342326,42.9871128372529,42.98711283725292,34.55822229604784,115.35352332702294,80.3462348219915,67.34305396351476,71.4657648680577,65.63682311391176,34.03481536839536,46.705008088891645,10.865996463260784,18.229729603652345,20.68037792370288,20.086558705497964,20.033925860888075,58.99150296282664,53.48911256745646,52.37933673005036,399.9999999999999,396.6574076603712,383.91083962545855,368.4665539391567,{}
182,182,20,0,6.066666666666649,34.64394228359138,141.87221108360018,22.95900840417969,34.64394228359127,43.5616556256933,45.91801680835938,31.838416167337883,124.06364960605192,89.4200495472007,71.99158300674094,73.73318359044458,69.27338396488562,39.68245068289264,52.3945072798324,13.656101773152956,18.24611452646536,20.73167459408215,20.136382436223258,20.386492813914288,62.04655537456381,53.50131886573763,55.94871302907456,400.0,395.99618074512256,380.89179640373385,367.5427644919159,{}
183,183,20,0,6.099999999999982,34.637731694610466,138.22207526402295,23.19114124886657,35.58042719530109,40.679952818401,44.00209673106017,32.79722648105734,125.81224955823936,90.32415350970729,73.00448519034194,74.96954597696276,73.54941801352254,41.49746014099287,51.47138211678271,14.680159994167411,22.804612994314084,20.94128741855295,20.33997640920056,21.995470317470108,61.32971228159465,54.09696753756168,53.7375863756581,400.00000000000006,396.0188705795426,386.4488463757923,370.2769663431861,{}
184,184,20,0,6.133333333333315,40.18400301563626,129.18407250959368,20.244408254472862,35.41325120143218,40.99180245918026,43.32492562403149,32.64312746186855,128.03687993289597,92.72734578180108,72.63881598038745,77.25250739420835,76.82332679757383,44.420191751669904,50.85790070118708,14.377549987255406,25.96542609638675,21.80389497465009,20.842893981119733,21.888210428359,61.58741561704949,55.14970666753209,53.48509827704287,400.0000000000001,393.1378601065794,383.5233551355462,364.4105953004291,{}
185,185,20,0,6.166666666666648,37.00979664682927,120.4951679823735,17.26605421221705,35.110575943093075,34.53210842443432,40.64144760673948,32.36412831035552,121.36133184568406,86.33027106108545,67.84986399135585,70.21671971198464,73.63551130844826,39.579087328290825,49.30949417976467,13.28069043241669,23.537065221807552,20.66475082548609,20.071380325930186,20.315511602063,60.3548208760318,51.93933386935191,50.29873492863907,400.00000000000006,393.1736988379964,383.0216832371133,364.0839955370521,{}
186,186,20,0,6.1999999999999815,31.299740840180853,119.58942727803156,17.237000265943433,29.585170417921542,35.05149465129598,37.806879008672674,35.05149465129598,112.81723708586742,83.39111338577361,67.70281807091249,70.70294294850089,70.18625477513854,35.39313987532819,42.27675973335033,11.325471412896375,19.559147465833576,21.58116191405964,20.629977822177505,20.275843964368505,59.2524663323718,52.785530485125605,47.50222870027358,400.0,395.2744706552895,385.1496800402821,366.7921917376362,{}
187,187,20,0,6.233333333333315,25.74672986275549,124.1950639301254,20.10481829498121,29.684408478354168,35.16906849979229,37.93369529165588,29.684408478354168,104.8539038278431,75.27905509378056,62.38512748630865,63.28877916684121,66.3728014159982,35.16780209925855,39.95964312079843,6.317271381337832,16.71341089865757,21.65355198719355,20.699177321687586,20.336308003178143,61.18302203972871,56.656473254675575,50.38253023890382,400.00000000000006,395.1402440266932,384.87995377744096,371.3681580475648,{}
188,188,20,0,6.266666666666648,20.10481829498132,121.46372187451166,20.10481829498117,29.68440847835413,35.16906849979235,37.93369529165588,29.68440847835413,99.3104764647254,69.70314697676162,59.62651448290194,62.73717833566173,66.2080243187412,34.806691320881214,34.80669132088133,3.9620034335151786,16.404658844554547,20.699177321687657,20.1048182949813,20.333918448040663,60.90352385403503,54.878659128689605,55.86101241621856,400.0,395.8250187046014,388.2885358409143,371.9445721521364,{}
189,189,20,0,6.299999999999981,17.23051572112821,123.73330105257888,20.03006766919417,32.29751365298107,35.03830830887024,38.528604439821535,26.8731557413434,96.18604506786524,63.90815877706714,55.26155659279391,58.89449981687335,59.38433485832218,32.29645706619783,36.98254562939224,3.837041158016405,14.319511045022978,20.62221684209642,20.62221684209642,20.62205524499882,59.54761320547175,53.70224837751482,51.0668529519025,400.0,395.0546855991478,384.7441802714608,368.3899203292628,{}
190,190,20,0,6.333333333333314,11.600295811314885,123.69738834207354,22.683041202301823,32.07866450416302,34.80088743394454,37.53657165546654,26.691062242653903,92.80236649051862,60.73479384420336,54.89257364321975,57.58628461793194,61.08482387167408,32.67767063530391,33.43322371357681,0.4681144071909102,12.06421165198833,21.426863360223184,19.894343188750685,21.45934992964294,58.63748890074646,55.812377390682514,52.56023723847046,400.0,395.10185607439,384.8719959579371,371.3906763541039,{}
191,191,20,0,6.366666666666648,11.621877240314388,122.37916913769288,22.72524119885053,32.138344311614226,34.86563172094305,37.60640546567648,26.740718844009503,92.97501792251464,60.84778610426873,55.006933943268,60.04414000653389,58.86932836877543,32.75793272133478,33.49822498622359,0.3620994773913253,11.981469374126164,20.520585964018714,20.520585964018828,20.51897038550817,56.66454488421493,55.32880014539376,49.22681558186461,400.0,398.5673021324365,385.5880197378274,369.3275247504386,{}
192,192,20,0,6.399999999999981,11.63401557809429,125.96759263756864,23.268031156188243,31.54715407031676,37.64568304904696,40.40006936993488,26.014449683910065,92.42831617298484,60.91133788386655,55.06623782424288,57.32204229343199,58.25717578247759,31.802741552895668,34.52611276660798,2.0753401116542136,10.983717033615449,17.845765256206327,20.54201845712821,20.540125057635123,59.553237986593786,52.564345594778615,49.27822997069386,400.00000000000006,394.9723847478148,388.0582069413328,373.7079652778381,{}
193,193,20,0,6.433333333333314,11.642999263355597,128.0729918969115,19.967579004807497,31.571514507275133,37.67475271684097,40.43126595079919,26.789318400508325,89.74310596657148,58.21499631677785,52.389311444983264,57.65440454276245,56.0356336835074,30.11077310422501,32.84142697791788,0.220741480807419,12.582264406028344,21.5057407480735,20.557880824443583,20.553484546299728,61.05545846927839,55.365233630684656,47.33621940523309,400.00000000000006,399.2916728657576,389.0348552694257,373.3670318112706,{}
194,194,20,0,6.466666666666647,12.500915627938824,126.77802212751486,19.765683110940483,31.25228906984721,36.76629586718949,40.022457923679184,25.77129777546316,88.835696781253,57.62637369432483,51.50870293419405,56.19727360229706,54.93496611473074,29.81176839141699,33.221637968219056,0.1721328392135319,12.4017612252444,20.350016279419723,19.76568311094037,18.639527446269422,60.70551462931917,59.24648389693755,48.254182035332455,400.00000000000006,399.3450711018626,389.910351916464,376.6179629324901,{}
195,195,20,0,6.4999999999999805,8.821407302045408,128.01682686926358,19.725266384586604,31.8060363492772,36.69111641041253,39.94062029019955,25.71860081153201,85.93517802527828,54.16372817605414,49.77371838659246,56.54176987100789,53.89978350841682,29.50218104893372,30.7090143256728,0.4403310604317312,11.334447666671622,17.642814604090816,16.968315741927633,18.306356123509204,58.75973373096088,55.612182076762906,48.155512231723606,399.9999999999999,394.5546377760055,381.876266612367,366.5504382389452,{}
196,196,20,0,6.533333333333314,11.544176275484912,128.4895098446849,22.573305919324028,31.30354305725304,39.59619795762794,42.369782063884976,25.81356289622485,91.15729335225022,59.8544699234628,54.0578784561302,56.144897230742345,53.49315572888224,29.005468773432995,36.28957351619715,3.1755422923511105,11.376298418473992,19.79809897881397,17.030968708486228,17.00715691625112,56.24310987895933,53.08393636131109,48.33331925413858,400.00000000000006,398.7437401498264,386.605727118803,373.9378228334478,{}
197,197,20,0,6.566666666666647,11.423909559550768,129.36552113205434,19.59184326258945,30.977424135403464,36.442935057340165,41.92837555535019,30.977424135403464,92.93227240621036,61.95484827080693,56.23293463853111,60.59879493178141,56.73983227557517,27.69950313395509,34.240117805491195,3.89166572956401,9.320375906938809,19.591843262589457,19.591843262589343,19.55643786789267,59.32337507083196,56.41280154199831,42.383637278472015,400.0,396.7045905892784,386.8880615025392,372.2347103499226,{}
198,198,20,0,6.59999999999998,14.18825419071714,138.1499551708897,19.675568459210485,30.73422043636557,42.107555300733225,44.86719926409507,28.37650838143428,92.87201790971176,62.21961058967508,55.12669373164727,57.03436103913111,54.97995009261001,27.636718685342203,36.832653398340994,3.668590975930442,9.147020166653078,20.25723756697015,19.67556845921048,19.663647630986816,58.79528470757771,54.686462814535616,45.89091727575696,400.0,396.7347979179826,385.2795843194843,366.8741760073201,{}
199,199,20,0,6.633333333333313,11.159381239926502,134.95471180172265,19.72718537149501,31.191418799139463,39.4543707429898,41.940571394767495,33.93993303376891,95.8749327203565,64.70997934825085,59.14569981046429,62.18635767800061,55.12418456630349,24.717605890940376,37.17449457407293,6.669830161047457,8.925802127283987,20.310380430760127,19.72718537149502,19.71523327015484,59.43995702345183,54.82992735331607,48.16019707580839,400.0,399.50351052333065,385.28157660646673,366.94685932398784,{}
200,200,20,0,6.666666666666647,14.194093756175093,139.62922063845485,19.48583566475044,30.746869948393044,41.75536213875104,44.53905294800106,31.12260938912282,95.29822274943992,64.56722676845267,57.48348660711349,62.48945855299746,54.86285623673973,27.585582846038847,36.60769111803745,5.744291957351607,10.888191817466009,20.26557498912068,19.683666479473946,21.06240384362264,62.91135570240738,55.56060921460994,47.64911137471991,400.0,394.4991773500576,380.3177773630632,362.5750600321309,{}
201,201,20,0,6.69999999999998,13.960096255195555,140.0469731533073,19.74255745613129,28.059446204718054,41.9732528949936,44.75947357856715,30.83886059466365,92.51658178399096,64.45876983410542,57.49025463060264,58.73000219346136,52.79866091233362,24.9408039116272,36.70625137091338,5.49378331776586,7.924660891998542,22.50997884008867,19.54413475727377,20.954164689885715,61.16087976769416,54.15995235390403,47.79167133470723,400.00000000000006,397.6153032196396,386.1676536946728,365.7012351943255,{}
202,202,20,0,6.733333333333313,14.151323359437916,138.87610996160114,19.427119910405853,30.654221847802752,38.95323167506085,41.721950198759934,30.65422184780276,94.72690403292418,64.07284161701595,57.01577847380042,60.03540683260644,50.944052634050536,24.83887843534012,39.22269954234105,7.857527557323351,7.565305458083912,19.62435461081741,22.202422754749502,22.0790030536358,59.3535552677148,54.97022377912538,44.75041372136986,400.00000000000006,394.49346035314335,380.3785166316436,363.1831330853688,{}
203,203,20,0,6.766666666666646,11.058968464074471,141.11022752397147,19.353194812130305,30.537574790847973,38.70638962426072,44.23587385629801,30.537574790847973,91.40389637274356,60.88712917786695,55.33433277537756,58.28527980906733,52.15513569488303,24.68361220445536,36.161328843779415,4.6954295342688965,6.994233577088039,19.549678984688093,19.35319481213042,19.401253978402792,61.57860191296447,55.285422051062255,44.58012709383703,400.0,391.7455192880776,375.2418164212688,360.9444688758608,{}
204,204,20,0,6.799999999999979,8.425462306902608,140.4524538481422,19.65941204943972,28.22494941160488,42.12731153451338,42.12731153451361,33.818667079539395,90.04695732253579,61.85051990821045,57.61377423898864,58.820429661475146,50.357752965103145,20.77056200573429,35.4434919431701,6.0010996344994965,5.775857288968723,22.64274958894132,19.65941204943961,19.708705233946148,56.95413594136278,55.924456647507554,45.28549917788241,399.9999999999999,394.6299627413276,383.2016184781057,366.1819609073624,{}
205,205,20,0,6.833333333333313,11.161553276585831,142.30980427646747,19.53271823402481,30.69427151061064,41.85582478719625,44.64621310634264,33.60072485655894,94.91422910277744,64.23956331547768,58.6639887903018,62.28820556070752,54.89480334907978,25.00709571579989,36.298544409375495,3.873885036811544,9.447125048191085,22.4968298467999,22.32310655317132,20.899650042673443,56.52167398823974,55.5230009226168,44.733327751337775,400.00000000000006,391.64966403801134,377.73448645192246,360.8350818581484,{}
206,206,20,0,6.866666666666646,11.24976654779421,140.62208184742747,19.687091458639863,30.936858006434065,42.28026867512386,44.99906619117683,33.866281968649375,95.66436615144016,64.74726881852372,59.126591395036144,61.83985753935906,56.1872197386864,25.17846380356775,36.64524334207511,3.714590554727693,9.221874811954535,22.67462937912599,22.67462937912583,21.01973742164421,57.97991344118532,51.84276382902647,42.18662455422816,399.9999999999999,391.4247917662528,380.189684452029,363.0773923037024,{}
207,207,20,0,6.899999999999979,11.181977992543567,139.80267705684125,19.56846148695138,30.75043947949506,39.13692297390276,44.72791197017449,30.750439479494947,92.25131843848494,61.50087895898989,55.89477713909764,57.51962531174581,51.47519010949452,23.75528028411645,37.728974568890976,7.441804630728711,4.647065773773761,19.56846148695138,22.36395598508736,20.960541427161616,59.33945526511173,52.6450807938013,42.02549731458793,400.0,391.6187479216836,377.7643059641868,360.8895698485566,{}
208,208,20,0,6.933333333333312,13.787858174159814,137.9061547009277,19.49897602597376,30.45837423747477,41.36357452247989,41.36357452247989,30.333287983151926,93.75743558428776,63.48406650689506,56.45027188385768,59.44085461538873,53.459689152326746,26.125279333940057,37.28152327043313,4.651121930170802,7.343452475538129,22.23225327941253,22.232253279412515,20.64388780444949,55.63612402433046,51.94424561182052,44.121146157311856,399.9999999999999,391.7304974882872,375.2831100256185,355.82292224992915,{}
209,209,20,0,6.9666666666666455,11.11003959260616,138.90326722960418,19.63996083795713,30.552608879667,41.75512949277647,41.75512949277659,33.445648132123566,94.43533653715248,63.88272765748548,58.32371882357268,59.13580067853741,54.73431702462824,23.57473624962836,37.4938192437254,7.203166053537984,7.170682779339131,22.393000697348207,19.442569287060724,20.829899579847503,57.18680422662192,53.93847680676265,44.44015837042464,400.00000000000006,391.7175295424239,375.0049822876996,358.3418364431083,{}
210,210,20,0,6.999999999999979,11.530625442749749,139.85733551931733,19.576112141719985,30.889317988320123,42.04192796610603,42.04192796610603,33.67537226279519,95.12509065554691,64.32151132279442,58.74067318261712,59.541979693181815,55.11026409393651,23.736661226216256,37.7840549522374,7.25264158031473,7.21993519212856,22.546808828020467,19.576112141719985,20.972971424472803,57.57959640200306,54.27625119518552,44.83270736005774,400.0,391.6121228285834,374.9096414095272,358.0614974779419,{}
211,211,20,0,7.033333333333312,11.266488203777383,140.94372239931894,19.916525522623083,30.982842560387805,42.343114077706936,42.343114077706936,33.91662081915823,95.76514973210776,64.78230717171995,59.14807493823855,62.37166944354294,55.92448043293405,25.33289419320101,36.61547496176672,2.9468212396974423,8.56369045348572,19.91652552262317,19.716354356610424,21.12431247794234,58.578247626694974,54.0847522556644,45.06595281510953,400.0,394.3673225373568,377.469391620661,360.538624782884,{}
212,212,20,0,7.066666666666645,11.110039592606205,138.90326722960415,19.44256928706077,30.55260887966698,38.98420915143688,44.52687095701618,33.3301187778185,94.43533653715244,63.88272765748548,58.326722087973735,58.71427505865802,55.129410079829086,23.592287090401328,37.51189795414268,4.295378758416632,7.040545634096475,19.63996083795709,19.63996083795709,20.814824133831166,57.76154067239258,53.35312563085972,44.44015837042459,400.0000000000001,388.8910624298292,375.0564084864697,355.5321164458898,{}
213,213,20,0,7.099999999999978,11.613230223487385,140.943722399319,19.716354356610303,30.98284256038778,42.34311407770677,42.34311407770689,33.799464611332205,95.80656169068416,64.84350917608437,59.13999265529185,62.35315497692193,55.91064311793582,25.33299261134028,36.615481972429166,5.762648798490204,8.56303711910482,22.532976407554727,19.716354356610417,21.12431652255532,58.565346497015526,54.081487740886814,42.24933076416514,400.0,394.3673225373568,380.285702322238,360.5386247828838,"{'happy': (['m1', 'm3', 'm12', 'e1', 'e2'], 5.430129590092179, 2)}"
214,214,20,0,7.133333333333312,11.265091883645596,140.8418084595696,19.71391079637988,30.97900268002548,42.33786625411193,42.33786625411193,33.7952756509369,95.75328101098783,64.77427833096237,59.141732389139634,59.141732389139634,56.325459418228206,23.93832025274696,38.01968510730399,7.040682427278512,7.040682427278512,19.713910796379764,19.713910796379764,19.713910796379764,59.14173238913952,53.509186447316665,42.24409456367107,400.0,394.3687285980837,380.2907152519971,363.3428737708931,"{'happy': (['m1', 'm3', 'm12', 'e1', 'e2'], 5.430129590092179, 2)}"
215,215,20,0,7.166666666666645,11.18634979526859,137.14688391688043,19.57611214172009,30.76246193698868,42.041927966106,42.041927966106,33.67537226279513,95.12509065554698,64.38227799796505,58.71108492652593,61.89784002084855,55.50807087764042,25.16073218604231,36.36315187986031,5.731281483411976,8.495303759099897,19.57611214172009,19.57611214172009,20.97405138610316,58.15828047138825,53.71958587572465,44.74539918107448,400.0,394.47747000008434,377.6325136661928,360.7706202208098,"{'happy': (['m1', 'm3', 'm12', 'e1', 'e2'], 5.430129590092179, 2)}"
216,216,20,0,7.199999999999978,11.187717035553192,139.95829539966812,19.578504812218284,30.76622184777148,39.25677286797051,44.83818699235016,33.56315110665969,95.09559480220264,64.32937295443116,58.73551443665451,61.53244369554284,55.9385851777663,25.172363329994823,36.36008036554813,5.593858517776653,8.390787776664865,19.57850481221817,19.57850481221817,19.57850481221817,55.9385851777663,53.14165591887797,44.750868142212994,400.0,394.4066962633873,377.67866941806295,358.0506444903405,"{'happy': (['m1', 'm3', 'm12', 'e1', 'e2'], 5.430129590092179, 2)}"
217,217,20,0,7.233333333333311,11.266488203777383,143.7581379308342,19.71635435661037,33.799464611332155,39.53317437595401,45.15388646519302,33.799464611332155,98.58177178305208,64.7823071717199,59.14806341522751,62.37402368455196,55.905727713063925,25.340982318677906,39.44022999323795,5.755964642982349,8.556163658487435,19.71635435661037,19.916525522623104,21.11612064616179,55.77472425035023,51.271480219567366,45.06595281510954,400.00000000000006,394.4176110218368,377.5954739238892,363.3879105069104,"{'happy': (['m1', 'm3', 'm12', 'e1', 'e2'], 5.430129590092179, 2)}"
218,218,20,0,7.266666666666644,11.266488203777383,140.94372239931897,19.716354356610395,33.799464611332155,39.53317437595399,45.15388646519307,33.799464611332155,98.58177178305208,64.78230717171994,59.1490630698313,61.96568512077556,56.332441018886925,25.349598458499145,39.43270871322079,5.633244101888636,8.449866152833124,19.716354356610395,19.716354356610395,21.12466538208253,59.1490630698313,53.51581896794255,45.06595281510954,400.0,394.3673225373568,377.4693916206611,360.5716295546098,"{'happy': (['m1', 'm3', 'm12', 'e1', 'e2'], 5.430129590092179, 2)}"
219,219,20,0,7.299999999999978,11.613230223487363,140.94372239931897,19.716354356610395,30.98284256038778,39.53317437595399,42.343114077706886,33.799464611332155,95.8065616906842,64.8435091760844,59.1490630698313,61.96568512077556,56.332441018886925,25.349598458499145,36.616086662276416,5.633244101888636,8.449866152833124,22.70833295425462,19.716354356610395,19.716354356610395,59.1490630698313,53.51581896794255,42.249330764165165,400.0,391.5509899199069,380.3378526910085,363.3879105069104,"{'happy': (['m1', 'm3', 'm12', 'e1', 'e2'], 5.430129590092179, 2)}"
220,220,20,0,7.333333333333311,11.110039592606157,138.9865508988616,19.442569287060827,30.552608879666984,41.75512949277658,41.75512949277648,33.33011877781847,94.43533653715244,63.882727657485454,58.32671052504713,61.493992216048014,55.12694389362571,24.98091918338139,36.12325374762042,5.684864573591312,8.446084509335606,19.44256928706083,19.44256928706072,20.830968044659585,60.5356864736425,56.11773457645154,41.66264847227314,400.0,391.6682909614307,377.8332378725739,361.11901515305294,"{'happy': (['m1', 'm3', 'm12', 'e1', 'e2'], 5.430129590092179, 2)}"
221,221,20,0,7.366666666666644,11.532034761777002,139.87442944063463,19.57850481221833,30.766221847771465,42.04706649821088,42.04706649821087,33.56315110665964,95.13671722349858,64.39014705674715,58.71528395966288,59.512029712646495,55.0892777777176,23.739771415427413,37.755992620973984,4.4552721697444895,7.219492129075206,19.578504812218217,19.578504812218103,19.5771813590236,57.6258560933386,54.3087921421419,41.95393888332472,400.00000000000006,394.4066962633874,380.423508297887,363.6438307905533,"{'happy': (['m1', 'm3', 'm12', 'e1', 'e2'], 5.430129590092179, 2)}"
222,222,20,0,7.399999999999977,11.613230223487363,140.85926595166782,19.716354356610395,30.98284256038778,42.343114077706886,42.343114077706886,33.799464611332155,95.8065616906842,64.8435091760844,59.1490630698313,59.14906306983119,56.332441018886925,23.9412874330269,38.02439768774866,4.224933076416505,7.04155512736088,22.53297640755477,19.716354356610395,21.12466538208253,59.1490630698313,53.51581896794255,42.249330764165165,400.0,394.3673225373568,380.3378526910085,363.355161547548,"{'happy': (['m1', 'm3', 'm12', 'e1', 'e2'], 5.430129590092179, 2)}"
223,223,20,0,7.4333333333333105,8.44881891273421,143.6575293824775,19.91405715403837,30.97900268002543,42.24409456367104,45.06036753458256,33.79527565093695,92.97966905129267,62.02197853698954,57.69718235971959,59.919122095112925,55.44268673076738,23.88788689882597,35.217337857314874,1.652211598112899,4.435740497397092,19.91405715403838,16.897637825468532,18.304551153478656,57.99832437513908,54.64506733857479,42.24409456367116,400.0,394.3184463461424,380.2907152519971,363.3428737708932,"{'happy': (['m1', 'm3', 'm12', 'e1', 'e2'], 5.430129590092179, 2)}"
224,224,20,0,7.466666666666644,6.254123951132485,145.46721252675837,22.37543407110657,30.76622184777134,42.04706649821079,42.04706649821079,30.76622184777134,89.54542763986427,58.80207028173155,55.94577025306103,55.531116237233846,53.57980322157721,23.78975784921636,34.961024863851435,4.065235449284955,4.081496391082283,11.187717035553288,13.984646294441694,12.577838480088076,59.30365473417055,52.55536388835708,44.75086814221304,400.00000000000006,391.6100503382638,380.423508297887,360.8038743965927,"{'happy': (['m1', 'm3', 'm12', 'e1', 'e2'], 5.430129590092179, 2)}"
225,225,20,0,7.499999999999977,5.555019796303124,144.43051470388025,22.220079185212267,27.77509898151539,41.66264847227314,44.52687095701613,30.55260887966701,86.10280684269779,58.3277078611824,55.54926995330868,52.370438898176985,53.2052834177066,22.235762683622056,33.31350726968651,2.649025879276337,2.681135283873573,8.332529694454628,8.783257501821126,9.7130948906796,58.88864803142667,52.19383717289213,44.44015837042476,400.0,391.6682909614308,377.78218967429,361.1190151530529,"{'happy': (['m1', 'm3', 'm12', 'e1', 'e2'], 5.430129590092179, 2)}"
226,226,20,0,7.53333333333331,5.47893801078998,139.73977423344527,19.17628303776476,30.258424159982265,38.45027977803782,41.09203508092445,30.25842415998238,85.10009557231123,54.8578240822529,52.06487638424426,51.66900597378003,49.737158370715065,20.55359171129828,34.2507079133577,3.9903737374786488,4.006208553897068,10.957876021579848,13.697345026974896,12.31948717364412,60.82152986371102,54.218411417169136,46.57097309171444,400.00000000000006,391.7823801498382,378.0864231093034,358.8808955429936,"{'happy': (['m1', 'm3', 'm12', 'e1', 'e2'], 5.430129590092179, 2)}"
227,227,20,0,7.566666666666643,2.7775098981516555,144.4572190610842,22.220079185212224,27.913629012855107,44.44015837042479,47.29928919080746,30.67859955389488,83.51025898555301,55.61959236605618,54.189230492908,52.02041303292697,50.86579078804493,20.861215424422085,31.939347773965665,1.1390192415727824,1.1702252481912865,14.162577169871868,13.887549490757824,13.886672945202577,56.63890201245488,51.64594095350594,41.75512949277657,400.00000000000017,394.416185380697,380.5289928091818,361.0869693320544,"{'happy': (['m1', 'm3', 'm12', 'e1', 'e2'], 5.430129590092179, 2)}"
228,228,20,0,7.599999999999976,2.797134405100304,145.47788210215708,19.57994083570178,30.76847845610277,42.05015052201607,41.95701607650398,33.68195848860876,86.75626989876955,56.01257281145401,54.57252434620705,55.17187115041952,54.03710786777731,21.00910331032037,32.13297999650001,1.1427545733648683,4.003636652137857,17.014304351552013,16.782806430601592,15.383234641448098,57.05781576100719,49.1943856897426,47.55128488670447,400.0000000000001,394.4058699107419,380.4205625370138,360.8411797012852,"{'happy': (['m1', 'm3', 'm12', 'e1', 'e2'], 5.430129590092179, 2)}"
229,229,20,0,7.63333333333331,6.2545826720076105,145.47788210215708,19.57994083570178,27.97134405100257,42.050150522015954,42.050150522015954,33.565612861203185,86.75626989876955,58.80638323385011,55.955017641256745,55.139905987528095,54.005142704886,21.00910331032037,32.16494515939132,1.1427545733648683,3.971671489246546,13.9856720255014,16.782806430601592,15.399217222893869,57.05781576100719,52.02330260562451,47.55128488670447,400.00000000000006,394.43562478900094,380.45141119940496,360.8737020771336,"{'happy': (['m1', 'm3', 'm12', 'e1', 'e2'], 5.430129590092179, 2)}"
230,230,20,0,7.666666666666643,5.633663122563007,146.50232360180837,19.71782092897081,28.308806836527225,42.34626370870025,42.252473419223065,33.91914365769885,87.50332075452724,59.22049222800543,56.33663122563087,56.336631225630754,53.51979966434931,21.12623670961159,32.393562954737604,1.4084157806406663,4.225247341922341,16.90098936768925,14.363079097478574,15.492573587048469,56.336631225630754,53.51979966434931,42.252473419223065,400.0,391.5497193746605,380.2826933393879,363.3821891930894,"{'happy': (['m1', 'm3', 'm12', 'e1', 'e2'], 5.430129590092179, 2)}"
231,231,20,0,7.699999999999976,3.9836013968848825,143.76883117096634,19.71782092897081,30.985147174096937,39.53611499366699,42.34626370870025,33.91914365769885,87.50332075452724,56.61761367305445,54.92821544499009,56.336631225630754,50.70296810306775,19.71782092897081,33.801978735378384,2.8168315612814467,2.8168315612815604,19.717820928970696,17.134117475124683,18.309405148329915,56.336631225630754,53.51979966434931,47.968912984798926,400.0,394.3664785638198,380.2826933393879,363.37127140531845,"{'happy': (['m1', 'm3', 'm12', 'e1', 'e2'], 5.430129590092179, 2)}"
232,232,20,0,7.733333333333309,3.955842132512065,139.97198325255164,19.58041958041959,30.769230769230862,42.05117868076335,41.95804195804203,33.68278203857978,86.89356401123953,56.223080397879,54.59079455364349,55.18781747535377,51.22947372045292,19.61179405837265,33.56413795477954,2.5353028182215667,2.5680164029728303,19.779210662560875,19.77921066256069,18.21328831025676,57.08520539092615,51.99824296210727,44.75524475524488,400.00000000000006,391.6083916083916,377.6223776223776,363.6363636363636,"{'happy': (['m1', 'm3', 'm12', 'e1', 'e2'], 5.430129590092179, 2)}"
233,233,20,0,7.766666666666643,6.29862685219253,146.58354082523343,19.717820928970657,28.168315612815352,42.3462637087002,42.34626370870021,36.61881029666005,90.1826122140382,62.03428021381748,59.16061557749492,58.7454247980188,53.95851934053076,19.73377351862496,33.80141404675362,2.686528573080068,2.7028105644320704,19.91800698442454,16.900989367689053,16.90070702337664,56.905559775242864,52.9490358767066,42.25247341922303,399.9999999999999,394.3966569774161,383.1305140884605,363.3821891930893,"{'happy': (['m1', 'm3', 'm12', 'e1', 'e2'], 5.430129590092179, 2)}"
234,234,20,0,7.799999999999976,13.888888888888944,144.5512425695298,19.444444444444454,30.555555555555472,44.53116539411504,44.53116539411492,36.11111111111109,99.99999999999996,69.44444444444449,62.49895588837194,60.69262768350552,55.97208997478856,22.22185098253226,41.665970592247845,8.204744112770186,5.427012739953739,19.641855032959707,19.64185503295962,19.45214773507064,56.11659623117782,52.2149273086668,44.44444444444453,399.9999999999999,391.6765168186121,375.01028792472175,358.3440997521244,"{'happy': (['m1', 'm3', 'm12', 'e1', 'e2'], 5.430129590092179, 2)}"
235,235,20,0,7.833333333333309,33.332529607259175,144.54775718144856,22.22168640483937,33.332529607259175,47.30271043630799,47.2210836102837,33.44806731801715,122.25083604708529,88.93013675966212,72.22048081572814,66.66505921451824,61.10963761330845,30.55481880665411,58.331926812703614,22.221686404839488,11.110843202419687,19.64138143282864,19.44397560423453,19.44397560423453,58.3319268127035,55.55421601209855,47.2210836102837,400.0,394.43493368589975,377.7788809163028,358.3354594372293,"{'happy': (['m1', 'm3', 'm12', 'e1', 'e2'], 5.430129590092179, 2)}"
