,video_id,frame_seq,gap,time_seconds,m1,m3,m4,m5,m6,m7,m8,m9,m10,m11,m12,m13,m14,m15,m16,m17,e1,e2,e3,b1,b2,b3
0,26,37,1,1.233333333333332,0.0,41.398354643375086,4.827127048991116,6.895895784272994,10.366804511934864,11.054961925561523,8.303758129181867,20.009983717654727,13.120336534424226,13.102201990118743,11.723022833264139,10.343843676409534,2.758358313709209,8.964664519554901,2.068768735281907,1.3791791568546046,3.4479478921365114,4.137537470563814,3.7927426813501626,19.30850819596445,19.30850819596445,22.066866509673645
1,26,38,0,1.2666666666666653,0.0,40.71205843116572,4.827471405136606,6.930783883734414,10.367544055934182,10.367544055934182,8.99178948440391,20.735088111868336,13.81000565039422,13.792775443247479,12.413497898922742,11.034220354597977,2.758555088649473,8.9653040381109,2.068916316487133,1.379277544324765,3.448193860811884,3.448193860811884,3.448193860811884,19.309885620546495,19.309885620546495,22.068440709195983
2,26,39,0,1.2999999999999985,0.6896387721623682,41.40130790681545,4.8274714051366345,6.896387721623768,10.367544055934182,11.034220354598006,8.389817765500306,20.735088111868336,13.86156776746877,13.447956057166294,11.723859126760374,10.344581582435609,2.7585550886495014,9.654942810273269,2.068916316487133,1.379277544324765,3.4481938608118696,3.516481556586112,3.793013246893068,19.30988562054651,19.30988562054651,22.068440709195983
3,26,40,0,1.3333333333333317,0.684786957397904,41.7944504020327,4.793508701785299,6.847869573979011,10.956591318366407,10.977970053462725,8.928529559439582,20.589210573213713,13.764047497629406,13.695739147957994,12.326165233162214,10.956591318366407,2.739147829591616,8.902230446172695,2.0543608721936835,1.3695739147957795,4.108721744387395,3.4239347869895056,3.4239347869895056,19.858821764539115,19.174034807141226,21.239437758458376
4,26,41,0,1.366666666666665,0.0,40.415814986786,5.479323530229209,8.2189852953438,10.980029806762603,11.643562501737051,8.9302047842884,22.612584687626953,14.399522543204405,14.383224266851641,12.328477943015685,11.643562501737051,3.0821194857539354,10.616189339819073,1.7122886031966118,1.0273731619179785,3.424577206393252,3.424577206393252,3.767034927032583,18.492716914523555,18.492716914523555,21.9279933132167
5,26,42,0,1.399999999999998,5.517110177299003,41.40130790681545,4.137832632974238,7.586026493786136,11.055750561128564,11.723859126760374,8.389817765500332,25.55388515125635,17.98357896880782,15.172052987572243,13.792775443247507,12.413497898922742,4.827471405136606,12.41349789892277,4.137832632974266,1.3792775443247365,4.137832632974252,3.448193860811884,3.793013246893068,18.620246848384127,18.620246848384127,22.06844070919601
6,26,43,0,1.4333333333333311,4.8274714051366345,40.71205843116575,4.8274714051366345,8.275665265948504,11.055750561128564,12.413497898922742,7.710395872372781,25.55388515125635,17.296052413420703,14.82723360149106,13.792775443247507,12.413497898922742,5.517110177299003,12.41349789892277,4.137832632974266,1.3792775443247365,4.137832632974252,3.448193860811884,3.793013246893068,18.620246848384127,18.620246848384127,22.06844070919601
7,26,44,0,1.4666666666666646,5.442176870748284,40.141819025665086,4.81025021215338,8.163265306122469,11.56462585034015,12.244897959183675,8.191560937953936,26.565475088117868,18.41766853153859,15.646258503401327,14.285714285714278,13.605442176870724,5.782312925170061,12.585034013605451,4.421768707482983,1.7006802721088263,4.761904761904759,4.810250212153384,5.102040816326536,18.367346938775512,18.367346938775512,21.768707482993193
8,26,45,0,1.4999999999999978,6.895895784273023,40.70915433369094,4.87613467141518,7.585485362700297,10.366804511934864,12.431752920226172,8.303758129181867,27.61804109323418,20.045599261205314,16.550149882255255,15.17097072540065,13.791791568546046,6.206306205845721,13.102201990118715,4.827127048991116,2.068768735281907,5.516716627418404,5.559648921821431,5.516716627418404,19.308508195964436,18.618918617537147,22.066866509673645
9,26,46,0,1.533333333333331,6.122448979591809,41.518896652155455,5.484529080475215,8.163265306122469,11.56462585034015,12.263779848516974,7.513851032100183,27.244876727211963,19.09614809199754,15.986394557823132,14.96598639455783,13.605442176870753,6.802721088435362,12.925170068027228,4.761904761904759,2.040816326530603,6.122448979591837,5.4845290804752045,5.442176870748298,18.367346938775512,18.367346938775512,21.768707482993193
10,26,47,0,1.5666666666666642,6.164383561643831,41.11871512274968,5.522094348149679,8.219178082191803,11.643835616438366,12.347778340630121,7.565315765196768,27.431485471918904,19.22694362687424,16.0958904109589,15.06849315068493,13.69863013698631,6.8493150684931265,13.013698630137014,4.109589041095916,2.0547945205479152,5.522094348149693,5.52209434814969,5.479452054794521,18.493150684931507,18.493150684931507,21.917808219178085
11,26,48,0,1.5999999999999974,6.883314995835566,41.78545560185477,4.794408088950547,8.247474064632126,10.980029806762605,11.663689677523108,8.247474064632122,28.08988447791558,19.90972731199825,16.4379705906876,14.383224266851641,13.698308825573008,5.821781250868526,14.040766546212325,5.136865809589864,1.7122886031966402,6.202173107835526,5.479323530229209,5.479323530229209,18.49271691452354,18.49271691452354,21.917294120916807
12,26,49,0,1.6333333333333306,7.432432432432421,42.572929735198294,4.7297297297297405,7.432432432432449,11.506342139139457,12.162162162162161,8.219949365267851,27.735642907802426,20.315265376179592,16.554054054054063,14.189189189189193,13.513513513513516,5.743243243243256,13.851351351351354,5.743243243243228,1.689189189189193,6.081081081081081,6.081081081081081,5.743243243243242,18.243243243243242,18.91891891891892,21.63217647781367
13,26,50,0,1.666666666666664,6.790301501122532,41.896384182080965,5.405282021084503,8.107923031626768,12.161884547440167,12.837544800075733,7.703712157713471,27.73500981126146,19.64068930964144,16.215846063253565,14.188865305346866,13.5132050527113,6.418772400037852,13.851035179029054,5.0674518947667195,1.689150631588916,6.080942273720069,5.4473471070284365,5.405282021084517,18.242826821160236,18.242826821160236,22.296788336973606
14,26,51,0,1.699999999999997,7.382550335570471,42.28720537455937,4.697986577181183,8.081607099860625,10.759207746229118,12.080536912751683,8.164781919863406,28.1959081041611,20.178921313252225,16.44295302013424,13.422818791946327,12.75167785234899,5.033557046979837,15.100671140939625,6.375838926174509,1.0067114093959617,6.077439690025117,5.410911240468824,5.704697986577187,18.120805369127524,18.79194630872483,21.476510067114077
15,26,52,0,1.7333333333333305,5.4844021810645005,42.85615124125505,4.761794582361659,8.163076426905718,11.584348534030294,12.924871009267406,8.275675903590464,26.538718189942784,18.379514983587818,15.645896484902636,12.924871009267378,12.924871009267378,4.761794582361659,13.605127378176206,4.761794582361688,0.6802563689088004,6.122307320179289,5.484402181064486,5.782179135724874,18.36692196053788,18.36692196053788,21.768203805081953
16,26,53,0,1.7666666666666635,4.109589041095887,41.7864357333415,5.479452054794535,8.247667519720745,11.643835616438338,11.643835616438366,7.65776704623214,25.35171989496129,17.1779947999787,15.06849315068493,11.643835616438338,12.328767123287662,4.452054794520535,13.356164383561662,4.4520547945205635,0.3424657534246762,6.202318587765364,6.202318587765362,6.506849315068507,18.493150684931507,19.17808219178083,21.917808219178056
17,26,54,0,1.7999999999999967,1.3605442176870497,39.46164629189981,4.761904761904759,8.191560937953962,10.884353741496597,11.564625850340121,9.620500424306792,23.819240000015792,15.705301198115908,14.96598639455783,12.925170068027228,12.244897959183675,3.0612244897959044,11.224489795918373,2.3809523809523796,1.0204081632653015,6.160125944311167,5.442176870748298,5.782312925170075,18.367346938775512,19.04761904761905,21.768707482993193
18,26,55,0,1.83333333333333,1.52113467857127,39.45578231292518,4.761904761904759,8.163265306122469,10.884353741496597,11.564625850340121,9.620500424306792,23.819240000015792,15.661040045199094,14.96598639455783,12.925170068027228,12.925170068027228,3.401360544217681,10.884353741496597,2.040816326530603,0.6802721088435248,6.836650082395165,6.160125944311167,6.122448979591837,18.367346938775512,19.04761904761905,21.768707482993193
19,26,56,0,1.8666666666666631,0.9686167061350367,39.04618772084244,5.4793235302291805,8.2189852953438,10.958647060458418,10.95864706045839,9.613246322407443,23.972040444752764,15.753055149408965,15.410597428769648,11.643562501737051,12.328477943015713,2.397204044475245,11.986020222376396,3.0821194857539354,2.397204044475302,6.202173107835523,5.479323530229209,5.82178125086854,18.492716914523555,19.177632355802203,21.917294120916807
20,26,57,0,1.8999999999999964,1.3792775443247365,38.61977124109302,4.8274714051366345,8.275665265948504,10.344581582435637,11.055750561128564,10.367544055934156,24.836572267168975,16.565691775841263,15.861691759734612,13.10313667108511,13.10313667108511,2.7585550886495014,11.723859126760374,2.7585550886495014,1.379277544324765,6.244944688122516,6.206748949461385,6.206748949461385,19.30988562054651,18.620246848384127,22.068440709195983
21,26,58,0,1.9333333333333296,1.5421158465515739,38.62684679983571,4.827586206896541,8.275862068965523,10.344827586206918,11.056013477159592,10.436376517532128,24.837162903957406,16.566085723399066,15.862068965517267,12.413793103448285,13.103448275862064,2.4137931034482563,12.068965517241395,3.103448275862064,1.7241379310344769,6.245093198715466,5.560177757447278,5.517241379310349,18.620689655172413,18.620689655172413,22.068965517241395
22,26,59,0,1.9666666666666628,2.1808292827950346,40.688687557580124,5.517110177299003,7.5860264937861075,11.055750561128564,11.723859126760374,9.752965047303585,24.836572267168975,17.254756566801724,16.206511145815824,12.413497898922742,12.413497898922742,2.7585550886495014,12.413497898922742,4.137832632974266,1.379277544324765,6.206748949461385,5.560045534393208,5.861929563380187,18.620246848384127,18.620246848384127,21.378801937033614
23,26,60,0,1.999999999999996,1.5315174855383404,39.7309995988899,5.4793235302291805,8.2189852953438,10.958647060458418,11.66368967752311,9.806496731702696,24.694977428872203,16.49494812926428,15.753055149408965,13.013393384294375,12.328477943015713,3.0821194857539354,11.986020222376368,3.082119485753907,1.7122886031966118,6.883314995835564,6.202173107835528,6.506696692147173,18.492716914523555,19.177632355802203,21.917294120916807
24,26,61,0,2.033333333333329,6.1638052621386805,41.776902332273295,5.478938010789932,7.533539764836149,11.64274327292864,12.327610524277361,8.331769709464945,27.42891204112642,19.9083264845299,16.7792476580442,13.697345026974858,13.697345026974858,5.478938010789932,13.69734502697483,5.478938010789932,0.6848672513487486,6.1638052621386805,6.1638052621386805,6.1638052621386805,18.49141578641604,18.49141578641604,21.915752043159756
25,26,62,0,2.0666666666666624,6.164238971507842,41.77984191799763,4.794408088950576,7.534069854065137,11.643562501737051,12.328477943015685,9.00865611367385,27.43084204631516,19.90972731199825,16.780428311326915,13.698308825573008,13.698308825573008,4.794408088950576,13.69830882557298,4.794408088950547,0.0,6.202173107835526,6.202173107835523,6.1642389715078565,19.177632355802203,19.177632355802203,21.232378679638174
26,26,63,0,2.099999999999996,5.517241379310349,42.07461804874383,4.827586206896541,7.586206896551715,11.724137931034477,12.432935432634455,8.390017283169964,26.24316909026268,18.671705338870183,15.862068965517238,12.413793103448256,13.103448275862064,4.482758620689623,13.448275862068982,5.172413793103459,0.3448275862068897,6.2450931987154625,5.560177757447278,5.862068965517253,19.310344827586206,19.310344827586206,21.39043092313217
27,26,64,0,2.133333333333329,0.6895076122577564,42.065615669798376,6.205568510319949,7.6158605014858916,11.032121796124386,11.721629408382142,9.069056692596263,23.453396442672386,15.918519351485992,15.513921275799873,12.411137020639899,13.100644632897684,3.792291867417731,10.687367989995494,2.4132766429022183,1.7237690306444335,6.243756984671644,6.205568510319949,5.860814704191071,18.616705530959862,19.306213143217633,21.37473597999096
28,26,65,0,2.166666666666662,1.4083110254721873,41.54517525142907,4.929088589152599,7.041555127360851,11.266488203777385,11.970643716513479,9.18106462453158,22.543976152611926,15.507416556814379,14.787265767457797,11.97064371651345,11.97064371651345,2.8166220509443463,10.562332691041291,2.8166220509443463,1.408311025472159,6.337399614624772,6.337399614624786,6.337399614624786,18.308043331138236,19.01219884387433,21.124665382082583
29,26,66,0,2.199999999999996,0.6943774745378732,40.96827099773526,4.860642321765226,6.943774745378846,11.1100395926062,11.1100395926062,9.05357460425183,21.53689843533832,14.598450400585685,14.234738228026657,11.804417067144044,11.804417067144044,2.77750989815155,9.721284643530396,2.0831324236136766,1.388754949075775,6.287855463187762,5.555019796303085,5.902208533572036,18.05381433798503,18.74819181252292,20.831324236136595
30,26,67,0,2.2333333333333285,1.3885875787890427,40.96333357427682,4.860056525761678,6.9429378939452135,11.10870063031237,11.10870063031237,9.13200902411852,22.260752328696704,15.337451111706965,14.580169577284977,11.802994419706863,11.802994419706863,2.7771751575780854,10.414406840917849,2.777175157578114,1.3885875787890711,5.597575483141541,5.554350315156171,5.9014972098534315,18.051638524257584,18.745932313652105,20.82881368183567
31,26,68,0,2.2666666666666617,0.6991468622042873,41.94881173225724,4.894028035430011,6.9914686220428734,11.186349795268598,11.885496657472885,9.19584123084492,21.71861213815347,14.74851921529395,14.332510675187905,11.885496657472885,11.885496657472885,2.7965874488171494,9.788056070860023,2.097440586612862,1.3982937244085747,5.6367022070051345,5.593174897634299,5.942748328736442,18.17781841731147,19.576112141720046,20.97440586612862
32,26,69,0,2.299999999999995,1.3887549490757465,40.96827099773526,4.860642321765226,6.249397270840973,11.1100395926062,11.824822297701893,9.133109730326826,21.570453737590107,15.339299776947387,14.581926965295594,11.804417067144044,11.804417067144044,2.77750989815155,9.721284643530396,2.77750989815155,1.388754949075775,5.555019796303085,5.555019796303085,5.555019796303085,18.05381433798503,18.74819181252292,20.831324236136595
33,26,70,0,2.333333333333328,0.6992323147220816,41.25470656860267,5.593858517776624,6.992323147220787,11.187717035553248,11.187717035553248,8.506528247930312,21.721266673545777,14.750321838131546,14.334262451802601,11.886949350275358,11.886949350275358,3.496161573610408,9.789252406109085,2.0976969441662163,1.3984646294441347,5.637391147228804,5.593858517776624,5.593858517776624,18.18004018277405,18.87927249749613,20.976969441662362
34,26,71,0,2.3666666666666614,0.7091485224227938,41.83976282294404,4.964039656959443,7.091485224227796,11.346376358764473,12.076364179163349,9.327392531989497,22.029308203266567,14.959504468738714,14.537544709667003,12.055524881187267,12.055524881187267,2.8365940896911184,9.928079313918914,2.1274455672683246,1.4182970448455592,6.421612990679363,5.673188179382237,5.673188179382237,18.437861582992298,19.147010105415077,21.286271533451462
35,26,72,0,2.3999999999999946,1.369349186593638,39.7111264112157,5.4773967463745805,8.216095119561885,10.270118899452342,11.65958818418511,8.244573870879824,23.2890027395558,15.078393809437777,14.378166459233256,12.324142679342799,12.324142679342799,4.1080475597809425,10.954793492749161,2.054023779890457,0.684674593296819,6.199992136600323,5.520023044870469,5.4773967463745805,17.80153942571738,18.4862140190142,21.224912392201503
36,26,73,0,2.433333333333328,2.068178726123989,40.67418161377185,4.825750360955965,8.272714904495984,11.030286539327989,11.030286539327989,8.386826707484628,23.47987640063664,15.229187118737295,14.13255462851393,12.409072356743962,12.409072356743962,4.136357452247978,11.03028653932796,2.068178726123989,0.6893929087079869,6.242718299851728,5.515143269663994,5.859839724017988,18.61360853511593,19.30300144382393,20.69327395318978
37,26,74,0,2.466666666666661,4.894985208925476,40.55844887395381,4.894985208925448,8.391403215300784,11.210368934078044,11.88782122167612,8.507152175775937,26.609555795948598,18.235085341404712,15.733881028688984,13.985672025501287,13.985672025501287,5.594268810200504,12.587104822951204,4.19570160765042,1.3985672025501117,3.496418006375336,3.496418006375322,3.846059807012864,18.880657234426778,18.880657234426778,20.97850803825196
38,26,75,0,2.4999999999999942,4.944681764341503,40.55844887395381,4.894985208925448,7.723839829481935,11.188537620401064,11.88782122167612,9.117542670702344,26.58197635603239,18.93238515940241,16.43316462996404,13.985672025501287,13.985672025501287,4.894985208925448,12.587104822951204,4.19570160765042,0.6992836012750558,2.8832201503193873,3.496418006375336,3.496418006375336,19.579940835701834,19.579940835701834,20.97850803825196
39,26,76,0,2.5333333333333274,4.225247341922284,40.14602653521058,4.929455232242702,7.746286793524234,10.563118354805766,11.971534135446518,9.181747544678684,26.065206527507073,18.322942603154186,16.19678147736886,13.379949916087327,14.084157806407717,4.577351287082507,12.323638080606713,3.873143396762117,0.35210394516019505,2.816831561281532,2.816831561281546,3.1689355064417413,20.422028819291157,19.717820928970767,21.126236709611533
40,26,77,0,2.5666666666666607,4.224933076416534,40.13686422595691,4.929088589152599,7.745710640096945,10.562332691041291,11.970643716513479,9.883293593988498,26.76717308455483,19.025234291990547,16.89973230566605,14.787265767457797,14.787265767457797,4.929088589152599,11.970643716513479,3.52077756368044,0.7041555127360652,2.9033075558718275,2.816622050944332,3.168699807312379,19.71635435661041,19.71635435661041,21.124665382082583
41,26,78,0,2.599999999999994,1.3888554003024467,38.19352350831775,4.8609939010586345,7.670204648505427,9.746757237935793,11.110843202419716,11.13252291708819,24.999397205444353,17.374575506802117,16.66626480362956,14.582981703175875,14.582981703175875,3.4721385007561594,10.416415502268478,2.0832831004536843,0.6944277001512376,2.777710800604922,3.540900393850486,3.4721385007561594,19.443975604234495,20.138403304385733,21.527258704688194
42,26,79,0,2.633333333333327,1.3887549490757465,38.88513857412164,4.860642321765226,6.9437747453788745,10.438782373194137,10.415662118068298,10.438782373194107,23.619043360336875,16.679519313008324,15.970681914371369,14.581926965295594,14.581926965295594,4.166264847227325,9.026907168992523,1.388754949075775,0.0,2.7775098981515356,3.5406442924679484,3.471887372689423,18.74819181252292,18.74819181252292,20.831324236136567
43,26,80,0,2.6666666666666603,1.39856720255014,39.85916527267875,4.894985208925448,6.992836012750644,9.789970417850924,11.188537620401064,11.210368934078046,24.484913772463806,17.49607011410429,16.782806430601596,14.684955626776372,14.684955626776372,3.4964180063753076,9.789970417850924,1.39856720255014,0.6992836012750843,3.496418006375336,3.496418006375322,3.846059807012864,18.880657234426778,18.880657234426778,22.387998880818504
44,26,81,0,2.699999999999993,1.3888554003024751,39.58237890862023,4.8609939010586345,6.978912014380914,10.439537429725343,11.110843202419716,11.132522917088162,24.304969505293116,17.374575506802117,16.66626480362956,15.277409403327084,15.277409403327084,4.166566200907397,9.027560101966031,1.3888554003024751,0.0,5.555421601209858,4.8609939010586345,5.208207751134253,19.443975604234495,18.749547904083272,22.2325341899155
45,26,82,0,2.7333333333333267,4.109589041095887,40.410958904109606,5.479452054794535,8.247667519720745,10.958904109589042,11.643835616438338,9.6863942628294,27.405820580469243,19.22694362687424,17.123287671232873,15.753424657534225,15.753424657534225,6.164383561643831,11.643835616438366,2.7397260273972677,1.3698630136986196,6.164383561643831,5.52209434814969,5.479452054794521,18.493150684931507,18.493150684931507,21.917808219178085
46,26,83,0,2.76666666666666,5.442176870748284,40.13605442176873,4.761904761904759,8.843537414965994,10.884353741496597,12.244897959183675,8.947582610861168,27.92432075071264,19.09614809199754,16.32653061224491,14.96598639455783,14.96598639455783,6.122448979591837,12.9251700680272,3.401360544217681,1.3605442176870781,6.122448979591837,5.442176870748298,5.442176870748298,18.367346938775512,18.367346938775512,21.768707482993193
47,26,84,0,2.799999999999993,6.244499219905039,40.685785127210806,4.827127048991116,8.303758129181839,11.054961925561523,11.723022833264139,8.9911480765719,28.281581094208015,20.045599261205314,16.89494467146892,15.17097072540065,15.17097072540065,6.206306205845721,13.102201990118715,4.137537470563814,2.068768735281907,6.244499219905025,5.516716627418404,5.861511416632055,18.618918617537147,17.929329039109845,22.07763871754477
48,26,85,0,2.8333333333333264,5.517110177299003,40.688687557580124,4.8274714051366345,8.304350500195405,11.744125104076172,11.723859126760374,9.07078183179629,27.594170024617046,19.359082861098234,16.55133053189701,15.172052987572243,15.172052987572243,6.206748949461371,12.413497898922742,3.4481938608118696,2.068916316487133,6.244944688122516,4.82747140513662,5.517110177299003,19.309885620546495,18.620246848384127,21.378801937033614
49,26,86,0,2.86666666666666,5.516716627418418,41.37537470563808,4.827127048991116,8.275074941127599,11.033433254836837,12.412612411691441,9.070134789233796,27.61804109323418,19.357701927148508,16.550149882255255,15.17097072540065,15.17097072540065,6.206306205845721,12.412612411691413,3.4479478921365114,1.3791791568546046,6.206306205845706,6.244499219905022,6.206306205845706,19.30850819596445,18.618918617537147,21.388396451858483
50,26,87,0,2.899999999999993,6.206306205845721,41.37537470563808,4.827127048991116,8.303758129181839,11.723022833264139,12.412612411691441,8.38921929788348,27.592201660388486,19.357701927148508,16.205355093041618,14.481381146973348,14.481381146973348,6.206306205845721,13.102201990118715,4.137537470563814,1.3791791568546046,6.244499219905025,5.516716627418404,5.516716627418404,18.618918617537147,17.929329039109845,21.388396451858483
51,26,88,0,2.933333333333326,3.424577206393252,41.100633709088285,4.794408088950576,8.2189852953438,10.95864706045839,12.328477943015713,9.613246322407413,26.03579725415158,17.82096805653963,16.09551287004831,13.698308825573008,14.38322426685167,4.451950368311259,11.986020222376368,3.082119485753907,0.3424577206393451,6.164238971507842,6.164238971507842,6.164238971507842,19.177632355802203,18.492716914523555,21.243422830543444
52,26,89,0,2.9666666666666592,3.4721385007561594,40.97711886684302,4.910345358207125,8.333132401814794,10.439537429725343,11.805270902570953,9.746757237935821,26.424776156244985,18.108458932261023,16.319050953553955,13.888554003024637,14.582981703175875,4.513780050982973,12.152484752646586,3.124924650680555,0.34721385007560457,6.2883102754604066,6.249849301361081,6.249849301361081,19.443975604234495,18.749547904083258,21.538456239231976
53,26,90,0,2.9999999999999925,2.054746323835957,39.04618772084241,4.794408088950547,6.849154412786504,10.958647060458418,11.643562501737051,10.980029806762605,24.66646676618685,17.820968056539602,16.780428311326915,13.698308825573008,14.383224266851641,3.0821194857539354,10.616189339819073,2.3972040444752736,1.0273731619179785,6.202173107835508,5.479323530229195,5.821781250868511,19.177632355802203,18.492716914523555,20.558875326569726
54,26,91,0,3.0333333333333257,2.068178726123989,39.30144263732366,4.825750360955993,6.928312986598132,11.03028653932796,11.719679448035976,10.363847917755887,24.12875180477991,17.248605065138523,16.200733354637947,13.787858174159936,14.477251082867951,3.7916609978939846,9.99619717626598,2.412875180478011,0.34469645435402185,6.242718299851728,5.51514326966398,5.859839724017974,19.30300144382393,18.613608535115944,21.371180169947905
55,26,92,0,3.066666666666659,1.369349186593638,39.71702833982245,4.1080475597809425,7.531420526265066,10.270118899452342,10.954793492749161,10.97616871988972,23.973389835685825,16.44644810752339,15.747515645826923,13.693491865936466,14.378166459233285,3.081035669835728,9.927781602803918,1.7116864832420333,0.3423372966483953,6.199992136600326,6.1620713396713995,6.1620713396713995,19.170888612311032,18.486214019014213,21.23595265947198
56,26,93,0,3.099999999999992,2.7205219550025674,39.447568347537356,5.441043910005163,8.16156586500773,10.882087820010298,10.882087820010298,8.867816636229684,25.174017358530985,17.016859391845674,15.643001241264813,14.282740263763515,14.282740263763515,5.441043910005163,10.882087820010298,2.0403914662519185,0.680130488750649,6.158843519826722,5.441043910005149,5.781109154380474,19.04365368501803,18.36352319626738,21.09501214558833
57,26,94,0,3.1333333333333253,3.42393478698952,39.723546426269074,4.793508701785299,8.245926913830212,10.294605286606883,11.64137827576431,8.330792891393726,24.661839562325607,16.491853827660456,14.722919584054864,14.380526105355898,13.695739147957994,5.820689137882141,10.614197839667469,2.396754350892678,1.7119673934947173,6.201009636811292,6.163082616581107,6.163082616581107,18.48924784974332,17.804460892345418,21.239437758458404
58,26,95,0,3.1666666666666585,3.42393478698952,39.71764352907826,4.793508701785299,8.21744348877479,10.977970053462752,10.977970053462753,8.330792891393726,24.690344876671027,16.491853827660456,14.722919584054864,13.695739147957994,13.695739147957994,5.478295659183203,10.956591318366407,2.054360872193712,1.3695739147957795,6.201009636811292,5.478295659183203,6.163082616581107,18.48924784974332,17.804460892345418,21.228395679334938
59,26,96,0,3.199999999999992,2.72102547563523,39.46073324000661,4.761794582361688,8.163076426905718,10.905339194740213,11.564358271449777,8.947375584342744,24.526992185616614,16.382742808082515,14.965640115993807,14.285383747085007,13.605127378176206,5.101922766816074,10.543973718086562,1.7006409222720436,1.0203845533632148,6.159983413140177,5.484402181064493,5.782179135724888,18.36692196053788,17.686665591629065,21.098916460288706
60,26,97,0,3.233333333333325,2.7396617651146187,39.73099959888987,4.794408088950547,8.2189852953438,10.980029806762603,11.643562501737051,8.247474064632126,23.981822955033344,15.767937585557036,14.383224266851641,13.698308825573008,13.013393384294346,5.136865809589864,10.616189339819101,1.7122886031966402,1.02737316191795,6.202173107835508,6.164238971507842,6.164238971507842,18.492716914523555,17.807801473244908,21.24342283054347
61,26,98,0,3.266666666666658,2.720836622636682,39.45799446454678,4.761464089614179,8.16250986790999,10.904582308769882,11.583544521360544,8.94675459099904,24.525289887691944,16.381605762460648,14.964601424501694,14.284392268842538,13.604183113183353,5.101568667443786,10.543241912717065,1.7005228891478907,1.0203137334887629,6.836017410722296,5.484021535676732,6.12188240093252,19.04585635845669,18.365647202797533,21.097452088243738
62,26,99,0,3.2999999999999914,3.4243362567437146,39.72230057822705,4.794070759441183,7.533539764836178,10.295812369367265,10.957876021579864,8.33176970946494,24.009457173603657,16.4937875620668,14.724645903997953,13.697345026974858,13.697345026974858,5.478938010789932,10.273008770231144,2.0546017540462174,1.3697345026974972,6.8828306930337915,6.201736729460424,6.506238887813041,18.49141578641604,17.806548535067293,21.241928165661466
63,26,100,0,3.3333333333333246,4.794408088950576,39.04018015288304,4.109492647671885,7.534069854065137,10.273731619179756,11.643562501737051,8.247474064632126,24.66646676618685,17.136578865847383,14.725681987490958,13.698308825573008,13.698308825573008,5.479323530229209,10.95864706045839,2.7396617651145903,1.3698308825573235,6.164238971507842,6.202173107835508,6.164238971507842,19.177632355802203,18.492716914523555,21.232378679638174
64,26,101,0,3.366666666666658,6.12188240093252,40.138104254324,4.081254933954995,8.16250986790999,10.883346490546671,11.583544521360544,8.190802881230326,26.53687626800811,18.37823935182768,15.304706002331272,14.28439226884251,13.604183113183353,5.781777823102914,12.58386937969459,3.7411503561254165,1.7005228891479192,5.484021535676746,6.12188240093252,6.12188240093252,19.04585635845669,18.36564720279752,21.777318655624754
65,26,102,0,3.399999999999991,6.12188240093252,40.138104254324,4.081254933954995,8.16250986790999,10.883346490546671,11.563555646205856,8.190802881230326,26.53687626800811,18.37823935182768,15.304706002331272,14.28439226884251,13.604183113183353,5.781777823102914,12.58386937969459,3.7411503561254165,1.7005228891479192,5.484021535676746,6.12188240093252,6.12188240093252,19.04585635845669,17.685438047138348,21.777318655624754
66,26,103,0,3.433333333333324,6.080525908661883,40.536839391079184,4.053683939107913,7.431753888364511,10.830916196872959,11.505291667403219,8.1354697575499,25.682219733575877,18.254084808515014,15.201314771654694,13.512279797026395,13.512279797026395,5.404911918810541,12.161051817323766,4.053683939107913,2.026841969553942,6.117944882817355,5.404911918810555,5.742718913736212,18.91719171583695,17.565963736134307,22.295261665093562
67,26,104,0,3.466666666666657,6.163082616581107,40.40823334905349,4.108721744387395,8.24592691383024,10.977970053462753,12.326165233162186,8.24592691383024,26.70669133851814,18.501924743827608,15.407706541452768,13.010952190560118,13.695739147958022,5.135902180484237,13.353345669259085,4.4511152230863615,1.7119673934947457,6.201009636811292,6.163082616581107,6.163082616581107,17.804460892345418,17.119673934947514,21.923879821961958
68,26,105,0,3.4999999999999907,5.478295659183203,40.40823334905349,4.793508701785299,7.532656531376915,10.956591318366435,12.326165233162186,7.563719164321051,25.346369612244594,17.817625005709363,15.065313062753802,13.010952190560118,12.326165233162214,5.135902180484237,12.66855871186118,4.4511152230863615,1.0271804360968417,6.201009636811292,5.478295659183203,5.820689137882155,18.48924784974332,17.119673934947514,21.923879821961958
69,26,106,0,3.533333333333324,6.1620713396713995,39.71112641121567,4.1080475597809425,8.216095119561857,10.97616871988972,11.65958818418511,8.244573870879824,26.711085575670424,18.498888832994897,15.405178349178499,13.693491865936437,13.693491865936437,5.4773967463745805,13.008817272639618,4.1080475597809425,2.054023779890457,6.199992136600337,6.1999921366003194,6.1620713396713995,18.486214019014213,17.801539425717394,21.920282415466787
70,26,107,0,3.566666666666657,6.163082616581107,41.08721744387404,4.108721744387395,8.24592691383024,10.977970053462753,11.64137827576431,7.656150934234796,26.030913176398304,17.857059118879192,14.722919584054864,13.010952190560118,13.010952190560118,5.478295659183203,13.010952190560118,4.108721744387395,2.054360872193712,6.201009636811292,6.201009636811294,6.163082616581107,19.174034807141226,17.804460892345418,21.923879821961958
71,26,108,0,3.5999999999999903,6.845302064089253,41.071812384535576,4.107181238453563,8.24283522251328,10.973854021990881,11.637013508951753,7.560883256956306,26.696678049948105,18.49498771410677,15.05966454099638,13.690604128178506,13.690604128178506,6.1607718576803165,13.006073921769598,4.107181238453563,2.73812082563569,6.198684657721525,6.160771857680331,6.160771857680331,19.16684577944993,17.797785366632084,21.915659779559526
72,26,109,0,3.633333333333324,8.216095119561857,40.39580100451252,4.7927221530777615,8.216095119561885,11.63946808604598,12.324142679342799,7.5624780622592835,28.76448265163812,20.551645874096288,16.43219023912377,14.378166459233285,14.378166459233285,6.8467459329682185,14.378166459233285,5.4773967463745805,2.738698373187276,6.880894503574593,6.1620713396713995,6.1620713396713995,19.85556320560785,18.4862140190142,21.920282415466815
73,26,110,0,3.6666666666666567,7.52983227049819,40.39308286500437,4.791711444862472,8.24283522251328,10.952483302542817,13.006073921769598,7.560883256956303,28.06573846276595,19.863174724485,16.08645985060977,13.690604128178506,14.375134334587443,6.503036960884799,14.03286923138296,5.133976548066926,2.395855722431264,6.879443433309922,5.476241651271408,5.818506754475877,19.166845779449943,17.797785366632084,21.915659779559526
74,26,111,0,3.69999999999999,8.212246290419387,40.382676787065165,4.790477002744666,8.240711700868465,10.949661720559192,12.318369435629108,8.240711700868465,29.427215874002883,21.226004679041573,17.108846438373774,14.37143100823397,15.055784865768914,6.501361646582012,14.713607937001456,5.817007789047096,2.3952385013723188,6.1970877507490005,5.474830860279596,6.159184717814554,19.846261868513565,17.79320029590872,21.910013860813535
75,26,112,0,3.733333333333323,8.212246290419415,40.382676787065165,4.7904770027446375,8.240711700868465,10.949661720559192,13.002723293164081,7.558935419978284,28.74286201646794,20.542018457128158,16.42449258083883,14.37143100823397,15.055784865768914,7.185715504116956,14.029254079466511,4.448300073977208,2.3952385013723188,6.1970877507490005,5.474830860279596,5.817007789047068,19.161908010978607,17.79320029590872,21.942053868952428
76,26,113,0,3.766666666666656,7.478668317308518,40.118618610470044,4.759152565559958,8.864536814892842,10.87806300699421,12.237820882868476,8.186826533298927,29.234794331296968,20.407696307906214,16.657033979459896,14.277457696679932,14.957336634617064,6.458849910402819,14.61739716564847,5.099092034528525,2.3795762827799933,6.156565630328609,5.439031503497105,5.778970972465672,19.716489200177023,17.676852386365596,22.47717196810647
77,26,114,0,3.7999999999999896,10.804646659592493,40.523052002868184,4.051742497347163,8.131573415119687,11.47993707581702,12.830517908266074,8.131573415119687,31.063359146328366,22.9698027463258,17.557550821837765,14.856389156939656,15.531679573164183,7.090549370357564,15.869324781276447,6.415258954133037,3.038806873010401,6.115014799006231,5.402323329796232,5.73996853790851,19.58342207051136,17.55755082183778,21.61984215716702
78,26,115,0,3.833333333333323,9.44567015262507,40.48706554356841,4.722835076312549,8.770979427437595,11.469742328187607,12.14443305337511,7.452202634643877,30.36857827177774,21.600642676096314,16.86726812968763,14.168505228937619,14.843195954125122,7.084252614468795,15.855232041906419,6.409561889281321,3.036108263343749,6.109584365702098,6.072216526687541,6.072216526687541,19.56603103043767,16.867268129687645,21.600642676096314
79,26,116,0,3.866666666666656,6.797061585718211,40.125697627226494,4.757943110002742,8.18474599423017,10.875298537149149,12.234710854292786,7.507599907031305,27.188246342872844,19.04390618204056,15.633241647151891,13.594123171436422,14.953535488580059,6.797061585718211,12.91441701286459,4.07823695143091,2.7188246342873015,6.155001046631747,5.4376492685745745,5.777502347860477,19.031772440010997,16.992653964295542,21.0818510677892
80,26,117,0,3.899999999999989,6.749211864618985,38.47050762832811,4.724448305233267,7.424133051080844,10.798738983390336,12.14858135631414,7.454748162620018,26.330577685977083,18.909841544261578,15.523187288623632,14.173344915699829,14.173344915699829,6.749211864618957,12.14858135631414,4.04952711877138,2.699684745847577,6.22246588375432,5.399369491695182,5.736830084926126,18.22287203447121,16.87302966154742,21.608021036955535
81,26,118,0,3.9333333333333225,2.765628268774989,37.58669752490578,4.695343665498484,8.049160569425965,10.061450711782442,10.753155018026884,8.74568449067732,24.147481708277866,16.0983211388519,14.756794377280926,12.74450423492442,14.086030996495424,4.695343665498484,10.732214092567943,2.0122901423565054,0.6707633807855018,6.074020749571799,6.0368704270694735,6.0368704270694735,18.781374661993908,16.769084519637417,20.804480755565226
82,26,119,0,3.966666666666656,1.5103052333254268,37.17314979516034,4.728003235885126,8.13324259053524,10.131435505468119,10.131435505468119,10.827951124171427,24.999999999999996,16.885725842446845,16.21029680874898,12.833151640259615,14.184009707655349,2.7017161347914964,11.482293572863853,2.0262871010936294,1.350858067395734,6.227148003923916,5.403432269582993,5.741146786431926,18.912012943540475,16.885725842446845,21.62428008168353
83,26,120,0,3.999999999999989,1.5202555216977895,37.418056289562365,4.759152565559958,8.186826533298927,9.518305131119916,10.220821575422406,10.220821575422404,24.485082707945647,16.3170945104913,15.637215572554169,12.237820882868476,13.59757875874277,2.7195157517485313,11.557941944931372,2.039636813811427,1.359757875874294,6.156565630328609,5.4390315034971195,5.778970972465686,19.036610262239876,16.996973448428463,21.766746530126994
84,26,121,0,4.033333333333323,0.6801304887506205,37.43190072858559,4.760913421254514,8.189855606211113,9.521826842509029,10.903321182288664,10.903321182288664,24.484697595023164,16.33729497062365,15.983066485640137,12.922479286262217,14.282740263763515,2.7205219550025674,10.882087820010298,2.040391466251947,1.360260977501298,6.158843519826722,5.483387302783957,5.781109154380474,19.723784173768664,17.68339270751673,21.77480008568148
85,26,122,0,4.066666666666656,1.520571842539434,36.72739759503859,4.760142806426302,8.160244811016554,9.520285612852632,10.880326414688739,10.901556340075405,25.1607548339677,17.000510022951147,16.320489622033108,13.600408018360923,14.280428419278962,3.0600918041312184,11.220336615147744,2.380071403213151,1.0200306013770444,6.157846632103532,5.440163207344369,6.120183608262408,19.04057122570528,17.680530423869186,21.080632428459438
86,26,123,0,4.099999999999989,1.3508580673957624,37.148596853383054,4.728003235885097,8.13324259053524,9.456006471770223,10.131435505468119,10.890965920712974,24.999999999999996,16.939673985780406,16.21029680874895,14.184009707655349,14.184009707655349,3.3771451684893634,10.806864539165986,2.0262871010936294,0.675429033697867,6.888051645745141,6.07886130328086,6.416575820129793,19.587441977238356,17.561154876144727,20.938300044634104
87,26,124,0,4.133333333333322,2.0130148349674926,36.23426702941481,5.3680395599133135,8.079969507924314,10.065074174837434,11.426802461667638,9.489442936230857,24.836248943708785,16.828718405444402,15.768616207245344,14.09110384477242,14.09110384477242,4.697034614924149,10.736079119826599,2.0130148349674926,0.0,6.186359921390953,5.368039559913299,5.703542032407881,18.78813845969657,17.44612856971824,20.80115329466406
88,26,125,0,4.166666666666655,2.766188383420511,37.570356798303635,4.696294599787933,9.416519401925894,10.06348842811704,11.42500217542898,8.74745572870796,25.502996778192493,16.157393026633752,14.759783027904973,14.088883799363856,14.088883799363856,5.3671938283290785,11.405286885199303,2.012697685623408,0.6708992285411455,6.1853852638985085,5.3671938283290785,5.702643442599651,19.45607762769295,17.44337994206954,21.47925555573373
89,26,126,0,4.199999999999989,2.766188383420511,37.570356798303635,5.3671938283290785,9.416519401925894,10.085826942680637,11.42500217542898,8.078696513316878,25.502996778192493,16.157393026633752,14.759783027904973,14.088883799363856,14.088883799363856,6.038093056870224,11.405286885199303,2.012697685623408,1.3417984570822625,6.0752509033192625,5.3671938283290785,6.038093056870224,18.785178399151818,17.44337994206954,20.808694226513136
90,26,127,0,4.233333333333322,4.695343665498484,38.23351270477332,4.695343665498456,8.049160569425965,10.732214092567943,10.732214092567943,8.160188718676354,25.524287391189564,17.491368981354668,15.092176067673677,14.086030996495424,14.086030996495424,6.036870427069459,11.402977473353445,2.6830535231419788,1.3415267615710036,6.074020749571799,5.366107046283986,6.036870427069488,18.781374661993908,17.43984790042292,20.793664804350385
91,26,128,0,4.266666666666655,5.403432269582964,39.18070618590583,4.728003235885126,8.780577438072385,10.806864539165986,11.482293572863881,8.883881902875197,27.725518562545293,18.9601964941002,16.21029680874895,14.184009707655349,14.859438741353216,5.741146786431926,13.170866157108549,3.714859685338297,1.688572584244696,6.116270033614237,5.445482960356473,5.741146786431912,18.912012943540475,17.561154876144727,21.62428008168353
92,26,129,0,4.299999999999988,6.079832156915842,40.53221437943898,5.446352657272173,8.10644287588778,10.808590501183716,12.159664313831712,8.21826116324219,27.77105847733865,19.695116019838792,16.55065420493756,14.186275032803621,14.186275032803621,6.079832156915842,13.510738126479652,4.728758344267874,1.351073812647968,6.117246861789518,5.404295250591858,5.742063703753843,18.91503337707151,17.563959564423556,22.302950967714953
93,26,130,0,4.3333333333333215,5.483387302783942,40.133462240100314,4.760913421254514,8.84169635375838,10.882087820010298,11.562218308760947,8.945719889364803,27.95989885748232,19.152648459428647,16.32313173001546,13.602609775012894,14.282740263763515,5.10097866562981,13.942675019388219,4.42084817687919,1.020195733125945,6.158843519826707,6.158843519826707,6.121174398755784,19.04365368501803,17.683392707516745,21.774800085681505
94,26,131,0,4.366666666666655,6.158843519826707,40.8078293250386,4.760913421254514,8.16156586500773,10.882087820010298,11.562218308760947,8.945719889364803,27.95989885748232,19.829040810613144,16.663196974390786,14.282740263763515,14.282740263763515,5.441043910005135,13.602609775012894,4.080782932503865,1.3602609775012695,6.835226818076126,6.121174398755784,6.121174398755784,19.04365368501803,17.683392707516745,21.774800085681505
95,26,132,0,4.399999999999988,6.15998341314016,40.821050543990644,4.761794582361659,8.163076426905718,10.203845533632176,12.244614640358577,8.947375584342772,27.96507374163867,19.832710816347053,16.66628103826585,13.605127378176206,14.285383747085007,5.101922766816074,13.945255562630592,5.101922766816074,1.0203845533632148,6.15998341314016,6.159983413140177,6.122307320179303,19.04717832944668,17.686665591629065,21.778830217140317
96,26,133,0,4.433333333333321,5.446974124537711,40.542469116735255,4.729297928959227,8.107367878215825,10.134209847769796,12.179804414148714,8.886314621254863,27.100459583225817,19.025462695642283,16.21473575643168,13.512279797026395,14.187893786877737,5.067104923884898,13.174472802100723,4.391490934033584,1.0134209847769853,6.117944882817355,6.117944882817373,6.080525908661883,18.91719171583695,17.565963736134307,21.63020156782847
97,26,134,0,4.466666666666654,5.520928953215009,41.08721744387404,4.793508701785299,8.21744348877482,10.956591318366407,12.326165233162186,8.33079289139376,26.7855886783188,18.60302891043387,15.750100020151734,13.695739147958022,13.695739147958022,5.478295659183203,13.010952190560118,4.108721744387395,1.369573914795808,4.842175012441599,4.793508701785299,4.451115223086347,19.174034807141226,17.119673934947514,21.239437758458404
98,26,135,0,4.499999999999988,5.445482960356462,40.525742021872446,4.728003235885126,8.10514840437449,10.82795112417143,11.482293572863881,8.216948836105923,26.419551486161268,18.348810100842716,15.534867775051083,12.833151640259615,12.833151640259615,4.728003235885126,13.508580673957454,4.728003235885097,0.6754290336978954,3.3771451684893776,3.3771451684893776,3.039430651640444,18.912012943540475,17.561154876144727,20.949191228748795
99,26,136,0,4.533333333333321,6.15656563032862,40.11285733829121,4.079273627622825,7.478668317308518,10.899288515971447,11.557941944931372,8.94241125498834,26.593610444678497,19.145564724203666,15.977155041522764,13.59757875874277,13.59757875874277,4.759152565559958,12.917699820805638,4.759152565559987,1.3597578758742657,2.8032126737475664,3.3993946896856926,3.059455220717112,19.716489200177023,18.356731324302743,21.08721001415339
100,26,137,0,4.566666666666654,5.440163207344369,40.12120365416473,4.136402614542654,8.160244811016554,10.880326414688739,11.560346815606778,8.866381266503584,26.555645579400394,18.410853798025062,15.64046922111504,13.600408018360923,13.600408018360923,4.76014280642633,12.920387617442856,4.080122405508263,0.6800204009180675,3.4674372939223117,3.4001020045902237,3.4001020045902237,19.72059162662333,18.36055082478724,21.771275555335723
101,26,138,0,4.599999999999987,5.403432269582964,39.85031298817458,4.1084744180529755,7.429719370676622,10.153924846138173,11.482293572863881,8.806517162053757,25.70182759271875,18.28654724706054,15.534867775051083,12.833151640259615,12.833151640259615,4.052574202187259,12.833151640259587,4.728003235885097,0.6754290336978954,3.3771451684893634,3.3771451684893776,3.3771451684893776,19.587441977238342,18.912012943540475,20.949191228748795
102,26,139,0,4.63333333333332,5.446352657272142,41.20775128576295,4.728758344267902,7.43090596956381,10.829680453923128,12.178414771097161,8.134541548964979,25.705932426091167,18.289467787599357,15.537348845451618,12.835201220155682,12.835201220155682,4.728758344267902,12.835201220155653,4.728758344267874,0.6755369063239982,3.37768453161992,3.37768453161992,3.377684531619934,19.590570283395508,18.23949647074754,21.6277336908175
103,26,140,0,4.666666666666654,5.408962503633282,40.25395371246816,4.025395371246816,7.3798915139524865,10.755332823221824,12.076186113740448,8.824301618274221,25.573495867154207,18.225752709957785,15.430682256446119,12.747085342281594,12.747085342281594,4.025395371246816,12.747085342281565,4.696294599787933,0.6708992285411455,3.3544961427056705,3.3544961427056847,3.3544961427056847,18.785178399151818,18.114279170610672,20.808694226513165
104,26,141,0,4.699999999999987,4.77676727403469,41.20775128576295,4.728758344267902,8.10644287588778,10.829680453923128,11.484127407507714,8.21826116324219,25.750275968497775,17.680492826472843,15.199580392289619,12.835201220155682,12.835201220155682,4.728758344267902,12.835201220155653,4.053221437943876,0.6755369063239982,3.37768453161992,2.702147625295936,3.039916078457921,19.590570283395508,18.23949647074754,21.62773369081747
105,26,142,0,4.73333333333332,5.447347107028451,41.21527541076941,4.729621768448936,7.432262778991202,10.810564042169034,12.161884547440138,8.219761735886877,25.754977712448685,18.355091430438787,15.54018581061797,12.837544800075705,12.837544800075705,4.729621768448936,12.837544800075733,4.729621768448965,0.6756602526355664,2.7858185886479396,3.3783012631778178,3.3783012631778178,18.918487073795802,18.242826821160236,21.631682699603928
106,26,143,0,4.766666666666653,4.745576218882243,40.93867532511297,4.697880775012976,8.05350990002222,10.738013200029627,12.08026485003333,8.164598042873488,25.582133324770954,17.565043780028706,15.10033106254167,12.751390675035196,12.751390675035196,4.697880775012976,12.751390675035168,4.02675495001111,0.6711258250018659,2.7671226645624247,3.3556291250092585,3.3556291250092443,18.791523100051847,18.120397275049996,20.815722370626702
107,26,144,0,4.7999999999999865,4.777312336883691,40.53683939107921,4.729297928959227,8.107367878215825,10.80982383762111,12.161051817323766,8.21919892482577,25.753214256669697,17.68251029545101,15.201314771654665,12.836665807175052,12.836665807175052,4.729297928959227,12.83666580717508,4.053683939107941,0.675613989851314,4.109599462412882,4.053683939107913,4.053683939107913,18.91719171583695,18.241577725985636,21.63020156782847
108,26,145,0,4.83333333333332,4.729621768448965,40.53961515813384,4.729621768448936,8.107923031626768,10.810564042169034,12.18063842835241,8.219761735886877,25.710626073352838,17.6190637763264,15.202355684300187,12.837544800075705,12.837544800075705,4.729621768448936,12.837544800075733,4.053961515813398,0.6756602526355664,4.109880867943438,4.7296217684489505,4.7296217684489505,18.242826821160236,17.56716656852467,20.9454678317025
109,26,146,0,4.866666666666653,4.666562966419633,40.0046661871022,4.7139404548418735,7.333170375802268,10.66642963753057,11.999733342221901,8.027551331147356,24.702127488131286,17.384153436978522,14.999666677777356,11.999733342221901,12.666385194567539,4.333237040246786,12.33305926839472,4.333237040246786,0.33332592617281875,4.7139404548419055,4.666562966419633,4.666562966419633,17.999600013332838,17.999600013332838,21.33285927506114
110,26,147,0,4.899999999999986,5.410789382704436,40.2675495001111,4.697880775012948,8.05350990002222,10.75896544083096,11.409139025031493,8.164598042873488,26.251230555274088,18.231908464625928,15.435893975042575,13.422516500037034,13.422516500037034,5.369006600014814,12.751390675035168,4.02675495001111,1.3422516500037034,5.369006600014814,5.369006600014814,5.369006600014814,18.120397275049996,17.449271450048144,21.476026400059254
111,26,148,0,4.933333333333319,6.16012594431117,40.81632653061226,4.081632653061206,7.513851032100183,10.905591525089383,11.564625850340121,8.947582610861163,26.565475088117864,19.156636517454032,15.986394557823104,13.605442176870753,13.605442176870753,4.761904761904759,12.9251700680272,4.761904761904759,1.3605442176870781,5.484529080475201,5.442176870748298,5.782312925170061,18.367346938775512,18.367346938775512,22.448979591836746
112,26,149,0,4.966666666666653,6.118503471714485,40.54054054054055,4.729729729729712,8.108108108108098,10.831905095865805,11.486486486486484,8.219949365267883,27.102933946123763,19.02719978422802,15.878378378378386,13.513513513513516,13.513513513513516,5.405405405405389,13.513513513513516,4.7297297297297405,1.3513513513513544,6.081081081081081,5.447471451553072,5.743243243243242,18.243243243243242,18.243243243243242,20.945945945945937
113,26,150,0,4.999999999999986,7.534069854065137,41.094926476718996,4.794408088950547,8.218985295343828,10.980029806762634,12.328477943015685,8.332355965264885,28.79904508640884,20.593073645732005,16.780428311326915,14.383224266851641,14.383224266851641,6.164238971507842,14.38322426685167,5.479323530229209,2.054746323835957,6.202173107835526,6.1642389715078565,6.1642389715078565,19.177632355802203,18.492716914523555,21.917294120916807
114,26,151,0,5.033333333333319,8.903900736622461,41.094926476718996,4.794408088950547,8.2189852953438,11.643562501737051,12.328477943015685,9.13791172987258,30.889610468598026,22.695414945506425,18.15025919388421,16.4379705906876,16.4379705906876,7.534069854065166,14.383224266851641,5.4793235302291805,3.424577206393252,6.202173107835526,6.164238971507842,6.164238971507842,19.177632355802203,18.492716914523555,21.91729412091678
115,26,152,0,5.066666666666652,8.2189852953438,41.094926476718996,4.843083530675099,8.903900736622461,11.66368967752311,12.328477943015685,8.930204784288426,30.8516205262092,21.960059613525235,17.807801473244893,16.4379705906876,16.4379705906876,7.534069854065137,14.38322426685167,4.794408088950547,3.424577206393252,6.883314995835552,6.164238971507842,6.164238971507842,18.492716914523555,18.492716914523555,21.91729412091678
116,26,153,0,5.099999999999985,6.849154412786504,39.7309995988899,4.794408088950547,8.2189852953438,10.273731619179756,11.643562501737051,9.008656113673876,28.79904508640884,20.593073645732034,17.12288603196626,15.753055149408965,16.437970590687627,7.191612133425849,12.670935663655001,3.7670349270325687,3.0821194857539354,6.883314995835566,5.479323530229195,5.821781250868526,19.177632355802203,18.492716914523555,21.243422830543444
117,26,154,0,5.133333333333319,2.720836622636682,39.45213102823175,4.761464089614151,7.482300712250833,9.52292817922833,10.203137334887515,9.54719045595007,24.49697513141157,17.01882763726812,15.64481058016085,15.64481058016085,15.64481058016085,6.121882400932492,8.842719023569174,1.360418311318341,2.0406274669774973,6.159555878981024,6.121882400932506,6.121882400932506,19.04585635845669,18.36564720279752,21.097452088243738
118,26,155,0,5.166666666666652,2.026610718971966,38.50560366046702,4.728758344267874,7.4615490107822025,9.457516688535748,10.133053594859746,8.134541548964979,22.29271790869143,14.877157128490714,13.84850657964165,14.186275032803621,14.186275032803621,6.079832156915842,8.106442875887808,0.6755369063239982,1.351073812647968,6.117246861789535,6.079832156915856,6.079832156915856,19.590570283395493,18.91503337707151,20.952537019586856
119,26,156,0,5.199999999999985,2.0543608721936835,39.032856571680355,4.793508701785299,7.532656531376915,10.271804360968503,10.956591318366407,8.245926913830242,22.608342773283464,15.080868372073361,14.03813262665696,14.380526105355926,14.380526105355926,6.163082616581107,8.21744348877479,0.6847869573978755,1.369573914795808,6.201009636811292,5.478295659183203,5.820689137882155,19.17403480714121,18.48924784974332,21.239437758458404
120,26,157,0,5.233333333333318,2.0396368138113985,38.753099462416884,4.759152565559987,7.5095083174975406,10.198184069057078,10.198184069057078,8.186826533298898,22.436004951925554,14.972780455596995,13.937518227711337,14.277457696679903,14.277457696679903,6.118910441434252,8.15854725524565,0.6798789379371328,1.3597578758742657,6.798789379371385,6.118910441434252,6.118910441434252,19.036610262239876,18.356731324302743,21.07624707605129
121,26,158,0,5.266666666666652,4.080782932503865,39.4534311057398,4.760913421254514,7.481435376257082,9.521826842509,10.20195733125965,8.189855606211113,24.49414203031947,17.016859391845703,14.962870752514164,14.282740263763543,14.962870752514164,6.461239643131137,9.861892086884325,1.020195733125945,2.3804567106272714,6.835226818076126,6.121174398755784,6.121174398755784,19.04365368501803,17.683392707516745,20.415247023660974
122,26,159,0,5.299999999999985,5.441043910005135,38.77340345670747,4.760913421254514,8.189855606211113,10.20195733125965,10.882087820010298,8.189855606211113,26.52508906127511,18.376113889002166,15.643001241264813,15.643001241264813,16.32313173001546,7.821500620632406,10.542022575634974,1.7003262218766224,3.740717688128541,6.835226818076124,6.158843519826707,6.121174398755784,19.04365368501803,17.683392707516745,21.095012145588303
123,26,160,0,5.333333333333318,6.117246861789518,36.485247376678885,4.728758344267874,8.134541548965005,9.457516688535748,10.133053594859746,8.80792364902093,27.70525018940125,19.590570283395493,16.55065420493756,15.537348845451618,16.212885751775588,7.093137516401839,11.821895860669684,3.0399160784579067,2.3643791721339653,6.117246861789535,6.079832156915856,6.079832156915856,19.590570283395493,18.91503337707151,21.61718100236746
124,26,161,0,5.366666666666651,1.369573914795808,37.66950747845534,5.478295659183203,8.245926913830214,9.587017403570599,10.271804360968503,10.294605286606856,25.337117423722304,17.13336420017807,16.43488697754961,15.065313062753802,15.750100020151706,5.135902180484237,9.929410882269565,1.0271804360968702,0.34239347869893777,6.201009636811292,6.201009636811288,6.163082616581107,19.174034807141226,18.48924784974332,20.55501866934374
125,26,162,0,5.399999999999984,1.3512279797026565,37.158769441822585,5.404911918810541,8.135469757549872,9.458595857918453,10.80982383762111,10.156705346809915,24.99771762449882,16.903856625487713,16.21473575643168,14.863507776729023,14.863507776729023,4.729297928959227,10.134209847769796,1.3512279797026565,0.0,6.117944882817373,6.080525908661883,6.41833290358754,18.91719171583695,18.24157772598562,21.630201567828497
126,26,163,0,5.433333333333318,0.684786957397904,38.35418329620477,5.478295659183203,7.5637191643210535,10.271804360968503,10.271804360968503,9.587017403570627,23.29282477104854,15.750100020151734,15.407706541452797,13.695739147958022,14.380526105355926,4.4511152230863615,9.24462392487166,1.0271804360968417,0.34239347869893777,6.201009636811292,5.478295659183203,5.820689137882155,19.174034807141226,17.804460892345418,21.228395679334938
127,26,164,0,5.466666666666651,1.5312301868469658,38.37251849761675,4.793508701785299,8.21744348877479,10.294605286606856,10.977970053462723,9.611442965204985,23.967543508926525,15.750100020151734,15.06531306275383,13.010952190560118,14.380526105355926,4.108721744387395,10.271804360968503,0.684786957397904,0.684786957397904,6.201009636811292,6.163082616581107,6.163082616581107,18.489247849743307,17.804460892345418,20.543608721937034
128,26,165,0,5.499999999999984,1.3885875787890427,38.886650763678446,5.554350315156199,8.331525472734256,10.414406840917849,11.10870063031237,9.052483483476053,24.310199088159543,15.983843373095754,15.274463366679498,13.885875787890456,14.580169577284977,5.207203420458939,10.06725994622056,1.041440684091782,0.3471468946972607,6.248644104550692,5.597575483141541,5.9014972098534315,18.745932313652105,18.051638524257584,21.534302846484643
129,26,166,0,5.533333333333317,1.3791791568546046,37.244221776438835,5.516716627418418,8.275074941127599,9.654254097982232,11.033433254836837,8.9911480765719,24.145484515002305,15.875544303677861,15.17097072540065,13.791791568546046,14.481381146973348,5.171921838204753,9.999048887195869,1.0343843676409676,0.34479478921363693,6.930289492815564,5.559648921821438,5.861511416632055,18.618918617537147,17.929329039109845,21.388396451858483
130,26,167,0,5.56666666666665,2.7026410105422656,37.836974147591604,4.729621768448936,8.8095318881632,9.459243536897901,10.810564042169034,8.8095318881632,24.99942934751587,16.229916214328615,14.864525557982404,14.188865305346837,14.188865305346837,5.405282021084503,10.810564042169034,1.3513205052711328,1.3513205052711328,6.118363810146266,6.118363810146266,6.080942273720083,18.918487073795802,18.242826821160236,20.9454678317025
131,26,168,0,5.599999999999984,3.3330370765373516,36.663407841910924,4.6662519071522865,7.999288983689667,10.021306842338346,10.686529823040205,8.109629216502475,24.03487216495607,16.054032476698378,14.332059429110643,13.332148306149435,13.332148306149435,5.332859322459768,10.665718644919536,1.9998222459224166,1.333214830614935,6.036386881547468,6.036386881547468,5.999466737767236,17.998400213301736,17.998400213301736,19.998222459224166
132,26,169,0,5.633333333333317,2.6843219493671313,36.238346316456074,4.697563411392451,8.749819054326176,9.419063490427472,10.066207310126714,8.82668570557047,24.839045031411835,16.161758316616122,14.763770721519137,14.092690234177354,14.092690234177354,5.368643898734234,10.737287797468468,1.3421609746835657,1.3421609746835657,6.744275429546081,6.076892271568764,6.375264629746908,18.11917315822805,18.11917315822805,20.1324146202534
133,26,170,0,5.66666666666665,1.4905794949329376,36.663407841910924,5.374360799135929,8.665896398997148,9.999111229612083,10.686529823040177,9.356280932622367,24.673480930257572,16.012459599463707,15.331970552071823,13.332148306149435,13.332148306149435,3.9996444918448333,11.332326060227018,1.9998222459224166,0.6666074153074817,6.699321611956956,6.699321611956956,6.666074153074703,17.998400213301736,17.998400213301736,19.998222459224166
134,26,171,0,5.699999999999983,0.6666518523456659,36.0053721998832,5.333214818765299,8.666474080493572,9.333125932839238,10.021974877503604,9.427880909683779,24.036474365153268,15.390853158994636,14.999666677777384,13.99968889925887,13.333037046913205,4.333237040246814,10.333103711357722,0.9999777785184847,0.33332592617281875,6.6997681986637465,6.03678927604268,6.333192597283784,17.999600013332838,17.999600013332838,20.666207422715473
135,26,172,0,5.7333333333333165,0.6666518523456659,36.0053721998832,5.333214818765299,8.666474080493572,9.333125932839238,10.021974877503604,9.427880909683779,24.036474365153268,15.390853158994636,14.999666677777384,13.99968889925887,13.333037046913205,4.333237040246814,10.333103711357722,0.9999777785184847,0.33332592617281875,6.6997681986637465,6.03678927604268,6.333192597283784,17.999600013332838,17.999600013332838,20.666207422715473
136,26,173,0,5.76666666666665,1.3333037046913319,36.67191184961367,4.666562966419633,7.999822228147906,9.333125932839238,9.999777785184904,10.088273118924816,24.036474365153268,16.05510266229471,15.332992603950203,13.99968889925887,13.333037046913205,3.66658518790112,10.33310371135775,1.666629630864179,0.3333259261728472,6.036789276042677,6.03678927604268,6.3331925972837695,18.666251865678504,18.666251865678504,19.999555570369807
137,26,174,0,5.799999999999983,1.360260977501298,37.43190072858559,5.441043910005135,8.16156586500773,9.546086313272765,10.903321182288664,9.546086313272767,24.49414203031947,16.33729497062368,15.643001241264813,14.282740263763515,12.922479286262245,4.080782932503865,10.882087820010298,1.3602609775012695,0.0,6.158843519826707,5.441043910005149,5.781109154380459,19.04365368501803,18.36352319626738,20.4039146625193
138,26,175,0,5.833333333333316,2.054746323835957,36.9917750950738,5.479323530229209,8.247474064632126,8.93020478428843,10.273731619179756,9.686167061350194,25.351125251784026,17.17759187751627,16.09551287004828,15.068139708130303,14.383224266851641,5.136865809589864,10.616189339819101,1.7122886031966402,0.3424577206393167,6.202173107835511,6.164238971507842,6.164238971507842,19.177632355802203,18.492716914523555,21.243422830543444
139,26,176,0,5.866666666666649,2.7585550886495014,37.936401394263726,5.517110177299003,8.275665265948476,9.679541430549104,11.034220354598006,8.99178948440391,25.5259523116257,17.254756566801724,15.861691759734612,15.172052987572243,14.482414215409875,5.861929563380187,10.689400968516793,1.7240969304059206,1.0344581582435808,6.244944688122502,6.206748949461371,6.206748949461371,19.309885620546495,18.620246848384127,21.378801937033614
140,26,177,0,5.899999999999983,2.7396617651145903,37.69524705841758,5.479323530229209,8.2189852953438,9.588816177901123,10.980029806762605,8.247474064632122,24.66646676618685,16.452233474577618,15.068139708130303,15.068139708130303,13.698308825573008,6.164238971507871,10.273731619179728,2.0547463238359285,1.3698308825573235,6.883314995835552,5.479323530229195,6.164238971507842,18.492716914523555,18.492716914523555,20.558875326569726
141,26,178,0,5.933333333333316,3.4246575342465633,39.04710359928555,4.794520547945211,8.219178082191775,10.296778341351299,10.980287357453012,8.93041425370226,25.35171989496129,17.136980826296988,15.410958904109606,15.06849315068493,14.383561643835606,5.821917808219155,10.616438356164394,1.7123287671232958,1.7123287671232674,6.164383561643831,5.479452054794521,5.821917808219183,18.493150684931507,18.493150684931507,20.547945205479436
142,26,179,0,5.966666666666649,3.4012818445440587,38.10042989235704,4.761794582361659,8.163076426905718,10.226495607081915,10.884101902540948,8.947375584342767,25.206229443859552,17.060742936941192,15.305768300448221,14.965640115993835,14.285383747085007,5.782179135724874,10.543973718086562,2.380897291180844,1.7006409222720151,6.1599834131401625,5.442050951270488,5.782179135724888,18.36692196053788,17.686665591629065,21.768203805081924
143,26,180,0,5.999999999999982,4.810250212153384,38.781477044188335,5.4421768707483125,8.16326530612244,10.204081632653072,11.564625850340121,8.191560937953932,26.565475088117868,18.41766853153862,15.986394557823132,14.96598639455783,14.285714285714278,6.462585034013614,11.904761904761898,3.0612244897959044,1.7006802721088548,6.160125944311167,6.122448979591837,6.122448979591837,18.367346938775512,18.367346938775512,21.779334140928054
144,26,181,0,6.033333333333316,6.836491898008887,39.46073324000664,4.761794582361659,8.163076426905718,10.203845533632148,12.244614640358577,8.947375584342767,28.6435593764618,20.509475694026627,17.006409222720265,14.285383747085035,14.965640115993835,5.782179135724874,13.94525556263062,5.101922766816102,1.7006409222720151,6.802563689088103,5.442050951270474,6.122307320179289,18.36692196053788,17.686665591629065,20.407691067264324
145,26,182,0,6.066666666666649,8.93020478428843,41.10063370908826,4.794408088950547,8.903900736622433,10.95864706045839,12.347488714436071,9.008656113673876,31.57304180177445,22.695414945506453,18.15025919388424,14.38322426685167,15.068139708130303,5.821781250868526,16.780428311326915,7.191612133425821,1.7122886031966118,6.202173107835523,6.1642389715078565,6.1642389715078565,19.177632355802203,17.807801473244893,21.243422830543444
146,26,183,0,6.099999999999982,8.053691275167779,40.94509810112655,4.026845637583904,8.053691275167779,10.738255033557039,12.080536912751654,8.954136955789473,28.92921082181516,20.90256577503011,16.778523489932894,13.422818791946298,14.093959731543634,5.033557046979865,15.100671140939596,6.375838926174509,1.0067114093959617,6.077439690025117,6.0774396900251135,6.040268456375841,18.79194630872483,18.120805369127524,20.80536912751677
147,26,184,0,6.133333333333315,8.136212553238057,41.216216216216225,4.054054054054035,8.108108108108098,11.486486486486484,12.162162162162161,8.887125971598605,29.124678462503127,21.043799327564123,16.891891891891902,13.513513513513516,13.513513513513516,4.729729729729712,15.540540540540547,6.756756756756772,0.6756756756756772,6.118503471714471,6.118503471714471,6.081081081081081,18.243243243243242,17.567567567567565,21.621621621621614
148,26,185,0,6.166666666666648,4.761794582361688,42.18138045406579,4.810138914007565,7.513677178838708,11.564358271449777,11.564358271449777,8.947375584342767,25.885520225302923,18.47995023942051,15.98602466935705,12.244614640358577,12.924871009267406,3.7414100289984447,13.264999193721792,5.101922766816074,0.3401281844544144,6.15998341314016,6.159983413140177,6.462435504633703,19.047178329446695,18.36692196053788,21.087947436173124
149,26,186,0,6.1999999999999815,4.794070759441212,42.461769583622015,4.794070759441183,7.533539764836149,11.64274327292864,12.327610524277361,8.331769709464913,25.37708114923352,17.859152928948983,15.409513155346701,11.642743272928612,11.642743272928612,3.4243362567437146,13.69734502697483,4.794070759441183,0.6848672513487486,6.201736729460424,5.521576303742337,5.821371636464306,19.176283037764776,18.49141578641604,21.915752043159756
150,26,187,0,6.233333333333315,4.794408088950547,42.47028051171683,4.794408088950547,7.534069854065137,10.958647060458418,12.328477943015685,8.332355965264885,25.378866779601214,17.860409568576827,15.41059742876962,10.95864706045839,11.643562501737051,3.0821194857539354,14.040766546212296,5.821781250868497,1.02737316191795,6.202173107835526,6.1642389715078565,6.1642389715078565,19.177632355802203,18.492716914523555,21.243422830543444
151,26,188,0,6.266666666666648,4.794408088950547,42.47028051171683,4.794408088950547,7.534069854065137,10.958647060458418,12.328477943015685,8.332355965264885,25.378866779601214,17.860409568576827,15.41059742876962,11.643562501737051,12.328477943015685,3.7670349270325687,13.355851104933663,5.136865809589864,0.3424577206393167,6.202173107835526,5.479323530229195,5.821781250868526,18.492716914523555,17.807801473244908,21.232378679638146
152,26,189,0,6.299999999999981,4.8274714051366345,42.76316511540886,4.8274714051366345,7.5860264937861075,11.723859126760374,12.41349789892277,8.389817765500338,25.55388515125635,17.98357896880785,15.516872373653456,11.723859126760374,12.41349789892277,3.7930132468930537,13.447956057166323,5.172290791217819,0.34481938608121254,6.244944688122518,5.560045534393208,5.861929563380201,18.620246848384127,17.93060807622176,21.38992225088682
153,26,190,0,6.333333333333314,4.794408088950547,42.47028051171683,4.794408088950547,7.534069854065137,11.643562501737051,12.328477943015685,8.332355965264885,25.378866779601214,17.860409568576827,15.41059742876962,11.643562501737051,12.328477943015685,3.7670349270325687,13.355851104933663,5.136865809589864,0.3424577206393167,6.202173107835526,5.5219648233781164,5.821781250868526,19.177632355802203,18.492716914523555,21.243422830543444
154,26,191,0,6.366666666666648,4.794408088950547,42.47028051171683,4.794408088950547,7.534069854065137,10.958647060458418,12.328477943015685,8.332355965264885,25.378866779601214,17.860409568576827,15.41059742876962,11.643562501737051,12.328477943015685,3.7670349270325687,13.355851104933663,5.136865809589864,0.3424577206393167,6.202173107835526,6.164238971507842,6.164238971507842,19.177632355802203,18.492716914523555,21.243422830543444
155,26,192,0,6.399999999999981,4.794520547945211,42.471276706650656,4.794520547945211,7.534246575342451,11.643835616438366,12.328767123287662,8.332551411367417,25.379462073491638,17.860828507404523,15.410958904109577,11.643835616438338,12.328767123287662,3.767123287671211,13.356164383561662,5.1369863013698875,0.3424657534246762,6.20231858776535,5.52209434814969,5.821917808219183,18.493150684931507,17.808219178082183,22.60273972602738
156,26,193,0,6.433333333333314,4.843083530675099,42.47028051171683,4.794408088950547,7.5651383151688,11.643562501737051,12.328477943015685,8.332355965264885,25.378866779601214,17.925952576245994,15.41059742876962,11.643562501737051,12.328477943015685,3.7670349270325687,13.355851104933663,5.136865809589864,0.3424577206393167,6.202173107835526,5.479323530229195,5.821781250868526,19.177632355802203,18.492716914523555,21.243422830543444
157,26,194,0,6.466666666666647,6.836491898008857,42.18138045406579,4.081538213452859,7.513677178838733,11.564358271449777,12.244614640358577,8.275675903590493,26.564860424017375,19.15619327686774,15.645896484902636,11.564358271449777,12.244614640358606,3.7414100289984447,14.625511931539421,5.782179135724903,0.3401281844544144,6.836491898008873,6.1599834131401705,6.122307320179303,19.047178329446695,18.36692196053788,21.778830217140317
158,26,195,0,6.4999999999999805,6.756139898513197,41.89351551639512,4.053683939107913,7.431753888364511,10.80982383762111,12.161051817323766,8.21919892482577,26.383569726371338,18.9653884607424,15.539121766580337,11.485437827472424,12.161051817323738,3.7158769441822415,14.52570078180338,5.74271891373624,0.3378069949256428,6.789836565894994,6.080525908661883,6.41833290358754,18.91719171583695,18.24157772598562,21.61964767524222
159,26,196,0,6.533333333333314,6.836491898008857,42.18138045406576,4.081538213452859,8.191371404041256,11.564358271449777,12.263496092808307,8.947375584342772,27.923674646043338,19.832710816347053,16.326152853811436,12.244614640358577,12.924871009267406,3.7414100289984447,15.305768300448221,6.462435504633703,0.3401281844544144,6.836491898008873,6.1599834131401705,6.462435504633703,19.047178329446695,17.686665591629065,21.768203805081924
160,26,197,0,6.566666666666647,6.836017410722296,41.49833360554616,4.081254933954995,7.482300712250861,11.583544521360544,12.26264494384597,8.275101529618755,26.606526981684667,19.154863739686277,15.64481058016085,11.563555646205856,12.243764801865012,3.7411503561254165,14.624496846672116,5.781777823102942,0.34010457782957815,6.836017410722296,6.121882400932506,6.461986978762084,19.72606551411586,18.365647202797533,21.777318655624725
161,26,198,0,6.59999999999998,4.810138914007589,42.18138045406576,4.761794582361659,7.482820057996889,11.564358271449777,12.244614640358577,8.275675903590493,25.252084001398725,17.804012982950937,15.30576830044825,11.564358271449777,12.244614640358606,3.7414100289984447,13.264999193721792,4.4216663979072734,0.3401281844544144,6.8364918980088705,6.122307320179303,6.462435504633703,19.047178329446695,18.36692196053788,21.778830217140317
162,26,199,0,6.633333333333313,4.761794582361659,41.501214000742216,4.1378379517952295,8.163076426905718,11.564358271449777,12.263496092808307,8.275675903590493,25.252084001398725,17.12841770852153,14.625511931539421,11.564358271449777,12.244614640358606,3.7414100289984447,13.264999193721792,4.4216663979072734,0.3401281844544144,6.122307320179303,6.1599834131401705,6.462435504633703,19.047178329446695,18.36692196053788,21.778830217140317
163,26,200,0,6.666666666666647,4.137933694080429,41.50217426576771,4.761904761904759,8.16326530612244,11.56462585034015,12.263779848516974,8.275867388160835,25.25266829016405,17.12881402995125,14.96598639455783,11.564625850340121,12.244897959183675,3.7414965986394577,13.265306122448976,4.421768707482983,0.34013605442177663,6.160125944311167,6.16012594431117,6.4625850340136,19.047619047619037,18.367346938775498,21.779334140928054
164,26,201,0,6.69999999999998,4.109880867943452,41.22081323752074,4.729621768448936,7.432262778991202,11.486224294804572,12.161884547440138,8.219761735886877,24.408080505725522,17.012690457791958,14.864525557982404,11.4862242948046,12.161884547440138,3.716131389495615,12.499714673757921,4.391791642131153,0.3378301263177548,6.118363810146266,6.118363810146266,6.080942273720083,18.918487073795802,18.242826821160236,21.631682699603928
165,26,202,0,6.733333333333313,4.761794582361659,41.501214000742216,4.1378379517952295,7.482820057996918,11.584348534030298,12.244614640358577,8.275675903590493,24.5741142121238,17.12841770852153,14.625511931539421,11.564358271449777,12.244614640358606,3.7414100289984447,12.584742824812992,4.4216663979072734,0.3401281844544144,6.159983413140177,6.122307320179289,6.462435504633689,19.047178329446695,17.686665591629065,20.41902552582618
166,26,203,0,6.766666666666646,4.809805065917741,41.49833360554616,4.081254933954995,8.162509867910018,11.583544521360544,12.26264494384597,8.275101529618755,25.2503313784165,17.127228909271395,14.624496846672116,11.563555646205856,12.243764801865012,3.7411503561254165,13.264078535353775,4.421359511784601,0.34010457782957815,6.159555878981027,6.121882400932506,6.461986978762084,19.04585635845669,17.685438047138362,21.777318655624725
167,26,204,0,6.799999999999979,4.109492647671885,41.78545560185477,4.843083530675099,7.534069854065166,10.95864706045839,12.328477943015713,8.332355965264885,24.742422193896374,17.245730153258855,15.068139708130303,11.643562501737051,12.328477943015685,3.7670349270325687,12.67093566365503,4.4519503683112305,0.3424577206393167,6.202173107835523,5.479323530229195,5.821781250868526,19.86254779708085,18.492716914523555,21.9279933132167
168,26,205,0,6.833333333333313,3.401360544217681,41.50217426576771,4.761904761904759,8.163265306122469,10.884353741496597,12.244897959183675,8.414501276770725,24.57468281386183,16.45358724142559,14.625850340136026,11.564625850340121,12.244897959183675,3.7414965986394577,12.585034013605451,3.7414965986394577,0.34013605442177663,5.484529080475219,5.484529080475198,5.442176870748298,19.727891156462576,18.367346938775512,20.419497986127386
169,26,206,0,6.866666666666646,3.4445758674980844,40.53784346277693,4.728758344267902,7.43090596956381,10.808590501183744,11.484127407507714,8.21826116324219,23.730487520662727,16.339057971816487,14.524043485965649,11.484127407507714,12.159664313831684,3.7154529847819333,11.821895860669684,3.7154529847818765,0.3377684531619707,3.37768453161992,3.37768453161992,3.377684531619934,18.915033377071524,17.563959564423556,20.277363012408834
170,26,207,0,6.899999999999979,3.4911691116817116,41.086180823251446,4.7927221530777615,7.562478062259256,10.954793492749161,11.63946808604598,8.329425923106154,24.002703141727217,16.560069134611396,14.72050375588168,11.63946808604598,12.324142679342799,3.765710263132547,11.981805382694375,3.7657102631325188,0.3423372966483953,3.491169111681698,3.4233729664841093,3.4233729664841093,19.170888612311032,18.486214019014213,21.23595265947198
171,26,208,0,6.933333333333312,3.377684531619906,40.53784346277693,4.728758344267902,7.43090596956381,10.808590501183744,11.484127407507714,8.21826116324219,23.682362369689823,16.26908309792998,14.524043485965649,11.484127407507714,12.159664313831684,3.7154529847819333,11.821895860669684,3.7154529847818765,0.3377684531619707,3.444575867498098,3.37768453161992,3.715452984781905,19.590570283395508,18.915033377071524,21.62773369081747
172,26,209,0,6.9666666666666455,3.4679986339289295,42.173574869162884,4.760913421254514,8.161565865007702,10.882087820010298,11.582204872181077,8.27414450537167,24.569566818633305,16.450161908351884,14.622805508138839,11.562218308760947,12.242348797511596,3.740717688128541,12.582414041886892,3.740717688128541,0.3400652443753245,3.4006524437532164,3.4006524437532164,3.7407176881285267,19.04365368501803,18.36352319626738,21.774800085681505
173,26,210,0,6.999999999999979,3.4010457782958383,41.4983336055461,4.761464089614179,7.482300712250833,10.883346490546671,11.563555646205856,8.275101529618755,23.84615786450521,16.381605762460648,14.624496846672116,11.563555646205856,12.243764801865012,3.7411503561254165,11.903660224035434,3.7411503561254165,0.34010457782957815,3.4010457782958383,3.4010457782958383,3.7411503561254165,19.72606551411586,18.365647202797533,21.097452088243738
174,26,211,0,7.033333333333312,3.4218525001471063,40.94141001806184,4.697563411392451,7.412326254279929,10.737287797468497,11.408368284810251,8.16404648643367,23.52613326034034,16.23127157640968,14.428230477848246,11.408368284810251,12.079448772152034,3.6909426803798056,11.743908528481143,3.690942680379777,0.3355402436708914,4.082023243216837,4.697563411392451,4.36202316772156,19.461334132911603,18.11917315822805,21.485058668831975
175,26,212,0,7.066666666666645,3.4010457782958383,40.83521668333567,4.761464089614179,7.482300712250833,10.883346490546671,11.563555646205856,8.275101529618755,23.84615786450521,16.381605762460648,14.624496846672116,11.563555646205856,12.923973957524197,4.081254933955023,11.563555646205828,3.40104577829581,2.842170943040401e-14,4.809805065917741,4.761464089614179,4.761464089614179,19.72606551411586,18.365647202797533,21.097452088243738
176,26,213,0,7.099999999999978,3.4679986339289295,41.487959813789246,4.760913421254514,7.481435376257082,11.582204872181077,12.242348797511596,8.27414450537167,23.891852428235584,16.450161908351884,14.622805508138839,12.242348797511596,12.242348797511596,4.080782932503865,11.562218308760947,3.4006524437532164,0.0,4.809248806873005,4.7609134212545,5.100978665629825,19.723784173768664,18.36352319626738,21.09501214558833
177,26,214,0,7.133333333333312,4.137072252685806,41.487959813789246,4.760913421254514,7.481435376257082,11.562218308760947,12.26122675598416,8.27414450537167,24.569566818633305,17.125248127127147,14.962870752514164,12.242348797511596,12.242348797511596,4.080782932503865,12.242348797511568,4.080782932503865,0.0,5.483387302783957,4.7609134212545,5.100978665629825,19.723784173768664,18.36352319626738,21.09501214558833
178,26,215,0,7.166666666666645,4.080782932503837,41.487959813789246,4.809248806873019,7.481435376257082,11.562218308760947,12.26122675598416,8.27414450537167,24.569566818633305,17.125248127127147,14.962870752514164,12.242348797511596,12.242348797511596,4.080782932503865,12.242348797511568,4.080782932503865,0.0,4.809248806873005,4.7609134212545,5.100978665629825,19.723784173768664,17.68339270751673,21.09501214558833
179,26,216,0,7.199999999999978,4.081563737024906,40.953295897212776,4.697034614924149,7.411491861723197,10.736079119826599,11.42680246166764,8.163127474049785,24.19342735248322,16.895472806368655,14.762108789761584,11.407084064815763,12.749093954794091,4.026029669934985,12.078089009804955,4.026029669934985,0.0,6.076208206471578,4.697034614924149,5.032537087418731,19.45914340468572,17.44612856971824,20.130148349674897
180,26,217,0,7.233333333333311,3.3780699492565986,41.217990828504185,4.7773123368836625,8.107367878215854,10.809823837621138,11.50529166740322,8.135469757549872,24.3596088282974,16.270939515099744,14.525700781803351,11.485437827472424,12.161051817323738,3.7158769441822415,12.498858812249438,3.71587694418227,0.33780699492567123,5.446974124537711,5.404911918810555,5.404911918810555,19.592805705688278,18.241577725985636,20.954927851893736
181,26,218,0,7.266666666666644,4.109599462412911,41.217990828504185,4.729297928959227,6.756139898513197,10.80982383762111,11.485437827472452,8.21919892482577,23.733195336721916,17.011525590649047,14.863507776729023,12.161051817323738,12.836665807175052,4.391490934033584,11.147630832546781,3.0402629543309274,0.33780699492567123,6.117944882817369,5.404911918810555,5.404911918810555,19.592805705688278,18.241577725985636,20.954927851893736
182,26,219,0,7.299999999999978,3.400102004590252,42.16674853579447,4.760142806426302,7.4802244100984865,10.880326414688739,11.560346815606778,8.272805229085332,23.839540671371267,16.37705994632582,14.620438619737968,11.560346815606778,12.240367216524817,3.7401122050492575,11.900357016065783,3.740112205049229,0.3400102004590053,5.482499746302603,6.120183608262408,6.120183608262408,19.040571225705293,17.6805304238692,21.091597647629268
183,26,220,0,7.333333333333311,4.165884854732445,42.46729234745933,4.794070759441212,7.564606039995601,11.642743272928612,11.642743272928612,8.331769709464913,24.693239916239744,17.244516761828024,15.067079529672327,12.327610524277361,13.01247777562611,4.4516371337668375,11.985176898602987,3.7667698824180604,0.3424336256743743,6.201736729460424,5.478938010789946,5.82137163646432,19.176283037764776,17.806548535067293,21.92645048267571
184,26,221,0,7.366666666666644,4.761464089614179,41.4983336055461,4.081254933954995,7.482300712250833,10.883346490546671,11.563555646205856,8.275101529618755,24.525289887691944,17.059558834664188,14.624496846672116,12.243764801865012,12.923973957524169,4.421359511784573,11.903660224035434,3.7411503561254165,1.0203137334887344,6.121882400932506,5.441673245273336,5.781777823102914,19.72606551411586,18.365647202797533,21.097452088243738
185,26,222,0,7.399999999999977,4.109203508092435,41.782515621157486,4.109203508092463,7.533539764836178,10.957876021579892,11.662869032587784,8.331769709464913,24.00945717360363,16.49378756206677,14.382212278323578,12.327610524277361,13.01247777562611,4.4516371337668375,11.300309647254238,3.7667698824180604,1.027300877023123,6.201736729460424,5.521576303742337,5.821371636464306,19.861150289113525,18.49141578641604,21.241928165661466
186,26,223,0,7.4333333333333105,4.794070759441183,41.79935096491546,4.794070759441212,7.533539764836178,10.957876021579892,11.64274327292864,8.331769709464913,25.377081149233547,17.859152928948983,15.409513155346701,12.327610524277361,13.697345026974858,4.794070759441212,12.327610524277361,4.109203508092435,0.6848672513487486,6.201736729460424,5.478938010789932,5.478938010789932,19.861150289113525,17.806548535067307,20.59162473873453
187,26,224,0,7.466666666666644,6.1638052621386805,41.782515621157486,4.109203508092435,7.533539764836178,10.957876021579892,12.327610524277361,8.929576464474518,26.718601709264515,19.188508912795584,16.09438040669545,13.697345026974858,14.382212278323607,5.136504385115558,12.670044149951735,4.451637133766809,1.027300877023123,6.201736729460424,5.478938010789946,5.478938010789946,19.861150289113525,17.806548535067293,21.92645048267571
188,26,225,0,7.499999999999977,6.201736729460424,41.782515621157486,4.794070759441183,8.246893781033386,11.642743272928612,12.327610524277361,8.92957646447449,28.08790810319464,19.908326484529873,16.77924765804417,14.382212278323578,15.067079529672327,5.821371636464306,13.354911401300456,4.451637133766809,1.7121681283718715,6.201736729460424,6.1638052621386805,6.1638052621386805,19.861150289113525,17.806548535067307,22.610993689957077
189,26,226,0,7.53333333333331,6.163082616581107,41.777617032053236,4.793508701785299,8.21744348877482,10.956591318366407,12.326165233162214,8.245926913830214,27.40003679582676,19.186259248808362,16.092493498850644,13.695739147957994,14.380526105355898,5.820689137882141,13.353345669259085,4.4511152230863615,1.7119673934947173,6.201009636811292,6.163082616581107,6.163082616581107,19.858821764539115,17.804460892345418,21.239437758458404
190,26,227,0,7.566666666666643,7.5314205262650376,41.787592508787576,4.7927221530777615,8.244573870879824,10.954793492749161,13.008817272639618,9.005488253069206,29.448967768096946,21.269039076823702,17.459202129068984,15.062841052530104,16.43219023912374,6.8467459329682185,13.693491865936437,4.7927221530777615,2.7386983731873045,6.199992136600337,5.4773967463745805,5.81973404302299,19.85556320560785,17.801539425717394,21.224912392201475
191,26,228,0,7.599999999999976,7.5314205262650376,41.81562846800237,4.7927221530777615,8.900769712858676,11.63946808604598,13.026822564679117,8.927064510803593,30.133461493725697,21.23595265947198,17.459202129068984,14.378166459233285,16.43219023912374,6.504408636319795,14.72050375588168,5.135059449726185,2.3963610765388808,6.199992136600323,5.4773967463745805,5.81973404302299,19.170888612311018,17.80153942571738,21.909586985498294
192,26,229,0,7.63333333333331,8.902230446172695,41.7944504020327,4.793508701785328,8.21744348877482,11.64137827576431,12.34517243833553,8.245926913830214,30.13840679087309,21.923879821961958,17.46206741364648,15.065313062753802,16.43488697754961,7.532656531376915,14.380526105355926,5.478295659183203,2.7391478295915874,6.201009636811292,5.520928953215016,5.820689137882155,19.174034807141226,17.804460892345418,21.923879821961958
193,26,230,0,7.666666666666643,6.895076122577734,42.08256508248123,5.516060898062193,8.274091347093247,11.721629408382114,12.4302752540907,8.9900793684728,29.65684377371632,21.38585417891185,17.927197918702092,15.169167469670981,16.54818269418655,6.895076122577734,13.79015224515544,4.826553285804408,2.068522836773326,6.243756984671644,5.558988089436059,5.860814704191071,19.995720755475404,17.927197918702092,22.075014519710965
194,26,231,0,7.699999999999976,2.7391478295915874,39.741249857182666,4.793508701785299,6.201009636811288,10.956591318366435,11.66150167587603,10.977970053462723,24.6523304663244,18.50192474382758,17.119673934947514,13.695739147957994,15.065313062753802,3.4239347869894914,10.271804360968503,2.739147829591616,0.684786957397904,6.201009636811292,5.478295659183203,5.820689137882155,19.85882176453913,18.48924784974332,21.239437758458376
195,26,232,0,7.733333333333309,0.6802091556591847,39.47557954800071,4.761464089614179,6.836017410722267,10.203137334887487,10.904582308769882,10.904582308769884,23.127111292411684,16.339184614611472,15.984915157990457,13.604183113183353,14.964601424501694,3.4010457782958667,8.842719023569146,1.3604183113183126,0.6802091556591563,6.121882400932506,5.441673245273336,5.781777823102928,19.04585635845669,18.365647202797533,20.406274669775
196,26,233,0,7.766666666666643,0.9684350024883025,40.42563693898499,4.793508701785299,6.847869573979011,10.271804360968531,10.977970053462725,10.977970053462752,23.28275655152865,16.43488697754964,16.092493498850672,13.695739147958022,15.06531306275383,3.4239347869894914,8.902230446172723,1.369573914795808,0.684786957397904,5.478295659183203,6.163082616581107,6.163082616581107,19.174034807141226,18.48924784974332,20.543608721937034
197,26,234,0,7.799999999999976,1.3605127378176292,39.46073324000661,4.761794582361659,7.482820057996918,10.226495607081915,10.905339194740213,10.226495607081915,23.81868887748998,16.340318715785696,15.645896484902636,13.605127378176206,14.285383747085007,3.7414100289984447,9.863717349177762,1.0203845533632148,1.0203845533632148,6.1599834131401625,5.484402181064486,5.782179135724888,19.047178329446695,18.36692196053788,21.768203805081924
198,26,235,0,7.833333333333309,1.3605127378176292,38.10042989235707,4.761794582361659,7.482820057996918,10.884101902540976,11.584348534030294,9.547853125487265,23.138718150520706,15.660677684689436,14.965640115993835,12.924871009267406,13.605127378176206,3.7414100289984447,9.863717349177762,1.7006409222720436,0.3401281844544144,6.1599834131401625,6.122307320179289,6.122307320179289,18.36692196053788,18.36692196053788,21.087947436173124
199,26,236,0,7.866666666666642,1.3605127378176292,37.42028392779061,4.761794582361659,8.163076426905718,10.203845533632176,10.884101902540976,9.547853125487265,23.81868887748998,15.660677684689436,14.965640115993807,13.605127378176206,14.285383747085007,4.421666397907245,9.863717349177762,1.0203845533632148,0.340128184454386,6.1599834131401625,6.122307320179289,6.122307320179289,19.047178329446695,18.36692196053788,21.087947436173124
200,26,237,0,7.899999999999975,2.054360872193712,38.3541832962048,4.793508701785299,8.21744348877479,10.294605286606885,10.956591318366407,8.21744348877482,23.28275655152862,15.06531306275383,14.038132626656989,13.010952190560118,13.695739147958022,5.135902180484237,9.929410882269565,1.0271804360968702,1.0271804360968417,6.201009636811292,6.201009636811294,6.163082616581107,19.17403480714121,18.48924784974332,21.228395679334938
201,26,238,0,7.933333333333309,2.0403914662519185,36.73334335724328,4.760913421254514,8.16156586500773,10.22460321335607,10.882087820010298,8.867816636229684,23.814281274033018,15.65777970581844,14.62280550813881,13.602609775012866,14.282740263763515,5.100978665629839,9.861892086884325,1.020195733125945,1.0201957331259734,6.158843519826707,6.121174398755784,6.121174398755784,19.723784173768664,19.043653685018015,20.415247023661
202,26,239,0,7.966666666666642,4.842742776412858,37.673924375636346,4.794070759441183,8.246893781033412,10.273008770231144,10.273008770231144,8.246893781033414,26.033965402846793,17.859152928948983,15.409513155346701,14.382212278323607,15.067079529672327,6.506238887813026,11.300309647254267,2.39703537972062,2.3970353797205917,6.882830693033805,5.5215763037423224,5.821371636464306,19.861150289113525,19.176283037764776,21.230884791811008
203,26,240,0,7.999999999999975,4.761464089614151,37.41768676988437,4.761464089614179,8.190802881230322,10.225785836307061,10.203137334887515,8.190802881230322,25.847947915048366,17.698514158386608,15.304706002331272,14.28439226884251,14.964601424501694,6.46198697876207,11.223451068376278,2.380732044807104,2.3807320448070755,6.8360174107222935,5.484021535676753,5.781777823102928,19.04585635845669,18.36564720279752,21.086483825434186
204,26,241,0,8.033333333333308,6.83649189800886,40.13512576561982,4.761794582361688,8.191371404041258,10.884101902540948,12.244614640358606,8.191371404041256,27.898805701243923,19.77429327909456,16.326152853811436,14.285383747085007,14.285383747085007,6.122307320179289,13.605127378176206,4.761794582361688,2.0407691067264295,6.15998341314016,5.442050951270474,5.782179135724874,19.72743469835551,19.047178329446695,21.087947436173124
205,26,242,0,8.066666666666642,6.848672513487429,41.097741911738915,4.794070759441183,8.218407016184898,10.957876021579892,12.327610524277361,7.564606039995601,27.403249557378043,19.188508912795584,15.751946781021076,13.01247777562611,13.697345026974858,5.821371636464306,14.039778652649204,5.136504385115558,1.712168128371843,6.201736729460424,6.201736729460424,6.1638052621386805,19.17628303776479,18.49141578641604,22.600619294508476
206,26,243,0,8.099999999999975,6.802091556591677,41.51505444442446,4.081254933955023,8.190802881230297,11.563555646205856,12.243764801865012,8.275101529618727,27.216867512693916,19.09438091190011,15.64481058016085,12.243764801865012,13.604183113183353,4.761464089614179,14.28439226884251,5.441673245273336,1.360418311318341,6.159555878981024,5.44167324527335,5.781777823102928,19.04585635845669,18.36564720279752,21.76669298109337
207,26,244,0,8.133333333333308,7.482300712250861,40.81254933955003,4.081254933954995,8.16250986790999,11.563555646205828,12.243764801865012,7.513155691451622,27.216867512693916,19.057999079714733,15.304706002331244,12.923973957524169,12.923973957524169,5.441673245273336,14.28439226884251,5.441673245273336,1.360418311318341,6.159555878981024,5.484021535676753,5.781777823102928,19.04585635845669,18.36564720279752,21.086483825434186
208,26,245,0,8.166666666666641,6.847869573978983,41.092923605618665,4.793508701785328,8.21744348877482,11.64137827576431,12.326165233162214,8.245926913830214,28.084615072161213,19.870624928591305,16.43488697754961,13.695739147957994,14.380526105355898,5.8206891378821695,14.03813262665696,5.135902180484237,1.7119673934947457,6.201009636811292,6.201009636811288,6.163082616581107,19.17403480714121,18.489247849743307,21.239437758458404
209,26,246,0,8.199999999999974,6.848672513487429,41.097741911738915,4.794070759441183,8.218407016184898,11.64274327292864,12.327610524277361,8.246893781033386,28.087908103194643,19.87295483713289,16.436814032369796,13.69734502697483,14.382212278323578,5.821371636464306,14.039778652649204,5.136504385115558,1.712168128371843,6.201736729460424,5.478938010789932,5.821371636464306,19.17628303776479,18.49141578641604,21.230884791811008
210,26,247,0,8.233333333333308,7.432262778991202,39.863954905498275,4.7776394641682485,7.462911415323752,11.486224294804572,11.486224294804572,6.790301501122532,26.359410740400588,18.966687118981667,15.202355684300215,13.5132050527113,13.5132050527113,6.756602526355664,12.837544800075705,4.729621768448936,2.7026410105422656,6.118363810146252,6.118363810146252,6.080942273720069,19.594147326431354,18.918487073795788,20.9454678317025
211,26,248,0,8.26666666666664,5.442176870748284,38.0952380952381,4.081632653061234,8.163265306122469,10.204081632653043,10.884353741496597,8.191560937953932,25.85928953571186,17.70015215137099,14.965986394557802,14.285714285714278,14.285714285714278,6.122448979591837,11.56462585034015,2.7210884353741562,2.040816326530603,6.160125944311167,5.484529080475198,5.782312925170061,19.04761904761905,18.367346938775512,21.099404652069154
212,26,249,0,8.299999999999974,4.081632653061234,37.41496598639455,4.761904761904759,7.482993197278915,9.548074045998769,10.905591525089385,8.843537414965994,25.170068027210903,17.687074829931987,15.646258503401384,14.285714285714278,14.285714285714278,5.442176870748284,10.884353741496625,2.7210884353741562,1.3605442176870497,6.16012594431117,6.16012594431117,6.122448979591837,19.04761904761905,18.367346938775512,21.088435374149668
213,26,250,0,8.333333333333307,2.0407691067264295,36.73384392107576,4.761794582361659,8.163076426905718,9.523589164723347,10.884101902540976,10.226495607081944,25.178676625155845,17.020008912396783,15.98602466935705,14.285383747085035,14.285383747085035,4.081538213452859,10.884101902540948,2.0407691067264295,0.0,5.484402181064486,5.484402181064479,5.442050951270474,19.04717832944668,18.36692196053788,21.768203805081924
214,26,251,0,8.36666666666664,2.0547463238359285,36.30051838776848,4.794408088950576,8.247474064632122,10.273731619179728,10.95864706045839,10.296536822865988,25.34187132731003,17.136578865847355,16.09551287004828,14.383224266851641,14.383224266851641,4.109492647671914,10.95864706045839,2.054746323835957,0.0,6.202173107835523,5.479323530229209,5.479323530229209,17.807801473244893,17.807801473244893,21.917294120916807
215,26,252,0,8.399999999999974,1.3422516500037034,36.24079455009999,4.697880775012948,8.05350990002222,10.066887375027761,10.738013200029627,10.089233434432881,24.169849094704496,16.120995524843,15.435893975042603,13.422516500037034,13.422516500037034,3.3556291250092443,10.738013200029627,2.0133774750055693,0.6711258250018659,5.410789382704434,5.369006600014814,5.369006600014814,18.120397275049996,17.449271450048144,20.804900575057417
216,26,253,0,8.433333333333307,1.3605442176870781,36.06083885904372,4.761904761904759,8.16326530612244,10.204081632653072,10.884353741496597,10.905591525089383,25.179259215403725,17.020402725437826,16.32653061224491,13.605442176870724,14.285714285714278,3.0612244897959044,11.224489795918373,2.3809523809523796,1.0204081632653015,6.16012594431117,6.16012594431117,6.122448979591837,18.367346938775498,17.687074829931973,21.088435374149668
217,26,254,0,8.46666666666664,1.3605127378176292,36.05358755216696,4.761794582361659,8.163076426905718,9.523589164723347,10.884101902540976,10.226495607081944,24.49867546401186,16.340318715785724,15.645896484902636,13.605127378176206,13.605127378176206,3.4012818445440303,10.884101902540976,2.040769106726458,0.6802563689088288,6.159983413140173,5.442050951270488,5.782179135724888,18.36692196053788,17.686665591629065,21.087947436173124
218,26,255,0,8.499999999999973,1.5108222545878078,35.81636697581521,4.729621768448936,8.8095318881632,10.134903789533467,10.157400828956757,10.157400828956757,25.008558224704387,16.272053670483682,15.54018581061797,14.188865305346837,13.513205052711271,3.7161313894955867,11.148394168486817,1.689150631588916,0.3378301263177832,6.118363810146266,5.4473471070284365,5.7431121474023,18.242826821160236,17.56716656852467,21.621128084338068
219,26,256,0,8.533333333333307,1.5108222545878078,35.81636697581521,5.405282021084503,8.8095318881632,10.134903789533467,10.134903789533467,9.483343559490834,25.008558224704387,16.272053670483682,15.54018581061797,14.188865305346837,13.513205052711271,4.391791642131153,11.148394168486817,1.689150631588916,0.3378301263177832,6.118363810146266,5.4473471070284365,5.7431121474023,18.918487073795802,18.242826821160236,21.621128084338068
220,26,257,0,8.56666666666664,4.053683939107941,37.840415218628394,4.729297928959227,8.107367878215825,9.458595857918482,10.80982383762111,8.135469757549872,25.006845876628695,16.903856625487713,14.863507776729023,14.187893786877709,13.512279797026395,5.742718913736212,11.147630832546781,2.3646489644796134,1.6890349746282993,6.117944882817369,6.080525908661883,6.080525908661883,18.91719171583695,18.24157772598562,21.61964767524222
221,26,258,0,8.599999999999973,8.108108108108127,39.18918918918919,4.054054054054035,8.136212553238028,10.13513513513513,11.506342139139457,7.554283707769577,27.71094142487822,19.641137640200874,15.540540540540547,13.513513513513516,13.513513513513516,6.0810810810810665,14.189189189189193,5.405405405405418,2.0270270270270316,6.118503471714471,6.118503471714471,6.081081081081081,18.91891891891892,18.243243243243256,20.945945945945937
222,26,259,0,8.633333333333306,8.107923031626768,39.18829465286271,4.729621768448965,8.107923031626768,10.157400828956757,11.506079494230445,6.790301501122532,27.710308892175757,19.60579318025387,15.540185810617999,12.837544800075705,12.837544800075705,6.080942273720069,14.864525557982432,6.0809422737200975,2.0269807579066708,6.7903015011225465,6.118363810146266,6.4187724000378665,18.918487073795802,18.242826821160236,21.621128084338068
223,26,260,0,8.66666666666664,7.482300712250833,40.81821735559563,4.761464089614179,7.482300712250861,10.883346490546671,11.563555646205856,7.51315569145162,27.216867512693945,19.737789774000355,15.984915157990429,13.604183113183353,12.923973957524169,5.781777823102914,13.94428769101296,5.781777823102942,1.7005228891478907,6.836017410722296,6.121882400932506,6.121882400932506,18.365647202797533,18.365647202797533,21.766692981093342
224,26,261,0,8.699999999999973,7.532656531376915,40.40823334905352,4.793508701785299,8.21744348877482,10.956591318366407,12.326165233162214,7.5637191643210535,28.08461507216124,19.870624928591333,16.092493498850672,13.010952190560118,13.695739147958022,5.820689137882141,14.722919584054893,5.8206891378821695,1.7119673934947457,6.163082616581107,6.201009636811288,6.163082616581107,18.48924784974332,18.48924784974332,21.91318263673284
225,26,262,0,8.733333333333306,7.482820057996918,40.81538213452862,4.761794582361659,8.163076426905718,10.884101902540976,12.244614640358577,7.513677178838735,27.898805701243926,19.739159772019715,15.98602466935705,12.924871009267406,12.924871009267406,5.442050951270488,14.965640115993807,6.122307320179289,1.3605127378176292,6.159983413140177,6.122307320179303,6.122307320179303,18.36692196053788,17.686665591629065,20.407691067264324
226,26,263,0,8.766666666666639,7.482300712250833,40.81821735559563,4.081254933954995,7.513155691451648,10.883346490546671,11.563555646205828,7.604969554858191,26.53687626800814,19.09438091190011,15.304706002331272,11.563555646205856,12.243764801865012,4.421359511784573,14.624496846672116,6.4619869787620985,1.0203137334887344,5.484021535676735,6.159555878981029,6.121882400932506,18.365647202797533,18.365647202797533,20.40627466977503
227,26,264,0,8.799999999999972,7.432262778991202,40.54524526928634,4.053961515813398,7.462911415323752,10.810564042169034,11.4862242948046,7.554111272939012,26.359410740400588,18.966687118981667,15.202355684300215,11.4862242948046,12.161884547440138,4.391791642131182,14.52669543166462,6.418772400037852,1.0134903789533496,6.7903015011225465,6.118363810146266,6.4187724000378665,18.242826821160236,18.242826821160236,20.9454678317025
228,26,265,0,8.833333333333306,5.442050951270488,40.821050543990644,4.081538213452859,7.513677178838708,10.884101902540976,11.564358271449777,8.275675903590493,25.178676625155845,17.738915825378974,14.965640115993864,11.564358271449777,12.244614640358606,3.7414100289984447,13.264999193721792,5.101922766816074,0.3401281844544144,6.802563689088103,6.1599834131401625,6.122307320179289,18.36692196053788,17.68666559162908,20.41902552582618
229,26,266,0,8.866666666666639,4.7297297297297405,38.513513513513516,4.054054054054035,7.432432432432421,9.483560032174452,10.810810810810807,8.8097329800036,25.00912908556993,17.580556528726618,15.202702702702709,11.486486486486484,11.486486486486484,2.7027027027026804,13.513513513513516,4.7297297297297405,1.3513513513513544,6.118503471714471,6.081081081081081,6.081081081081081,18.243243243243242,17.567567567567565,21.63217647781367
230,26,267,0,8.899999999999972,2.6845637583892596,38.25503355704697,4.026845637583875,7.382550335570471,10.06711409395973,10.738255033557039,10.089460656626112,24.170393430025626,16.791940943888306,15.43624161073825,11.409395973154346,11.409395973154346,1.3422818791946156,12.75167785234899,4.026845637583904,2.013422818791952,6.0774396900251135,5.369127516778519,5.704697986577173,18.120805369127524,17.449664429530202,20.13422818791946
231,26,268,0,8.933333333333305,2.0270270270270316,37.83783783783784,4.7297297297297405,7.432432432432421,10.157632688089798,10.810810810810807,10.157632688089798,24.33370689914744,16.905400004320015,15.878378378378386,12.162162162162161,12.162162162162161,2.0270270270270316,12.162162162162161,4.054054054054063,1.3513513513513544,6.081081081081081,5.405405405405418,5.743243243243256,18.243243243243242,17.567567567567565,21.621621621621614
232,26,269,0,8.966666666666638,2.720836622636682,37.41768676988437,4.081254933954995,8.162509867910018,10.203137334887487,10.904582308769882,10.225785836307058,25.17692909701865,17.01882763726812,15.64481058016085,11.563555646205856,12.243764801865012,1.7005228891479192,13.264078535353775,4.421359511784601,1.7005228891479192,6.121882400932506,6.121882400932506,6.121882400932506,18.365647202797533,17.685438047138362,20.40627466977503
233,26,270,0,8.999999999999972,2.7858185886479534,37.836974147591576,4.053961515813398,7.462911415323752,10.134903789533467,10.810564042169034,10.157400828956728,24.333151455535837,16.945472927235986,15.54018581061797,11.486224294804572,11.486224294804572,1.3513205052711328,12.837544800075733,4.053961515813398,2.026980757906699,6.118363810146266,6.080942273720083,6.080942273720083,18.242826821160236,17.56716656852467,20.269807579066935
234,26,271,0,9.033333333333305,2.702702702702709,37.16216216216216,4.054054054054063,7.432432432432421,10.13513513513513,10.810810810810807,10.157632688089798,24.33370689914744,16.905400004320015,15.540540540540547,11.486486486486484,11.486486486486484,1.3513513513513544,12.837837837837839,4.054054054054063,2.0270270270270316,6.118503471714471,6.081081081081081,6.081081081081081,18.243243243243242,17.567567567567565,20.27027027027026
235,26,272,0,9.066666666666638,2.0270270270270316,37.16216216216216,4.054054054054063,8.108108108108098,10.13513513513513,10.810810810810807,10.157632688089798,24.33370689914744,16.2302866884653,15.202702702702709,11.486486486486484,11.486486486486484,1.3513513513513544,12.837837837837839,4.054054054054063,2.0270270270270316,6.118503471714471,6.081081081081081,6.081081081081081,17.567567567567565,17.567567567567565,20.945945945945937
236,26,273,0,9.099999999999971,2.0408163265306314,37.41496598639455,4.081632653061206,8.16326530612244,10.204081632653043,10.884353741496597,10.226732230185663,24.499242320230078,16.340696801992276,15.306122448979579,12.244897959183675,12.244897959183675,2.040816326530603,12.244897959183675,3.401360544217681,1.3605442176870781,6.122448979591837,5.442176870748298,5.782312925170075,17.687074829931973,17.687074829931973,21.768707482993193
237,26,274,0,9.133333333333304,2.804833758923582,37.42114976727908,4.081632653061206,7.51385103210018,10.204081632653043,10.884353741496597,10.226732230185663,24.499242320230078,17.061137692495855,15.646258503401356,11.564625850340121,12.244897959183675,1.7006802721088263,12.585034013605451,3.7414965986394577,1.7006802721088548,6.16012594431117,5.442176870748298,5.442176870748298,18.367346938775512,17.687074829931973,21.768707482993193
238,26,275,0,9.166666666666638,2.7858821794713986,37.16216216216216,4.054054054054063,8.136212553238028,10.13513513513513,10.157632688089798,10.157632688089798,25.00912908556993,16.945859735114137,15.540540540540547,12.162162162162161,12.162162162162161,2.0270270270270316,12.837837837837839,3.378378378378386,1.3513513513513544,6.118503471714471,6.118503471714471,6.081081081081081,17.567567567567565,17.567567567567565,20.945945945945937
239,26,276,0,9.19999999999997,2.0268419695539706,35.80754146211993,4.053683939107913,8.107367878215825,10.134209847769796,10.80982383762111,10.156705346809915,24.331485352888265,16.228804944116707,15.201314771654694,12.161051817323766,12.161051817323766,2.0268419695539706,12.161051817323738,3.3780699492565986,1.351227979702628,6.117944882817369,5.446974124537693,5.742718913736212,17.565963736134307,17.565963736134307,20.944033685390906
240,26,277,0,9.233333333333304,2.0133774750055693,36.24079455009999,4.697880775012948,8.05350990002222,10.06688737502779,10.738013200029627,9.49115243776451,24.197785743322484,16.162850192059608,15.100331062541642,12.08026485003333,12.08026485003333,2.684503300007407,12.08026485003333,3.3556291250092443,1.3422516500037034,6.077302821541979,5.41078938270443,5.7045695125157465,17.449271450048144,17.449271450048144,20.804900575057417
241,26,278,0,9.266666666666636,3.4012818445440587,37.41410028998459,4.081538213452859,8.163076426905718,10.203845533632148,10.884101902540976,9.547853125487265,25.178676625155845,17.020008912396783,15.305768300448221,12.244614640358577,12.244614640358577,2.72102547563523,12.924871009267406,4.0815382134528875,0.6802563689088288,4.810138914007575,4.137837951795225,4.081538213452859,17.68666559162908,17.68666559162908,21.768203805081924
242,26,279,0,9.29999999999997,4.760142806426302,38.76116285232865,4.080122405508291,8.160244811016554,10.901556340075405,11.560346815606778,8.188529973162908,25.16994262132303,17.01410499515408,14.620438619737996,12.240367216524845,12.240367216524845,4.080122405508291,12.920387617442856,4.080122405508263,0.6800204009180675,2.7200816036721847,3.4001020045902237,3.4001020045902237,18.36055082478724,17.6805304238692,21.080632428459438
243,26,280,0,9.333333333333304,4.728003235885097,38.49945492077882,4.052574202187259,8.10514840437449,10.827951124171427,11.482293572863853,8.133242590535241,24.999999999999996,16.899229024006964,14.521724224504311,12.157722606561748,12.157722606561748,4.052574202187259,12.833151640259587,4.05257420218723,0.675429033697867,2.7017161347914964,3.3771451684893776,3.039430651640444,18.91201294354046,18.236583909842594,21.61372907833197
244,26,281,0,9.366666666666635,4.729297928959227,39.18561141137653,4.729297928959255,8.107367878215825,10.809823837621138,11.485437827472452,8.135469757549872,25.68221973357585,17.578951511465874,15.201314771654694,12.161051817323738,12.161051817323738,4.053683939107913,13.512279797026395,4.729297928959255,0.0,2.7024559594052846,2.7856278423019805,3.0402629543309416,18.24157772598562,17.565963736134307,21.63020156782847
245,26,282,0,9.39999999999997,5.441673245273336,39.45213102823169,4.761464089614179,7.482300712250861,10.883346490546671,11.563555646205828,8.190802881230297,25.856896486517783,18.37823935182765,15.64481058016085,12.243764801865012,12.243764801865012,4.081254933955023,13.604183113183353,5.441673245273336,0.0,2.720836622636668,3.4010457782958383,3.4010457782958383,18.36564720279752,17.685438047138348,21.086483825434186
246,26,283,0,9.433333333333303,5.521964823378095,41.094926476719024,4.109492647671914,8.24747406463215,10.980029806762605,11.643562501737051,8.247474064632126,26.03579725415158,17.860409568576827,15.068139708130303,12.328477943015713,12.328477943015713,4.109492647671914,13.698308825573008,4.794408088950547,0.6849154412786618,3.4923972002408536,3.424577206393252,3.424577206393252,18.492716914523555,17.807801473244908,21.232378679638174
247,26,284,0,9.466666666666637,5.484021535676732,40.81254933955006,4.081254933955023,8.190802881230322,10.904582308769884,11.563555646205828,8.190802881230297,25.856896486517783,17.737684654456423,14.964601424501694,12.243764801865012,12.243764801865012,4.081254933955023,13.604183113183353,4.761464089614179,0.6802091556591847,3.4010457782958383,3.4010457782958383,3.4010457782958383,17.685438047138362,17.685438047138362,22.446902136752527
248,26,285,0,9.49999999999997,4.761904761904788,40.81632653061223,4.761904761904759,8.16326530612244,10.905591525089383,11.564625850340121,8.191560937953932,25.85928953571186,17.700152151371018,15.306122448979607,12.244897959183675,12.244897959183675,4.081632653061234,13.605442176870753,4.761904761904759,0.6802721088435248,4.137933694080415,4.08163265306122,4.421768707482983,18.367346938775512,17.687074829931973,21.088435374149668
249,26,286,0,9.533333333333305,5.405405405405418,40.54617078020946,4.054054054054035,8.108108108108098,10.831905095865805,12.180916471162126,8.136212553238057,25.684564606416508,17.580556528726618,14.86486486486487,12.162162162162161,11.486486486486484,3.7162162162161962,13.851351351351354,5.067567567567579,0.3378378378378386,4.7297297297297405,4.7297297297297405,5.067567567567579,18.243243243243242,17.567567567567565,20.945945945945937
250,26,287,0,9.566666666666636,5.405405405405418,41.216216216216225,4.729729729729712,7.432432432432421,11.506342139139457,12.162162162162161,7.554283707769577,25.036496369795817,17.619465960007172,14.86486486486487,12.162162162162161,12.162162162162161,4.729729729729712,12.837837837837839,4.054054054054063,0.6756756756756772,5.447471451553087,5.447471451553072,5.4054054054054035,18.243243243243242,17.567567567567565,21.621621621621614
251,26,288,0,9.59999999999997,4.109974682633942,40.54617078020946,4.729729729729712,8.136212553238028,10.810810810810807,11.486486486486484,8.136212553238057,25.00912908556993,16.945859735114137,14.86486486486487,12.162162162162161,11.486486486486484,3.7162162162161962,13.175675675675677,4.391891891891902,0.3378378378378386,5.405405405405418,5.405405405405418,5.405405405405418,18.243243243243242,17.567567567567565,21.621621621621614
252,26,289,0,9.633333333333304,4.054054054054063,40.54617078020946,4.729729729729712,8.108108108108098,10.831905095865805,12.162162162162161,8.219949365267883,25.036496369795817,16.945859735114137,14.86486486486487,11.486486486486484,12.162162162162161,3.7162162162161962,13.175675675675677,4.391891891891902,0.3378378378378386,5.447471451553087,5.447471451553087,5.405405405405418,18.243243243243242,17.567567567567565,20.956841107122724
253,26,290,0,9.666666666666636,4.081632653061234,40.8219950712313,4.761904761904759,8.16326530612244,10.884353741496597,12.244897959183675,8.275867388160835,25.206812671631152,17.061137692495855,14.965986394557802,11.56462585034015,12.244897959183675,3.7414965986394577,13.265306122448976,4.421768707483011,0.34013605442177663,5.484529080475201,5.484529080475198,5.442176870748298,18.367346938775512,17.687074829931973,21.099404652069126
254,26,291,0,9.699999999999967,4.081632653061234,40.81632653061226,4.761904761904759,8.16326530612244,10.884353741496597,11.584616575460121,8.275867388160835,25.206812671631152,17.061137692495855,14.965986394557802,12.244897959183675,12.244897959183675,4.081632653061234,12.9251700680272,4.081632653061234,0.0,6.160125944311167,5.484529080475198,5.782312925170075,18.367346938775512,17.687074829931973,21.099404652069126
255,26,292,0,9.733333333333302,4.729621768448965,40.54524526928634,4.05396151581337,7.432262778991202,10.831657845723786,11.4862242948046,8.219761735886877,24.36127685670479,16.945472927235986,14.52669543166462,11.486224294804572,12.161884547440138,3.7161313894955867,12.49971467375795,4.391791642131182,0.3378301263177832,6.118363810146266,5.405282021084517,5.405282021084517,18.242826821160236,17.56716656852467,20.9454678317025
256,26,293,0,9.766666666666636,4.053961515813398,40.54524526928634,4.729621768448936,7.462911415323752,10.810564042169034,11.4862242948046,8.219761735886877,24.333151455535837,16.945472927235986,14.864525557982404,11.486224294804572,12.161884547440138,3.7161313894955867,12.49971467375795,4.391791642131182,0.3378301263177832,6.080942273720083,6.080942273720083,6.080942273720083,18.242826821160236,17.56716656852467,20.956362744185256
257,26,294,0,9.799999999999969,4.081632653061234,40.81632653061226,4.081632653061234,8.16326530612244,10.905591525089383,11.564625850340121,8.94758261086114,25.206812671631152,17.061137692495855,14.96598639455783,12.244897959183675,12.244897959183675,3.4013605442177095,12.9251700680272,4.081632653061206,0.0,5.484529080475215,5.4421768707483125,5.782312925170075,19.047619047619037,18.367346938775512,21.099404652069126
258,26,295,0,9.833333333333302,4.054054054054063,40.54054054054055,4.729729729729712,8.108108108108098,10.810810810810807,12.162162162162161,8.219949365267883,25.036496369795817,16.945859735114137,14.86486486486487,12.162162162162161,12.162162162162161,4.054054054054035,12.837837837837839,4.054054054054063,0.0,5.4054054054054035,6.081081081081081,6.081081081081081,18.91891891891892,18.243243243243242,20.945945945945937
259,26,296,0,9.866666666666635,4.777748521530738,41.22175416937742,4.729729729729712,7.46308176836976,11.486486486486484,11.486486486486484,8.136212553238057,25.00912908556993,17.619465960007172,15.202702702702709,12.162162162162161,12.837837837837839,4.3918918918918735,12.5,4.391891891891902,0.3378378378378386,6.118503471714471,6.081081081081081,6.081081081081081,18.91891891891892,18.243243243243242,20.945945945945937
260,26,297,0,9.899999999999968,4.7776394641682485,41.21527541076941,4.729621768448936,7.462911415323752,11.4862242948046,11.4862242948046,8.136026835241841,25.008558224704387,17.6190637763264,15.202355684300187,12.161884547440138,12.161884547440138,4.05396151581337,12.837544800075733,4.729621768448965,0.0,6.080942273720083,6.080942273720083,6.080942273720083,18.918487073795802,18.242826821160236,20.9454678317025
261,26,298,0,9.933333333333302,4.794408088950547,41.77984191799763,4.794408088950547,7.534069854065137,10.958647060458418,11.643562501737051,8.332355965264885,25.378866779601214,17.860409568576827,15.41059742876962,12.328477943015685,12.328477943015685,4.109492647671885,13.013393384294346,4.109492647671914,0.0,6.202173107835526,6.164238971507842,6.164238971507842,19.177632355802203,18.492716914523555,21.232378679638146
262,26,299,0,9.966666666666637,4.109492647671885,41.77984191799763,4.794408088950547,8.2189852953438,10.958647060458418,12.328477943015685,9.008656113673876,26.062810020110863,17.860409568576827,15.753055149408965,13.013393384294346,13.013393384294346,4.109492647671885,13.013393384294346,4.109492647671914,0.0,6.202173107835526,5.479323530229195,5.821781250868526,18.492716914523555,17.807801473244908,21.9279933132167
263,26,300,0,9.999999999999968,4.109492647671885,41.09492647671897,4.794408088950547,7.534069854065166,10.958647060458418,11.643562501737051,8.247474064632126,24.66646676618685,17.136578865847355,15.068139708130303,12.328477943015685,12.328477943015685,4.109492647671885,12.328477943015713,4.109492647671914,0.0,6.202173107835523,6.202173107835515,6.164238971507842,19.177632355802203,18.492716914523555,21.917294120916807
264,26,301,0,10.0333333333333,4.053683939107941,41.212453380930526,4.729297928959227,8.107367878215825,11.485437827472452,11.505291667403219,8.808928695254574,25.682219733575877,17.578951511465903,15.539121766580365,12.83666580717508,12.83666580717508,4.053683939107913,12.83666580717508,4.053683939107913,0.0,6.117944882817369,5.404911918810569,5.404911918810569,18.91719171583695,17.565963736134307,20.954927851893736
265,26,302,0,10.066666666666634,4.081538213452859,41.49563850343745,4.761794582361659,7.482820057996918,10.884101902540976,12.244614640358577,8.869457912689485,25.178676625155845,17.699742610488904,15.645896484902636,12.924871009267406,12.924871009267406,4.081538213452859,12.244614640358577,4.081538213452859,0.0,6.159983413140177,5.442050951270488,6.122307320179289,19.72743469835551,19.047178329446695,21.778830217140317
266,26,303,0,10.099999999999968,4.760913421254486,41.487959813789246,4.760913421254514,7.481435376257082,10.882087820010298,11.562218308760947,8.189855606211113,25.174017358530985,17.69646730649889,15.302935996889488,12.922479286262245,12.922479286262245,4.760913421254514,12.242348797511568,4.080782932503865,0.680130488750649,6.835226818076126,6.158843519826707,6.121174398755784,19.723784173768664,18.36352319626738,21.77480008568148
267,26,304,0,10.1333333333333,5.446974124537711,41.88806737078181,4.729297928959227,7.4624004261701105,11.485437827472452,11.485437827472452,8.1354697575499,25.682219733575877,18.291554744917313,15.539121766580365,12.83666580717508,12.83666580717508,4.729297928959227,12.83666580717508,4.729297928959227,0.675613989851314,6.789836565894994,6.080525908661869,6.080525908661869,18.91719171583695,18.241577725985636,21.630201567828497
268,26,305,0,10.166666666666634,5.478938010789932,42.461769583622015,4.794070759441212,7.564606039995573,10.979257263416544,11.662869032587754,9.008022274106938,26.718601709264487,19.225139889018898,16.436814032369824,13.697345026974858,13.697345026974858,4.794070759441212,13.012477775626081,4.794070759441183,0.6848672513487486,6.848672513487415,5.478938010789932,5.821371636464306,19.17628303776479,18.49141578641604,21.241928165661466
269,26,306,0,10.199999999999967,6.121882400932492,41.49833360554616,4.761464089614179,8.162509867910018,10.883346490546671,12.26264494384597,8.190802881230326,27.216867512693945,19.057999079714733,15.984915157990457,12.923973957524197,13.604183113183353,5.1015686674437575,13.944287691012931,5.1015686674437575,1.0203137334887629,6.159555878981027,5.484021535676746,6.121882400932506,19.72606551411586,17.685438047138348,22.457205971188575
270,26,307,0,10.2333333333333,5.4390315034971195,42.15797669022192,4.079273627622825,8.186826533298898,10.899288515971447,11.557941944931372,8.864536814892842,26.515278579548408,18.369317360285564,15.637215572554197,12.917699820805638,13.59757875874277,4.419213096591392,13.257639289774204,5.099092034528553,1.0198184069056992,6.156565630328609,6.118910441434252,6.458849910402819,19.036610262239876,17.676852386365596,22.446303784210883
271,26,308,0,10.266666666666634,5.408962503633282,40.93035174559453,4.6962945997879615,8.050790742493632,10.734387656658186,12.076186113740448,8.078696513316874,26.165069913104304,18.114279170610672,15.430682256446147,12.747085342281594,13.417984570822739,5.031744214058534,13.082534956552138,4.360844985517389,1.0063488428117182,6.0752509033192625,6.038093056870224,6.373542671140797,19.456077627692935,17.443379942069527,21.47925555573373
272,26,309,0,10.299999999999969,6.118910441434252,41.47261521416547,4.759152565559958,7.5095083174975406,10.899288515971447,11.557941944931372,8.186826533298927,26.515278579548408,19.04874708863204,15.977155041522764,13.59757875874277,13.59757875874277,5.439031503497091,12.917699820805638,4.759152565559987,1.3597578758742657,6.156565630328609,6.156565630328606,6.4588499104028045,19.716489200177023,18.356731324302743,21.766746530126994
273,26,310,0,10.3333333333333,5.440163207344369,42.16674853579447,4.760142806426302,8.18852997316291,10.880326414688739,11.560346815606806,8.18852997316291,26.52079563580378,18.373139479557096,15.64046922111504,12.920387617442856,13.600408018360923,5.100153006885336,13.26039781790189,5.100153006885336,0.34001020045903374,6.157846632103518,5.440163207344369,6.120183608262408,19.72059162662333,18.36055082478724,21.771275555335723
274,26,311,0,10.366666666666632,7.5314205262650376,42.45534599464739,4.1080475597809425,7.5314205262650376,10.954793492749161,12.324142679342799,8.927064510803593,28.080006773926833,20.551645874096288,16.774527535772165,13.693491865936466,14.378166459233285,5.135059449726157,14.03582916258486,5.135059449726185,1.0270118899452143,6.199992136600323,6.1999921366003194,6.504408636319809,19.85556320560785,17.80153942571738,21.920282415466787
