,video_id,frame_seq,gap,time_seconds,m1,m3,m4,m5,m6,m7,m8,m9,m10,m11,m12,m13,m14,m15,m16,m17,e1,e2,e3,b1,b2,b3,m_0_16,m_1_15,m_2_14,m_3_13
0,21,11,1,0.3670333333333326,10.137471167152512,156.29468980017882,14.336549212753042,27.239443504231087,40.142337795708784,43.03353525334084,45.8769574808102,97.49907565714835,70.26371875142418,65.23438693729992,59.75707657393929,57.80902623685478,12.906887622976797,38.712229750588335,9.921563729782633,0.11384709762171497,18.63751397657911,20.12230571677848,20.075038213980008,59.31012130179431,59.66431227217339,51.61157716591127,399.99999999999983,397.14570293324385,385.6771561522659,361.30664023511713
1,21,12,0,0.4003999999999992,17.90434142382764,158.1831648856778,14.994700365629045,25.364483683755875,40.28476820361224,43.294542093573405,44.785713796731315,102.99320130869135,77.64284400610163,68.66336535860057,65.08967832882001,66.23464601797298,20.88698632939736,37.31553786921427,9.19443750380458,7.685161913557408,17.90434142382758,19.396369875813217,19.403732732085587,52.6338177104584,53.379781507936855,56.716709731062245,399.99999999999983,394.076321758942,385.1774831720786,364.3025103712453
2,21,13,0,0.4337666666666658,18.885785938283778,158.9553649805558,15.738154948569933,28.328678907425786,40.949457364216364,45.667776039340126,45.64064935085264,108.59326914513214,80.26459023770636,70.81701932693193,65.40851644602435,63.5815639678583,18.857405529585208,44.09105609435426,12.870066219952037,6.5028655039672,20.459601433140875,20.45960143314082,19.671394257481097,55.56829715768447,56.3099313319895,61.37880429942235,400.0,395.4068532063125,386.0470282257327,371.98353593957444
3,21,14,0,0.4671333333333324,23.8003433488744,160.25564521575325,19.040274679099362,31.73379113183219,42.86999109829314,47.62712418198489,42.84061802797365,117.4150271877796,85.68123605594742,73.77619096663773,69.08026483293122,67.2383675921377,25.321527909325482,49.247955433297534,16.166751524391202,8.124408126470598,22.213653792282628,22.213653792282685,21.428012454776763,56.04109129662038,56.80702876308891,65.07361881602077,399.99999999999994,395.47103263726603,387.62017251445405,373.44214303146646
4,21,15,0,0.5004999999999991,27.507829527840986,165.1183488361843,24.32549141281131,35.63512382158799,46.953011078189874,51.804720579085355,35.59836762426495,123.0187534754572,87.39279263504801,73.641666960458,66.41654969110539,67.56166261681415,31.3997234787588,56.02873957931922,17.71289755719272,9.260873581723672,25.94023848714516,27.55537983044969,26.673860610754616,59.29140259780684,60.85457262337741,63.106197152105935,399.9999999999999,395.37823123726366,384.25882717034,373.0641776636794
5,21,16,0,0.5338666666666656,31.159004332076517,163.89905300491807,18.088776870430376,31.159004332076403,50.87365529417401,55.77740188559958,34.39129908818258,114.74289481600368,83.58592446515364,68.00558615289219,64.27721958184884,66.32804606724778,30.92430463509595,49.42671726871811,14.085939807609293,13.59122289227173,26.254022191102926,27.888700942799698,26.966569312396132,61.102036470682776,62.2173982434436,63.86955544948184,400.0,395.2548895905996,382.4782638805107,371.1615097037938
6,21,17,0,0.5672333333333321,17.937680311119,159.94148741451323,18.011650440654766,31.026149425594266,47.318355226541975,50.57793925850165,34.28346657462762,101.22157695772636,70.19582848681901,61.208313133540855,57.051498107254474,60.0418829148972,24.274358604207578,42.64000505837453,7.241775257062386,8.511788081994837,29.397830056645724,29.397830056645702,28.494223912582925,59.789681786541905,59.690602771830754,61.987984825770184,399.99999999999983,393.75875088247204,382.5890469328074,368.0793274072923
7,21,18,0,0.6005999999999987,9.919149970631175,155.2249968518574,17.937680311119035,31.026149425594152,44.14947888968188,47.31835522654201,37.647591632728016,96.4320525216807,65.4111246941852,60.42503399008831,57.393258401909975,62.91941951832371,22.5748607681046,36.19769878765908,0.8732588474073282,5.270900837940758,27.769789866047006,27.769789866047052,26.851589995150846,59.30099311470752,60.366816733594476,61.96653198386555,400.00000000000006,395.49054438238255,384.4645541554095,369.978076864609
8,21,19,0,0.6339666666666652,8.313235114017719,150.4266230442284,17.933954951618087,32.647924367075596,44.0498891051097,45.76637324163885,39.26425722212886,98.0387127360227,65.3975398855241,61.213611804349284,58.59756851944098,66.6933444682619,23.454336439047893,35.29632239310729,1.7605385962119726,6.029056727180887,27.764022540020264,26.08575265689894,26.07938503646858,58.183324143861796,59.714227271002414,61.97511094663864,400.0,395.5193106984734,384.5195287198127,368.58026773305284
9,21,20,0,0.6673333333333318,5.1556495547241825,148.93492802337312,19.56431449267426,32.64792436707559,44.04988910510928,45.766373241638696,37.639772850658936,94.78546380074172,62.146431552528355,59.597981792491964,57.2569219245288,66.1979698048649,24.1534349838887,32.97742987082654,3.9662956609143976,6.856604190207349,19.632128611064463,19.564314492674203,19.5343437828692,56.014359379225255,58.74259453304376,58.71558299418887,399.99999999999983,395.5193106984735,384.3847072267777,366.80191142287856
10,21,21,0,0.7006999999999983,6.696274510340528,146.60910659021044,19.556574622010338,34.14443439660065,42.35095858081011,45.50337574387604,37.494916679313434,97.78287311005151,63.67159394918841,60.181613258110815,56.37842018357469,65.18131651340002,23.374681031138493,36.792688058153885,3.489821360529504,5.8828417220355504,9.744510742681921,11.484016042492579,10.569173263317964,56.77725691049227,58.942370570902426,56.86617581535487,399.99999999999994,397.0248737952486,387.63615286704294,369.82454559814073
11,21,22,0,0.7340666666666649,5.1367820351460525,141.77890642699256,21.117110397366066,34.15090938329048,42.26544757962261,45.512004785694764,37.396337693145874,97.58533988404692,63.43457870658176,60.93943043333195,59.22813752730315,68.91579567329677,26.69423566974922,33.44272407883466,5.307908505140176,9.078553891305546,8.282812152835524,8.282812152835564,8.140726705515704,54.06525384470751,56.63702736450233,56.85375876213887,400.0000000000002,395.3820874407658,385.8574784816486,369.7698195880871
12,21,23,0,0.7674333333333314,4.875471381837156,141.62197716915068,21.127042654627978,35.79037313088272,40.62892818197694,43.90932762514785,35.790373130882735,97.56358450159034,61.77735078214305,59.32676848769313,57.252339102931614,64.54630048806064,25.13692196880254,36.62754003554562,2.260841241917433,7.384777418102317,8.286707904650399,9.885444879660255,9.755553857829682,54.68081143242091,57.57736490515231,56.903711249023004,400.00000000000017,393.62365785243287,385.5768767664833,366.09707953056034
13,21,24,0,0.800799999999998,5.1195871731348985,137.95363890458884,21.046422990955605,37.27115720817281,40.5062565382224,43.74177198174408,37.37649276595298,100.5839286854726,63.32579602317716,60.687000410306496,59.54368842066242,70.03471923763641,27.572111942256015,35.54785638201304,6.64492928381128,8.026050167301264,11.447744935865522,12.95164491751118,11.332508441351933,55.61069517628704,56.003994500724446,58.304883287641495,400.0,393.6193524339641,382.41637031517854,364.700072675144
14,21,25,0,0.8341666666666645,5.038846508275684,138.7742605118528,20.71450126997976,35.05530984150405,39.835579365345254,43.022425714573096,38.27533811123962,98.84362420889515,63.81654841095527,61.31587085478253,63.04872046786994,70.98832233147112,28.796809933854433,31.7314020058883,8.29967451047628,11.018222994385155,14.340808571524402,14.429060534161689,13.552234246770126,55.28915492770676,56.04530748614485,54.19981556518077,400.00000000000017,390.5479875922735,376.32121748183465,358.8741336381484
15,21,26,0,0.867533333333331,3.6062974054255106,140.46053873300846,24.245478344060892,37.12910426466239,37.094060269818286,40.351873540675406,38.740430620659524,103.26864190368127,66.14385958238213,64.50586092094926,65.77885389228055,73.01815199970923,30.701328707161565,33.80000198969037,8.222356736535062,9.617665758492535,17.81379509884536,19.353422749470276,17.740357564887745,55.39558026135035,57.406999760535655,56.47051810819608,400.00000000000017,395.21465752969164,380.7027274356761,361.3934668988748
16,21,27,0,0.9008999999999976,4.818927365909333,138.2266099937681,24.09463682954667,36.98001308168196,36.94510980530474,40.18984139148107,40.189841391481174,106.06506691465263,69.08996773300859,66.62555060770512,69.67172587284756,76.80489033761444,33.11313642417815,32.709372397870766,9.317976473786416,11.9110387760727,19.27570946363739,17.742264157357283,17.680378085311816,54.669649162042674,55.85402363921128,54.70891732227073,399.99999999999994,392.0217075500452,377.605660061608,358.3833686559757
17,21,28,0,0.934266666666664,8.03154560984885,131.87396797123898,24.094636829546765,36.98001308168204,36.98001308168193,40.15772804924434,38.584869188602426,107.67065002120006,70.69585252291175,66.60930444391511,67.79803538051954,77.16433800553773,33.975275901287205,35.042890855671544,5.463676531260603,11.02604015914494,20.943708582888732,19.34252321497594,19.28884161282474,53.6140081294144,53.62297968365294,54.70891732227068,400.0,390.4520843697462,377.7013117827787,356.8935476499071
18,21,29,0,0.9676333333333308,9.850546849484756,136.11800081501997,25.9107188233487,35.66402438920067,37.2466583085637,42.136049270078466,37.28184646786028,108.60984762057211,72.94583540185829,67.94536473989172,69.9132399693251,77.77579599965225,36.6427312607907,34.522792945446554,4.691593444717341,13.547031977167762,21.114652559212978,21.114652559212978,20.273587306867398,52.372315765148244,54.089734147199295,53.53891427501355,399.99999999999994,391.9297342267538,378.99962353140216,359.6898990402179
19,21,30,0,1.0009999999999972,8.064516129032274,133.90982723992164,24.193548387096822,35.483870967741936,35.48387096774182,40.354825816764034,40.45140710962726,108.11265177334775,72.6522943842272,68.4598009407631,72.84939822694139,79.04858459844195,35.70803016878858,32.01718510367539,8.689610954271188,14.315462170026194,24.193548387096765,24.24725222318208,23.41715776748947,52.209332620095154,53.82183774563009,54.93350440621427,400.00000000000006,391.9487585698324,379.1180410820373,359.80758529959587
20,21,31,0,1.0343666666666638,4.8380804154781085,137.16429642317289,22.577708605564126,35.479256380172146,37.12699185306031,40.34957777384986,41.96103214251928,104.83748026913258,69.36456900341786,66.81622756982551,68.68752224641037,78.76169217588404,31.886861289006788,30.96222156645888,10.065363836877964,10.197455225813314,22.577708605564133,22.806929798068985,22.653673202421942,53.840450130071076,53.51462470403021,58.14649004274739,400.00000000000006,390.2751521789756,377.37371831777443,358.1087440453925
21,21,32,0,1.0677333333333303,3.2245222251254986,140.35008483408038,24.183916688442203,35.46974447638199,40.33876014854101,43.531050039195726,40.435302991405436,103.23508206921406,67.79169759273968,65.92993880283188,68.59440061535236,78.81849826804716,33.55362956929832,29.278097823626013,11.742221243549466,10.193115538595748,22.629163071824138,21.02131304566839,21.005873359172938,50.62477443788873,51.98798745824814,53.42401812668497,400.0000000000001,391.83252531283694,377.2828800975548,357.9364915691267
22,21,33,0,1.1010999999999969,8.094778073444497,152.1904390031583,24.338239579049002,37.23597913784466,43.74177198174385,46.94971282597835,40.5062565382223,110.08898179884501,72.85300266100035,68.73996135551931,68.33781821933474,73.36681699931421,30.487752709207825,39.13162055950647,2.2228351373723854,10.018225161874852,22.723124886765543,22.723124886765483,23.523163889130842,52.976834248149544,53.13592384048627,55.13964134364632,400.00000000000017,393.436193886639,380.4580140227118,361.0851765299158
23,21,34,0,1.1344666666666634,9.714608989249383,157.08622531495521,24.28652247312358,38.85843595699753,45.36374526290356,48.60002247953822,40.47753745520589,113.33710487457638,74.47866891757884,69.5373200921623,66.19698370954222,70.67727615924684,28.008455462207166,44.763158587730004,3.221038654669428,5.872099275796359,22.66742097491529,24.340432689231964,23.567928921819373,51.82823514303357,52.57053211694915,55.14460995727643,400.0000000000001,395.0740366636599,382.11138386153027,362.6931915739217
24,21,35,0,1.16783333333333,9.712699546331972,152.3033327031223,21.106351414485953,37.26718925281254,45.35482884823393,48.671296971365344,38.98546340084958,106.88873779167406,69.62650059883721,64.59364871641878,62.95031419839745,63.9575192255719,24.80905014303164,43.097773004882015,1.6433345180213337,5.831186999430429,24.281748865829826,24.335648485682615,23.523538463611715,51.89756429493161,52.4806829948746,55.25246609279429,400.0000000000001,396.63162978117055,382.0328488223898,362.62190286362664
25,21,36,0,1.2011999999999965,13.002866914887363,157.79375457772872,17.878942007970227,34.13252565157945,43.914764751693006,47.24735327661603,37.41855957512209,102.41047581187277,68.28439806599694,61.61045957539193,61.44282407031778,62.65156429111528,24.787997447667635,40.14870346524708,1.6984123540402152,9.065551655980926,26.005733829774783,24.596135206266684,23.65866351874746,53.70512207295013,52.80518409834167,56.9803446785205,399.9999999999999,396.6407277623393,385.2133613643632,365.72007932574064
26,21,37,0,1.234566666666663,9.634747750844431,149.41626951402432,17.66370420988141,33.72161712795546,46.595625293959145,48.28067282310207,38.53899100337751,99.55906009205881,65.83744296410335,60.944774086453094,59.358685897811824,61.96376929144617,22.169791329500754,38.774982756952454,0.7708920246468551,6.5392909676944555,24.086869377110965,24.300031668320642,24.176768841943442,51.45482743821367,51.9953379382535,51.48558547481139,400.00000000000006,393.50078609109664,378.9701469514702,361.3030406566651
27,21,38,0,1.2679333333333296,9.630790704575466,152.69857498041685,17.656449625055046,32.102635681918,45.05819635671345,49.99154531503751,38.523162818301735,97.91303882985025,65.81040314793225,60.90212948650287,58.874419737679204,59.272877985264586,20.609146027891256,38.69029584054567,2.2800666389609887,6.459450924746193,25.68210854553441,24.13042183666019,23.37178987781681,52.05635639010609,53.10120246155236,49.862534660443394,399.9999999999999,391.7705487858009,377.2606080894209,359.5495196374831
28,21,39,0,1.301299999999996,9.705152368865814,153.8010648540604,17.79277934292081,33.968033291030565,45.31958623204585,48.76778709556447,38.85429330780961,100.29961818965505,66.33826417391278,61.312311169022905,56.439108035070376,57.524984820353325,18.287754152142725,43.10401141580337,6.528503111517921,4.171355943464732,25.880406316975634,22.875263508245705,22.77692769129999,51.777783298246106,52.59881208711852,51.86180943756629,400.00000000000006,393.22172095667065,380.20449663033554,360.72266970535316
29,21,40,0,1.334666666666663,9.62916274910263,149.56231821133906,17.6534650400214,32.13730563048095,45.05057987540809,46.78932064804429,38.550071090330135,97.89648794920922,65.81884734471346,60.969740832249386,55.37634901834576,54.8187798976561,16.554492702383868,42.61863651875399,7.810392841408088,2.2789531520254513,25.727870339228147,24.54964437861739,24.27195735701025,52.49115007636385,54.155007134929974,49.85410607044621,399.99999999999994,391.7963687662383,377.2275629323211,359.5209816878339
30,21,41,0,1.3680333333333292,9.701028725693844,153.90566487382722,17.785219330438675,32.37715814043712,43.77423121376697,45.38680889169012,38.837784423125285,98.62712537788737,66.31007756542824,61.42478039088962,54.077702579582706,53.71213196033091,15.064184420149218,44.55057558761496,7.86868467048339,0.7801811996229162,24.252571814234592,24.73286738711852,23.646177616002262,51.17097033870175,54.6572657564455,48.612813336154744,400.0,394.8396817897408,380.1254850230676,362.26195319833226
31,21,42,0,1.4013999999999958,6.492007514726369,154.49238856599075,17.853020665497038,34.12166047258091,45.47302554361258,47.178852868443535,38.985842964640604,97.4341977640636,63.31787756602606,59.997399282722085,51.62941154190423,53.81081005553642,13.75890291999849,44.62032779318508,5.650179756620446,1.0638787832876915,26.01869943402993,26.420556410189764,25.33193724744342,54.686945524126315,54.722706155497065,47.31822939917862,400.00000000000006,396.491087744486,383.24844823671054,363.6828172336597
32,21,43,0,1.4347666666666623,6.686361441233462,155.98513053091156,17.838489365052393,34.05529787873647,45.436013196588135,48.89307256021753,39.05524669673803,97.42240122453894,63.43239424027172,60.13864306779146,52.13459496051064,53.46050022400266,13.745217898201645,44.60345306387546,5.7897863172490815,0.9192943160212508,24.325212770525997,26.39905164355643,25.36014800639282,52.41745475005564,55.38748254027797,48.89307256021753,399.99999999999966,396.43712384487014,381.5122681938027,361.86746259718086
33,21,44,0,1.4681333333333288,6.460600380701085,153.85523389510814,17.83991589815543,33.956586177582246,46.8671919023688,48.562060152654524,38.797236652603345,97.03006635198456,63.07362753691682,59.839231066270486,53.4212820523951,53.016308589242385,14.438184338485257,43.78995664611273,5.018149434717316,0.2817206700191264,24.227251427629287,23.125430053053517,22.84138369890229,50.59527158126474,55.04997967594369,48.69617269785945,400.0000000000001,393.22851684503235,379.97586008603355,360.41016711857316
34,21,45,0,1.5014999999999954,9.815217092578722,156.92737225460058,17.822924322558595,33.92424432662623,46.82255338283927,48.64979217093359,35.64584864511707,96.9376503497456,63.01355324527889,58.22792490033214,49.56747068261586,50.44334737336533,14.362590224840233,46.89515302410473,9.750831322526778,0.5094384833951153,24.257903680414472,24.41837667842474,23.57717051221431,49.46022047558529,52.74922682452194,48.83675335684968,400.0,392.9567043855623,381.3043435905353,363.35297782333316
35,21,46,0,1.534866666666662,12.917305075324162,158.7633486668407,17.834537240762515,33.946348413888664,46.853061646954615,50.288397533738795,34.06135613492274,98.70598315027665,64.76792025041121,58.32832512614573,51.364147240544526,50.688186168634616,16.97018059479808,47.673044018929886,8.77859971020223,0.4891823546718115,22.662877055113388,23.118457836030338,22.78700350307804,51.06174360311127,54.44154896266207,45.46932670327293,399.99999999999994,393.1099601499628,379.7892265552866,361.81426856055157
36,21,47,0,1.5682333333333285,14.522505751819555,161.87670724428068,17.822924322558578,33.885846754245954,46.90589231567857,51.86199374728529,34.229874323107744,100.25192027241951,66.4721871764633,59.23699525714676,50.53985425918768,51.96854271881125,17.072827092502962,48.968296953601566,11.465224888479952,1.9287294204920045,24.25790368041451,24.68351340493067,22.85901535397892,52.111411564773675,53.111493486510255,45.639832430810415,400.00000000000006,392.9567043855625,379.6139531920503,363.23830569050847
37,21,48,0,1.601599999999995,11.340866517834174,164.0250321300004,17.821361670882045,34.06115208661126,48.71160215719046,52.07129271718826,34.36801551125128,97.42320431438046,63.371489382982496,57.71714698313883,47.05471949224261,50.981116315573445,14.69075109406515,48.37090443189186,10.622543098785627,0.6248554763991478,24.35580107859511,23.196642500692974,22.960115058326267,52.74489276668589,54.27822606338174,49.03384339200731,400.00000000000006,394.6523115812647,382.84317001363695,364.704223171059
38,21,49,0,1.6349666666666616,2.2803594015619244,161.76092312258825,17.81017627700085,29.06899271642437,48.48110588809006,50.09010698372624,34.20539102343099,82.8024843944049,53.81841435013598,52.85615675728536,45.42185849603834,47.82522632958978,12.456260898518622,36.15813098835679,3.2194367621082165,2.8248539834654594,22.631920853714757,22.803594015620593,22.051796651877225,49.43046081543213,53.84261370389231,48.61499486406374,400.00000000000006,394.5087670492947,382.8186243193286,364.7042604206618
39,21,50,0,1.668333333333328,1.6176841209720938,162.28524540150457,17.86790512790755,27.54816791405679,51.86689858543652,51.992881036235495,32.99441159866244,79.85856226762581,52.39398924582958,51.507350861024975,45.268482410881006,48.39903365029738,13.99854446261827,33.00419218600757,1.4674458934765653,1.6008500656106435,22.705278622013914,23.161711780981246,22.131752157068206,49.84869232082269,53.503966637300664,45.755016470285305,399.9999999999998,394.29702355547994,383.96747271230896,364.2699939803132
40,21,51,0,1.7016999999999949,3.260231659915781,166.78243947287027,18.005217841716515,32.76492267819376,50.63865028228422,52.39244010836736,34.847896233764544,88.76276325447503,56.0200398797841,54.362240657759116,44.729102041366104,49.92850403025113,12.588963034731592,41.41715419913123,4.3625119427288155,3.4009786982089736,22.879765972548974,23.734844748698126,22.49809730464426,51.37080389703078,52.884328448589656,49.336257449026206,399.99999999999983,395.8329414429643,383.6629203236563,365.5096299371996
41,21,52,0,1.7350666666666612,11.480136994440178,163.00986051705178,17.858901978982182,35.75468347626366,47.19439497914788,50.56475829048932,35.04733717747441,99.68567261145385,64.0628675919372,58.282015657394254,46.06657820464545,50.36684221441408,13.411448380465572,51.468784866917304,11.368822975825537,2.311391905250616,22.787421287187946,24.835333549682932,23.853026929184864,51.603168117222594,53.699546821984654,47.7772352331159,400.0,395.85336884117316,383.92777583641623,364.0344019207289
42,21,53,0,1.7684333333333278,14.611828891894554,164.62692573920373,17.932547248038045,34.13290115759633,48.81421208042724,52.180979755018,34.70724715470213,101.12951658097852,67.05815214742499,59.78273971488636,48.28828920042963,50.87532113616305,14.995864427474999,51.54438111954232,13.47932846514857,0.6333767842658062,22.787421287187954,23.2455057201508,22.221712247971595,50.536330744584234,55.01457223333637,45.920547977760684,400.00000000000017,394.23532595699504,383.8282126190816,363.9656085875788
43,21,54,0,1.8017999999999943,14.664589833070835,165.08472390424083,17.99729876391576,34.25614952051368,47.36480627507613,50.74733942098985,33.2333465411836,99.87297997837169,65.68316833738669,58.39059483951655,44.76205178804378,50.08139019777866,14.311553340477872,52.44252510414083,13.922554103031416,1.5379039619982677,22.869702964792424,21.431396067680108,20.603389843829746,51.15792297117753,54.450846748632785,44.26450294375682,400.00000000000017,395.5279756105543,385.1210991543512,365.2180440453912
44,21,55,0,1.8351666666666608,14.671042469620899,163.5323881022155,14.76132666004303,34.27122273326456,49.012028805667974,50.76966900135237,36.45049806984294,99.91692556759708,65.71206990350993,58.41628756537682,46.5827921758455,51.72346168349645,12.788320447730598,50.75506091356942,12.218140555156765,1.4480759176482252,21.191505789452375,23.053319149655035,22.32299531799555,53.16248712665947,54.29379643732233,47.525634937550905,399.99999999999994,395.97053667384307,383.8568013959693,365.4405578231104
45,21,56,0,1.868533333333328,14.671042469620913,163.5323881022154,18.00521784171655,34.27122273326457,47.38564749079581,50.76966900135257,34.847896233764516,101.53933800270468,67.32990136744006,60.02608843463668,46.99416795978004,51.1370037707228,14.337814371784248,52.46991616206947,14.238746558913817,1.368937050572299,22.879765972549066,23.053319149655014,22.227214742188096,50.623652376758116,53.3795388075157,47.720927479994785,399.99999999999983,395.5777602853058,383.57633463340665,365.3241963219185
46,21,57,0,1.901899999999994,16.367483512565844,167.34101055423022,18.07847643391491,36.04564335936396,47.578447481115354,50.84468590279826,34.98968334467905,105.21122289560951,69.2288444277045,61.08313422207482,47.053439082728914,53.088006671511835,15.203333098117923,55.13400387933302,15.131385943557234,0.5530937506857754,21.340587576446705,21.836946659978082,21.588643065384417,50.94757882332959,53.66358390799769,47.719004500722576,399.99999999999994,395.680317115809,383.5897068566395,365.2296765294843
47,21,58,0,1.9352666666666605,26.123537029615367,165.3004091290982,16.408643620711313,34.32599464978539,49.09035932720089,53.97865721611679,34.6352440916606,111.3247603451782,77.01529857499189,64.0055104845668,51.180522306519606,54.6440040709349,18.323380315985105,58.39687489524158,20.41800589234242,4.441892395476998,10.326234694166782,9.931454512662663,8.277445808324217,51.09783971797913,55.19522132787097,49.65727256331333,399.99999999999983,394.3519944180572,384.03668046514224,364.1883060898156
48,21,59,0,1.968633333333327,31.36695400953144,168.78708832196273,16.59126244259003,36.35713187800599,51.28406038516715,54.70410490180792,35.292046782172015,119.2762557961269,82.95631221295014,67.36086451025244,50.53696868075008,57.1210432126951,18.651769212308636,65.41175462756621,24.825504821582626,2.5086629590555276,10.041985923092914,10.041985923092858,9.293244010032765,51.488208910577896,55.60092402189184,46.69428607432898,399.99999999999994,395.8081034812875,386.81643534808785,366.631925915164
49,21,60,0,2.0019999999999936,35.9434797765883,166.8667186401404,14.779378678743345,37.68017014084475,50.70057763359218,55.70731328276433,35.23239846041728,122.94020029840986,85.26111708787498,67.48615819916915,51.85324113022932,57.717930906992365,19.850801956388068,68.14769520598804,26.31603596629168,5.616026930228486,8.789177789565919,8.322157382826697,7.558412184292365,52.17228025408508,57.20183820663732,48.02951449766979,399.9999999999999,392.5757353467207,382.2621682444607,364.01892954969657
50,21,61,0,2.0353666666666603,30.860161156071843,164.3353296679738,14.617971073928953,37.357037188929155,50.37697952390736,55.43799965223382,36.318641127144836,118.74585079747345,81.47041097722547,66.10068462199001,50.53119426916999,56.514189975299246,17.332418858595588,65.12330975091231,22.374577072004968,3.3751403258239634,8.28192441723316,8.281924417233103,7.430789323566444,52.97006427456927,57.81126690700944,49.15778723830557,400.00000000000017,392.65137596892305,380.6533195854978,362.37924048212085
51,21,62,0,2.068733333333327,19.506071828895042,158.08411341485032,17.954300448110757,39.012143657789885,48.79226381735355,50.62609621914569,37.52771982494767,113.8898678760413,74.93212350568552,65.19471392223875,52.538403770291666,55.48173171260498,16.482636476954212,59.74955722895925,17.21846846253254,0.5886655884627316,10.280602530359042,11.833862201879446,10.743146989443403,52.68557016740738,56.9533956837617,49.43783451421171,399.99999999999994,394.45909631249737,381.048560010885,361.15875209993646
52,21,63,0,2.102099999999994,11.54075583317807,152.1017329007769,16.402495886482743,40.835362688690786,47.359302372241096,48.99047452844883,39.30639800760148,107.8304393297649,66.99605080357192,61.32362394122049,53.11365552377333,56.9492358745274,15.725879438091056,52.69356815202411,8.38348276664783,0.3835580350754526,14.779378678743296,15.047304637102103,14.109456290273386,52.803156162045696,57.1501472262334,49.39659206952335,399.99999999999994,392.68767838175313,382.5025047673986,362.62590134597264
53,21,64,0,2.1354666666666606,12.965351321402292,147.62327891464133,16.20668915175276,34.07261272365251,47.02733280616875,48.64707110491309,38.929803258160504,102.15357850648701,68.08738538133325,61.522887517558274,50.231286444698526,55.332475996906965,13.878503247911794,49.26006352283707,8.704698897807475,0.5355341344843509,16.287521020528413,16.920280223893382,15.60310469794672,51.24789361524557,56.24016097060934,50.65724701131364,399.99999999999994,391.3370136057588,376.49781857772865,356.78281712194706
54,21,65,0,2.1688333333333274,13.128653978748927,149.5636924456043,16.410817473436225,34.46271669421614,45.979584618062304,47.6196567798742,39.42013631311996,103.4011737206772,68.9449673078801,62.27865891284807,53.633693868300156,57.99751788122296,16.430945783394122,47.345193790730605,6.306874073413496,2.916871840216686,18.051899220779855,18.347851718472384,17.446109053768737,52.42101014260379,54.68101163140159,51.111200557416616,399.9999999999999,394.6281266675995,381.158679643396,361.2766083573231
55,21,66,0,2.202199999999994,16.338647889054315,147.27458183934192,16.33864788905422,31.04343098920314,42.5118933768388,45.77738094860415,37.720697781331225,101.35230852397666,70.33213857854393,62.15193215348825,50.76839216542294,54.15417174386687,14.74186729965686,48.78267819644361,11.282881676273632,1.5464776993431997,19.674337384563238,19.87682303505511,18.98781790613782,53.16589013718601,56.69808180550831,47.63493493394534,400.00000000000017,391.26200729891895,379.5633538188319,359.7509074759808
56,21,67,0,2.235566666666661,13.06644993779971,143.87935508513436,16.414524585561093,34.29943108672409,42.497360425833826,44.12950458650605,37.601533464371286,101.31766061683717,67.04518206628532,60.50174713007107,52.35144335065149,57.171713305974095,17.183710451417483,46.445692756534754,7.322394817627469,2.354941046875183,21.295707965490855,20.202882467022473,19.046505615449632,51.56033034271678,55.0007520283861,49.43281684565608,399.9999999999998,392.8636290562288,380.9842172233381,359.56486662228525
57,21,68,0,2.268933333333328,4.93447082950792,146.5370760020121,18.09305970819544,32.937567118671495,42.79703338970777,44.41023746557086,37.97370180906163,93.88471045356427,60.947318098186315,58.47574813623555,51.462344774269354,55.563480774367804,15.542844638575389,40.35241343018242,2.704906552873922,0.7418908943998304,19.737883318031464,20.34534443659021,19.16474676899952,53.00142277880076,57.71081715194754,49.781395641805965,400.00000000000006,394.22616760031565,382.293242286251,362.31323830538673
58,21,69,0,2.3022999999999945,1.6321093419317085,147.03484558781133,16.402495886482818,32.682964102300694,44.09716612136288,44.09716612136266,39.30639800760135,90.00309844181348,57.333285581427056,56.51419726481413,51.11509728608246,55.184770636885105,13.84593311128674,36.85315312115813,0.6059291433417684,0.6873226103577963,19.653199003800676,20.188077628024892,19.014418266806217,52.75201034496092,57.355263090646645,49.39659206952327,400.00000000000006,392.8063709825644,379.33816633077555,359.5126051253083
59,21,70,0,2.335666666666661,3.2882852597749292,148.11891060173747,16.523428933751397,31.238709967861393,44.39185100696086,46.06534397048773,38.1356038791614,89.0269454889671,57.91957690953722,56.24250074987356,49.503600077123224,54.42117624372486,13.878492736853445,37.06395370012717,0.9835152333203041,1.1474344388736881,18.16014891085452,20.001858367090634,19.10569406950043,53.67443319620378,55.641463662844444,49.57028680125407,400.00000000000017,394.32353985147137,380.70689750795657,360.60737086131803
60,21,71,0,2.369033333333328,3.664392903786216,155.82074121846,16.38766325826731,29.497793864881356,45.91471148195284,46.00236293586392,38.01090143652284,87.1016249826883,57.73018138455491,55.99564979390016,47.42516647581169,53.029295077841994,12.267017656561052,36.87407093192451,2.5373741878897818,1.0861421883412277,19.665195909920804,20.270419971267028,19.10788799405543,53.412639379609516,58.55127847235019,49.40819323991978,400.00000000000006,391.26725751483804,379.249618219365,360.97897111005204
61,21,72,0,2.4023999999999948,1.6448236098359712,154.75334099966304,16.530272697534492,29.60682497704717,46.05506107540662,47.728235287855874,38.151399091263926,85.78350426701336,56.30969008225211,55.432381205402066,47.99521858396031,52.57053186332769,12.194759298393365,35.499691679552825,1.0299011963516023,1.066357875868448,18.167670580231366,18.753874585578046,18.34226688192564,53.04446869704708,57.920549582428464,47.9544367222962,400.0,394.2261676003151,380.65141822693073,362.23482482014197
62,21,73,0,2.435766666666661,1.6448236098360094,153.18951463017189,18.167670580231444,29.65247932178661,46.05506107540701,46.172399000802784,37.97370180906159,84.14362007579017,54.50301174069399,55.31427481937487,47.968671096778735,50.846424769760915,11.437696127011918,34.734670129306664,0.2566149772086419,3.592609680920418,19.737883318031496,20.010142845720058,19.10406857111866,51.56128077769904,56.23533929114137,49.590818092603364,399.99999999999994,394.353106587242,384.0372544210082,364.04149350809433
63,21,74,0,2.4691333333333283,1.646704165063293,151.63990724531266,16.549172043667465,29.640674971138623,44.461012456708175,46.13711268253361,36.37688398325917,84.12708437172736,54.565325974888815,53.72695010246389,45.177223712439854,48.57183524638822,10.508850599776224,37.25044465178394,1.3361768803838459,4.261320861764943,19.82894394690038,21.659011682252366,19.93431453978161,50.9733423422133,55.28883253696665,51.2863097621535,399.9999999999997,392.80021531532657,380.9905517534249,361.0039762362761
64,21,75,0,2.502499999999995,1.648339207727179,150.14370691618007,18.206501628130447,29.670105739088186,44.535672947910335,44.53567294791056,36.41300325626099,85.85616504329077,56.26127262554597,55.41817394814336,47.28322840734711,49.85167750505923,12.170426952326011,37.288213858065546,1.4304707608254148,2.499896185851526,19.780070492725397,20.05291193996794,19.071420079630684,50.454943129432934,55.88433374879577,46.41765353804811,400.00000000000017,394.6283798869504,384.4165935223877,364.46565353539523
65,21,76,0,2.535866666666662,2.331796716002948,150.1883456659468,18.21191454544145,32.97658540468292,44.51839029632195,44.548913707721574,39.606238199225025,92.34915964960774,59.38074971914684,58.57492885478348,48.71896845102788,51.33925643150394,10.430584960877809,42.23260645023515,4.8130552904534625,5.897946454299699,21.434780513043794,21.68696307674007,20.77382698907286,53.794052539528934,57.50842567676523,46.43145382354505,400.0,394.6527193176283,382.81611690489143,364.5740116640235
66,21,77,0,2.5692333333333286,3.670713564993835,146.18475634928794,18.05752312596503,32.872874436435204,42.681418297735746,44.35340076171791,39.53479501455238,93.62838368996435,60.761121063448165,59.13025282863009,51.65024854652256,56.454922829920065,14.523219992996815,39.52936569522444,0.5459857140224358,0.10919714280441895,21.340709148867866,21.901582488801715,20.747457132852617,50.885868546891174,53.28820568858998,47.86024940343609,400.00000000000006,391.2815371378649,379.563142492347,359.74865701234876
67,21,78,0,2.602599999999996,3.2994530321119697,145.21342235697466,19.796718192671424,34.644256837175256,42.892889417455045,44.542615933511144,39.6277907834641,97.34784417655854,62.711310781145606,61.037411599019606,54.265644794930495,59.02418363023651,17.02092737244027,40.63060082453467,1.1368683772161603e-13,0.7320828977393603,19.865337872229446,22.010096974900268,20.81860740446325,51.6118442906253,54.906217330452364,49.60165531825972,399.99999999999994,394.7813132500905,383.0244345079456,363.0747860665386
68,21,79,0,2.635966666666662,3.671795974540976,142.89844984775053,21.347002036316827,34.48361867405053,42.69400407263412,42.694004072633895,39.546452922151325,98.5383078085217,64.06205492007284,62.43917279299728,57.45649566238387,62.14607413825536,20.26960384199822,38.66154442705613,1.786069927333756,2.592091227874107,21.347002036317058,21.59815187652502,20.67719415874882,51.40217657537056,54.61710244457123,47.733347669031254,399.9999999999999,393.03656026637395,381.3156141926957,361.43977895221525
69,21,80,0,2.669333333333329,3.6889006341850235,141.88607148985784,19.865337872229446,34.644256837175384,42.892889417455045,44.57315595488001,39.5934363853432,97.33386444730208,62.6896076101267,60.99165641791092,57.65152819697505,63.8742328277599,21.230404034441676,36.42112416253349,2.470779779870327,3.3858834020445556,21.509802142797252,21.698764502976204,20.772852223354505,51.61184429062541,56.461893488148576,49.601655318259716,399.99999999999994,394.7020250102312,381.31529026882464,363.0335558924371
70,21,81,0,2.702699999999996,1.642533879374995,142.9004475056341,21.352940431876355,32.8506775875021,42.73745638072004,44.378821613167915,37.813969624920006,93.63883820781228,60.7959458887366,59.95971043817303,54.38206295555233,61.51817076419945,20.13694789681449,35.6395269293929,3.1579327658955663,1.0253028460699625,21.35294043187637,21.416021634098065,21.408323425941433,52.495505718783534,56.842789786120306,50.94503585423243,400.00000000000017,394.621969242573,379.59949430003684,359.7749158174163
71,21,82,0,2.7360666666666624,0.0,143.04316206061824,21.36861998882848,32.87479998281291,39.44975997937549,41.126361639088614,37.84173658714272,92.06411503207345,59.19746528909028,59.18950506743579,54.78930427686146,57.819545646040524,18.462698162512538,35.72781590367288,1.2701610529493337,0.4717741053810869,23.01235998796915,23.0709902995223,22.241427295036488,51.97680480247391,55.896158908717155,47.66845997507869,399.99999999999983,394.8398971247862,381.4751900346549,361.6564202026116
72,21,83,0,2.769433333333329,1.6299940153859531,145.06946736936146,21.189922200019137,32.59988030772163,44.009838415424,45.6398324308104,39.25545419827389,92.923955970094,60.331801494455696,60.358860557357616,55.94412375400168,62.3852971228323,19.938688349582776,33.72569426825976,2.9672821137310166,1.0132182827373981,22.8199162154052,21.439223978578152,22.127963567640393,51.493200583405155,55.25658277642992,52.26158382521433,399.99999999999994,393.23753418296326,378.3833715368561,358.63202262182773
73,21,84,0,2.802799999999996,3.3130909856800983,147.4697699057376,23.19163689976092,33.13090985680133,46.41284554227671,48.06837193636401,38.136541191091545,97.75022159060958,64.62650849388166,62.96913118878274,57.58373308653495,59.13021564968028,20.222533752190657,39.38072362268724,0.5913021564969085,1.1917012692473463,21.535091406920813,21.78845413937918,21.6052711027678,52.889703659575616,55.94628096085154,51.459673200517436,399.99999999999994,394.60568759344596,382.7516382569046,364.44377328148767
74,21,85,0,2.8361666666666627,10.083379315909538,150.8595666339986,21.613729078331957,34.81164431117719,46.41552574823648,48.07322309638773,39.819256740742205,106.10558025186022,71.30025891555734,66.35392573550268,55.88861659952454,59.25739684910059,17.755128692437893,48.51595818446867,9.692146455747661,1.2978087846728386,23.207762874118128,21.803604430592163,22.449330679552133,51.30486642387183,57.54539377144715,49.758541063410576,400.00000000000006,396.4115551822492,382.9854925520902,363.03571924513403
75,21,86,0,2.869533333333329,13.197812128447723,153.4334352342443,19.796718192671637,37.94370986928721,46.192342449567086,47.87050407598823,39.73067574445888,110.58091117800247,72.6629155820879,66.05478257233744,55.99705847696089,58.561325070646944,17.610078179607285,53.30140719914607,9.835729284262356,0.43945911587900355,23.096171224783543,23.330656132128674,22.330865795545265,53.795232391216246,57.9814202579405,52.81701920046815,399.9999999999999,394.62961748713644,381.17608567073626,361.30517269771997
76,21,87,0,2.9028999999999963,11.506179993984533,154.52030296972558,21.368619988828424,37.80601998023501,49.339588035189095,50.95593997336008,39.58650132519217,110.17963588246985,72.39923686381853,66.63730719486227,57.40749627338914,60.07867974245812,19.216916125414173,51.436345597687364,8.0732160173402,0.40847994630075846,23.012359987969123,21.620024166639002,21.429133362684183,50.357774952960256,56.07649420117275,54.342949266293516,400.00000000000017,394.66536258086796,381.3795613558591,361.6227998109427
77,21,88,0,2.936266666666663,8.420944970494615,156.8995940493348,19.817798181896965,34.68114681831983,47.89301227291774,49.54449545474236,41.41898748407118,104.05654663885633,69.38195136514415,65.27721822552348,57.596196762386626,60.30175059119313,17.586099887241403,45.10020662086583,6.488743504679746,0.38978317872624757,23.12076454554644,23.355499137676226,22.355211721069622,53.881792353347464,57.96305151883507,56.1747094494171,399.9999999999998,394.7908456507417,381.506913289255,361.68989854335837
78,21,89,0,2.96963333333333,5.224719941087609,153.66362344524052,19.89514080650285,33.04403030067508,44.640026744887734,46.261642420945314,41.43700318929948,99.1871489961906,66.17061911024295,63.651936177696484,55.48835500620771,55.55296220598211,14.181280350472093,43.64216344758029,7.056029175356912,0.9644931966315653,13.217612120270122,10.049949468149295,9.931049565316016,55.58988060585318,59.853955790960924,54.54767760817158,400.00000000000006,394.88998780512975,386.629275640482,366.9710285928894
79,21,90,0,3.002999999999997,2.3372238290416583,153.70689918460977,19.832001823993398,31.40066955465613,42.969337285318744,46.27467092265115,39.69841927584806,92.54934184530241,61.14867229064628,60.32762002550396,53.41878986910035,57.72078307989193,15.883186854412543,36.96580258941742,1.8945864140240474,1.011395754855016,8.263334093330613,11.686119145208123,10.769228037610617,57.74927310115538,62.47861663089975,51.23267137864953,399.9999999999999,396.6434795207961,386.85114289605804,368.9927974012103
80,21,91,0,3.036366666666664,1.63922036729204,147.61177132034044,18.031424040212784,27.914916973512483,45.92743274828157,47.56564467515412,40.98050918230158,86.94051483335879,59.03469578198093,59.0174828190917,56.458173429340604,59.65012109521001,17.07644074097982,28.85693227657555,2.05607439738435,2.61202924609438,8.196101836460373,9.835322203752414,8.195541304259166,61.23171678550557,68.50705696086538,54.119103093770946,400.0000000000001,395.0657117717053,385.3876458645502,366.0750143261123
81,21,92,0,3.06973333333333,3.7092730664609417,149.74625253950745,18.247210792174357,29.90511552062916,41.603428951731246,44.91131705392814,44.819316990662514,94.78626199543089,64.88577844613572,63.95131455407079,61.18547284887825,65.20085725337105,18.378105543639776,31.575522817147203,2.288488314448614,1.2495426993001502,13.373974235822235,13.270698757944894,13.253576495947925,63.37568252405623,70.59214260765498,58.0593070660091,399.99999999999994,397.0481849315662,389.1909580879615,368.4150396138942
82,21,93,0,3.103099999999997,5.255701833992656,145.74507524943718,20.013116339880366,35.2563197108337,41.848061748193814,43.49867263603121,46.565636887891344,106.83434096988145,71.63966951671047,69.06477588282758,61.87220319417429,66.91315157425606,17.898676940534187,42.44138059215186,2.425897297356414,0.14659418366090904,18.357377306346685,18.281987347955024,18.206051841758722,63.60296033029988,73.94021470071152,58.26485370501468,399.99999999999994,396.079119116667,384.0691993906639,362.03355699212585
83,21,94,0,3.136466666666664,17.008399460166405,145.59711124135958,20.08310128913048,37.031409035091045,42.225596395343224,45.79651709928691,46.81767971558473,120.8213518575646,83.80645466905293,75.32106618620105,61.56886643497603,69.94851461208043,18.985888584125064,55.06147107915626,13.709104417742765,0.2537836305066321,21.93662590413096,21.681540185592343,20.805469331153517,67.01803193528735,74.2005875156625,60.4106759287823,400.0000000000001,398.4253004643012,387.15129929312843,362.41033274848917
84,21,95,0,3.1698333333333304,20.241290634043686,144.22579395105353,20.03509214379198,38.59210616614056,40.4825812680876,46.019093613474645,43.3872175441952,122.1863110599829,83.606113287282,73.36298639651386,63.18628156021225,69.45104971849264,23.060583243262727,55.74509766180222,13.649257322226049,4.748184011366334,22.198178748440988,20.03509214379198,20.112457051130832,66.92813403484126,74.15671267901087,58.82505603337425,400.0,396.9571269521377,386.3512171673988,360.40897770343116
85,21,96,0,3.203199999999997,16.88222709446091,141.55693792888266,19.934120051578628,35.11715505756131,40.58357528145311,44.17261042993843,41.682878000965964,113.55150173457436,78.43704808615108,69.92026579863875,62.377626553909636,64.71584471977565,21.92079530499393,49.91341520199478,9.484868850246812,2.7624916233819476,26.948587409866725,26.538699075943136,25.706257375942357,66.6297894281256,72.34333865600786,58.78555348881256,399.99999999999983,393.82044950850667,383.09724202668394,356.98027070831176
86,21,97,0,3.236566666666664,8.860268430099255,141.34357164336535,18.173048926929326,34.90230725207838,41.94735280978904,45.507041076974346,43.061897834271605,104.70692175623515,69.80461450415676,65.41843155323022,59.08275671723595,63.714483343252596,18.42335164047654,43.23886258799632,3.4737949695124826,2.78656723841641,25.168411685873515,26.376334520856254,24.72607720169225,67.53659921756713,72.95910843826942,56.54221651598683,400.00000000000017,395.45339232377387,384.96399316582387,357.94486188787926
87,21,98,0,3.2699333333333307,7.3540098041425015,139.65843555232453,18.163064367460013,31.630792176127468,40.313122912926886,42.69127789983136,41.405099786400584,98.1422847783648,66.51213005394578,62.947186334958815,57.55831561054174,62.124528539979224,18.51442206004731,38.25820913955863,1.8024524721463422,2.9486273775112295,28.386858878210507,28.003235043324345,27.942634991274645,65.65548671618399,71.59895820126155,58.39380160234257,400.0,395.2361239980856,382.80782205876204,356.5784864540472
88,21,99,0,3.303299999999997,4.678042619428326,142.44044446308368,18.491587085917235,32.11366375167235,40.91616221388417,42.93872345120525,43.12942190293046,97.34376112724615,65.26246704699955,63.27727704463416,58.38708211409221,62.88975216334586,17.78923740770699,36.68568876195161,1.7161816171335431,1.7530887486848314,28.551393703412227,28.16554632273374,27.108288124399905,64.82737656978685,69.93901428963625,59.03422886604163,400.0,398.3827796451523,385.7080891546388,357.81674936218934
89,21,100,0,3.336666666666664,3.6488999939499913,140.90613685185286,18.244499969750155,31.684556583688693,41.9544167892385,44.3907843200091,39.29985566434581,92.5555549284151,60.92679674033861,59.020878319040776,55.32179820155204,59.669359030995565,18.477133525134604,34.97229078978751,0.7580830858063337,1.3152284862181887,28.169886075107925,27.932561828781743,27.03068545112984,64.13565576544471,65.93496140284043,56.997639990327635,399.9999999999998,394.2771100938772,380.3897302004536,356.2380530911419
90,21,101,0,3.370033333333331,4.656004821295644,141.34828542719768,16.78746412198835,31.962379443973678,40.72341020271266,43.20938040127053,39.54179083095156,91.74220066492614,59.830114870689556,57.55164385635953,52.30964369686376,55.45484379256129,15.091442564443241,37.60445377575172,1.9036737421326961,0.1379473726183278,28.416890899133726,28.177485698928468,27.97572716699358,60.64166500300985,66.10438095869495,57.4974180866309,399.99999999999983,396.07524960968544,383.753385680511,359.33529775317663
91,21,102,0,3.4033999999999978,5.213170246776738,147.64412355372625,16.811968886109916,29.212365913889236,42.79882600112472,43.80304062441941,39.7023217616917,87.97755746456451,58.84189110138466,57.27153948503121,50.187484972349466,53.00464286764452,12.540011280680005,36.321214292910554,2.2958007523345714,1.8293233086332066,27.18856960921392,26.58205681599554,26.323962411230468,57.477338357252506,64.20010151647915,52.391712571833516,400.0000000000002,396.643125527529,384.50797286066296,359.19083481494846
92,21,103,0,3.4367666666666645,4.673171445471129,143.704771027733,15.674293533876256,28.233072709058238,43.368692778013354,44.48726676688713,39.790621049570795,86.95741189210256,58.972757429880275,56.705401598347976,48.828644247170814,51.70198381025841,11.271286267190817,36.6418775513622,2.469984324736174,2.67846006590662,25.649283755747028,25.002559071916533,23.9248573399679,55.79898533238969,63.48539526771566,52.89670906910855,399.99999999999983,396.342384662585,385.1930838785621,360.54660990370616
93,21,104,0,3.470133333333332,4.91254867237262,149.14887546308577,17.096171293170162,29.01686141988386,41.42624778968892,43.50988767274107,41.0686979670133,87.77148062444546,58.79116554656743,57.951117557656175,48.17928825573961,54.68779793920544,11.285647013809239,36.240977318240084,2.529072704299324,2.347777169940855,27.006609422906287,28.2679128432296,26.50540712319514,55.630534717868954,62.800773101742834,56.46463679062232,399.9999999999998,394.40012535684644,380.3622741793637,354.7216959911877
94,21,105,0,3.503499999999998,4.918156700617948,147.77221804037214,15.552577063571444,29.55444360807438,43.55955734428955,44.14180730023376,42.90682638294468,88.72393461176713,59.24513531213026,58.454964228377435,48.59481638619309,54.56100284035551,9.395605080104701,37.1315405807527,1.9447035236086094,4.094352383428941,24.371218540490293,25.077776987357787,24.948678928169215,54.442589979433194,60.554515339346096,51.34706341330326,400.0000000000002,394.9830677450421,381.11747968002675,355.6597775196656
95,21,106,0,3.536866666666665,5.199015919420874,146.64543038083235,18.745318479425386,31.19409551652502,40.03579842156557,42.74590293179515,39.76482543690989,88.97762986701593,57.82371589416795,57.8181916434429,46.864168514948574,52.797030731126824,10.695480967697222,39.12604700057557,3.420013846329084,4.807977025343121,27.559688668488366,26.763572501730305,25.795250323704295,55.83603507733443,62.240623341282,51.4938840701634,400.0,396.83513299947936,384.21044227405827,360.9929506186014
96,21,107,0,3.570233333333332,4.932219569053481,149.32131264799446,17.16462802338775,29.63895093011438,40.03579842156552,44.904571962855,41.39670515906819,88.97762986701596,59.4145395410007,58.553235687514075,45.74527752791039,53.012714461168684,8.742510766246369,39.55716291147269,4.0114812775163955,5.00086006793515,25.99507959710429,25.522879410098582,25.489995382244956,54.52376570471745,60.63992550003388,55.1193773369765,400.00000000000034,398.408836464594,383.1678259759397,362.5358461642504
97,21,108,0,3.6035999999999984,4.907493192050681,153.17529367160842,17.078577705133796,27.95309347533434,41.92964021300152,44.679454779820034,41.41593456716521,87.436662347082,59.54514953170861,58.76085320511447,45.46225011909564,51.18977769315484,7.392090275270334,39.1082742166235,4.241950109537584,7.338394704263351,26.97881705043288,26.629400416658115,25.89021448711486,54.751583903273,60.33592328798079,54.84305093157202,399.99999999999994,395.3232080901602,381.2469155242249,357.6489399528509
98,21,109,0,3.636966666666665,4.9072880147098354,154.161411372059,17.07786366702428,27.951924784687975,43.463294623133436,44.04425785881313,38.1872640699403,84.31717949820799,56.404171003101766,55.62004473196885,43.24955767000267,45.85387073567972,6.771213970760186,39.76516639592455,6.079723949873824,7.794978417267998,25.86367876821442,25.02235734582502,25.095699524257213,55.669436876317945,61.659356927375256,54.84075799892418,400.00000000000017,397.27149410964347,382.9222239176584,361.1629144422683
99,21,110,0,3.670333333333332,6.576570519549656,154.95117520756034,17.165353000391068,27.56085269840373,42.14268236278347,44.90646858315872,39.76650497135405,85.82676500195592,58.26856325833836,57.242477832496206,45.69324126164065,49.381081599686354,8.464043312441618,38.2725869228899,4.794192439459607,6.844991456714297,27.11589490642694,26.764702906337224,25.769908703661486,55.53347865145065,61.14619175130565,53.55464958008203,399.99999999999994,397.7500118018321,383.77261566482434,360.6223630606698
100,21,111,0,3.703699999999999,4.899551133213246,154.9374109341303,16.6552712240669,26.384890333336077,44.42740016296123,45.49523371154135,38.12705763088507,82.13144323131682,55.863477961064305,55.03013966509229,45.67782563010576,46.48059936701452,8.348846863850667,36.044540787201186,4.442014677561474,4.174423431925334,25.35382924175392,26.9351557871375,25.314131837188143,54.18722724133812,59.29822003299029,52.71921066879194,400.0,396.15058361664694,383.22439147056406,359.17048060027355
101,21,112,0,3.7370666666666654,4.88596756488358,155.03058652608075,17.003666323326176,26.311740579210806,44.8102394512873,45.36910223561592,39.223227027636796,82.9975551715605,56.88650341299803,55.954849538405824,43.71249869990743,46.866641492358895,7.083456271183536,37.662603343764545,6.049895356142883,6.0320753403664185,25.283538012503556,24.91364395612203,25.001482134516948,52.462126446199534,59.019892251974454,56.159114610596866,400.0000000000001,395.0522914720875,382.69254095403636,361.79628484015427
102,21,113,0,3.770433333333332,5.8655450009663594,154.33269842111184,15.433269842111118,30.39130915405795,44.254002371960084,46.29980952633358,44.403257441126634,94.31286788387227,63.92347013091187,61.53395559178557,49.30548365323875,50.9074668766292,6.3011340120024215,44.090138270423154,7.867517608206185,4.752550229391545,25.254874588368565,24.885399873228565,24.198846579991994,53.95123500107093,58.95298262076773,54.54059237076231,399.9999999999998,394.1111752279451,381.72868695724486,360.8181281758514
103,21,114,0,3.803799999999999,13.883515290857607,145.49362169317322,15.415558638868397,30.35643212159828,41.65054587257247,45.26566171726309,44.94369042770458,104.46497760798466,74.108782816483,67.1061826401833,54.3418353287384,60.74875481111326,12.786843517492457,46.82810250881835,10.60921077207854,0.3419423319245425,25.69259773144744,26.799239188280968,25.19575077338419,52.515143397668055,58.166190356841355,54.47800164784086,399.9999999999998,395.15516003423676,379.837056969847,357.5796768489494
104,21,115,0,3.8371666666666657,13.079462045746292,141.10346214077032,16.54435625371345,31.87328719470764,38.56181151674755,42.179997688757794,43.68196906125244,104.73625928813844,72.87755344047908,66.48419427888155,53.489719923344865,58.52912826067211,12.364548313370733,48.702282002883976,10.402778639196981,2.8976597939631574,25.650935460983145,26.409254427660994,25.449012103502525,54.94754876378596,60.05894864878928,52.84341737302579,400.00000000000006,395.0577175977953,381.73556340284784,358.8674963733609
105,21,116,0,3.870533333333333,6.87118001176656,143.92165446155357,16.516261236911312,32.26935814995144,40.97180157852661,43.60778994930023,44.79461325928801,99.44106088615474,67.18704012423628,64.16306168283518,52.86854069752917,59.674728906942505,11.575879159317083,43.16838269828668,4.582118833896288,3.6174622372865315,26.7103467396217,26.364407203901163,25.45621574386871,55.65532642106848,59.29958467492759,56.961304092641825,399.99999999999994,394.4865930942997,382.06342276694505,358.6495618242427
106,21,117,0,3.9038999999999993,3.611938767718434,142.03693748362022,18.059693838592054,31.735769224754584,38.395435767515835,42.919803758156974,41.18243819915398,93.24120412879881,61.50910080554496,60.29273357052318,49.51964736959508,54.88613300712814,11.107377249777755,41.02419751482921,4.118465721827761,3.004162225662185,26.640344036799636,26.295311142342467,25.43732021046617,55.608201672643474,59.200716144281046,56.81201942473309,399.99999999999994,392.7292098709236,380.15033516689965,356.0316460174124
107,21,118,0,3.937266666666666,7.209723823075002,141.29035411593526,18.38126123073717,30.117321464690875,37.21921726976123,40.784356846228626,42.68375712206951,98.14232416347939,68.03550156151329,64.50130796611563,52.524555032809985,57.43971342787904,12.387101019499369,43.15869816440795,6.182277210678421,3.8374310038565227,26.588147724657716,27.82990751538241,26.75830267554045,56.2221971281831,60.14530520498113,54.74170055751997,400.00000000000006,394.20776196310004,382.48926912962884,358.39289837812754
108,21,119,0,3.970633333333333,8.092392266389147,143.86261589421977,18.453493584798373,34.93814801525175,40.46196133194556,42.483132594786554,42.851490348772195,103.63318611946028,68.7043626832508,64.95984414903887,54.2210052847247,60.51572089575666,14.602119260784093,46.26480894374254,5.984032222504652,1.3102734211805682,26.692630462602907,26.097180900786725,25.300434204855378,56.57139265880113,61.78547039669439,53.38526092520604,400.0000000000001,394.1950385195696,381.5114541785808,359.2949261102276
109,21,120,0,4.004,4.600246910503384,143.6518713091163,16.980457916741987,31.954336270904,40.6608223193678,42.69192716179434,42.78476944722342,95.46205122424202,63.514234868387966,61.52237250421865,52.431283077845364,55.80668756783541,11.543883355765843,41.33745365407822,5.963214598982518,3.307896400190316,25.249028359178133,26.225442383721152,26.21564153892274,54.99659049023791,61.52237250421871,53.64763687911212,400.00000000000006,395.29011867253365,384.0379689696275,359.0108848054318
110,21,121,0,4.037366666666666,5.909548794763583,147.9204403804193,18.32473290751142,30.619307217497905,40.97534845072282,43.022164621943126,41.786820265299966,95.02041065953847,64.40302918262401,62.216073763520285,54.626085669717554,58.800806502618116,14.966237757162958,38.28646480630641,2.4329800061020705,1.4234069942242513,27.031310353411133,29.683804911254224,27.84056747169592,55.22637232542883,62.729955521818624,57.24829570078678,400.0000000000003,397.5242388629226,384.5400556495063,362.35555006215424
111,21,122,0,4.070733333333333,11.038946493217628,152.1257791658179,18.398244155362715,34.36090675964736,44.3088394161026,46.34020653249335,41.95445170183694,105.36910707798143,71.04676787765267,65.67186937944655,53.23959608742268,59.26019953974139,14.323943258915278,49.10156803484722,9.776659684656579,1.900764534040377,27.139748788239295,28.167946135151492,27.174566639770944,56.05891190346324,61.424706521088694,53.9040296322538,400.0000000000002,395.93089817241173,386.0826712762813,363.321303349688
112,21,123,0,4.1041,14.58819667835396,152.3489039711686,16.633103349172142,37.19274976552829,43.520774265911285,49.06602840883617,39.68418537925292,107.59722226225385,70.4173326547073,63.32566785161134,52.298143909600526,59.084312489299464,16.0814337000495,51.887402127145265,11.170390648951752,2.9912716765776395,26.899305565563463,27.918393650427276,26.77411379766727,55.539432323325286,61.93271745893628,49.899310047516316,400.00000000000006,394.4111268713988,381.98378901466026,359.5221041666718
113,21,124,0,4.137466666666667,19.148833350062215,155.96964644521356,17.08029176208119,31.04082721457773,45.249392566102024,48.8064297109594,38.19269345554312,105.17553712676235,74.19919299347693,64.68151915529404,52.8535801887291,59.75844220863439,18.158890377023567,48.75549974314902,12.957825478913037,4.905142240114515,28.571428571428555,27.859995050047903,26.875157757994828,56.20737031268311,61.13941461261538,51.99274211386874,399.9999999999999,394.45131098108163,381.57988911434245,359.06275527847515
114,21,125,0,4.170833333333333,17.613579838710805,155.49013940354635,15.077457068717079,32.13011574288971,45.23237120615124,48.78807030852523,34.96042775148289,99.55689543337846,67.42843786697202,58.714286366373244,50.95480815279723,56.07372060960461,18.574081995563347,46.00712692253808,10.607323876165992,5.713715664816618,25.01650103154438,26.36970744921064,25.445861482034445,55.71323381687165,61.976691840606065,53.56961173366347,399.9999999999999,395.84638250937525,384.82888670610504,362.1544853943772
115,21,126,0,4.2042,11.75600630844435,156.9971195486898,16.62550356074546,30.93209882353521,47.0522763779499,49.043609776124335,34.58313782808287,92.93939030497947,62.07863225069137,56.59005961621358,48.116777502104924,56.32135088109385,17.716862602227025,40.575019003078296,4.693445906757802,3.0095378333408007,26.538787414298135,26.135132143164295,25.222793269904628,56.66171527891214,59.68916702792774,51.81062431279118,399.9999999999999,394.60826877544065,383.19892300793583,362.11699599997604
116,21,127,0,4.237566666666667,5.9114348791046645,159.90319977602775,16.720062758230352,27.48364900571371,48.91209184587125,49.78364534367559,34.77983284833164,83.11660492614236,55.67187997984163,53.53033486138861,43.9165584433041,52.57210632743829,13.559158691673815,34.79314310597363,0.764783336955702,0.8547578471858515,26.689729395149676,27.920309778518217,26.951864539421763,56.477000071424015,63.85490991029087,51.76888517759655,400.0,397.2994419126899,386.12750804799583,365.5322008513227
117,21,128,0,4.270933333333334,5.188901135470756,161.6157375176632,17.131233914438642,27.061997410175685,49.36278858542039,50.94644832951248,33.18463537907122,80.01682616487216,52.96747321085316,51.501752587724354,42.26429339079766,52.48923607816357,14.242205068925273,32.46576402884875,0.10323691036421678,0.7226583725487217,26.71150346447713,27.943087782437292,27.01216202483232,60.523760841282524,62.53463631272223,55.35368361980875,400.00000000000006,396.8915822495868,385.63346309500355,364.2482937783015
118,21,129,0,4.3043000000000005,8.184358432725233,160.3883691661021,18.30078180779737,28.586735036637663,47.24296401445755,50.425213171428545,34.52984605532919,88.60300407076342,60.03102776894889,56.33383641702915,46.040517826909536,53.71994640727905,15.539125437273356,38.721625799609,3.136668011700067,1.0996364868602768,28.256786399508286,29.645007086756173,28.72574986577149,60.786462847431096,63.49048699544841,53.618479922899866,399.99999999999983,395.5679168279852,383.53129678018064,364.08530371283035
119,21,130,0,4.337666666666667,16.666666666666632,157.4112828415165,19.882131306757465,34.93736764725784,46.799262175497354,50.00000000000012,36.28737389607445,107.73999249538669,72.81357180715855,64.43209356475256,52.04477132600334,56.080786135428525,17.83774402379902,53.63935753419128,14.78370603184544,1.0900843570099141,28.212411647007006,27.83114531550311,26.932290787447926,62.81048047167991,64.68434449034163,53.907169337509494,400.0000000000002,396.54288631087627,386.4871654529153,363.93578023705237
120,21,131,0,4.371033333333334,24.900231495415706,159.6219762184302,19.80278688642054,36.398246192759856,46.29879807641194,49.80046299083187,37.47428805812427,118.32509463424773,81.97285866071263,69.31414000820507,56.42841163513515,58.75310963619643,20.52272454061881,60.569279949525594,18.597584008490003,3.7594725485912477,29.704180329630926,27.72007844554334,27.63303131730231,61.586335324989875,64.03816524798418,52.99664641207544,399.99999999999994,394.9603866800466,386.52812453608334,363.2245893979331
121,21,132,0,4.404400000000001,26.479482371916692,159.42759568944896,19.978076640824174,36.72043516911162,48.3261016615604,53.46576064266703,37.80600191172652,120.7873490249565,84.15311144286304,70.63474673011149,59.33896145662834,63.35383721277856,23.90429958633672,59.226184047747665,18.599250272592258,7.077910181347875,28.348556470644432,27.965450259653974,28.04999713678842,61.017089300772,61.684731561345245,53.465760642666574,400.00000000000006,396.85260983423484,386.3750641634564,365.26775007275927
122,21,133,0,4.437766666666668,26.18326970400902,157.9866736701235,19.754591932991758,32.839675667650795,46.18611856165981,51.272534316281366,39.00543376104508,117.63433953500915,84.82795026994722,71.42122430484483,58.852684832204545,63.93995080922559,22.792946583319917,55.910050590594324,19.301685618697547,5.93514363985787,28.03143540968289,27.79527757559341,27.730587090428685,61.645693603902544,62.94244767647655,52.867666035709135,399.99999999999983,395.5853951778918,385.2145426933397,364.321820545395
123,21,134,0,4.471133333333334,13.101462475685581,155.84260254201973,19.769421302867087,34.47222818685067,46.22078954031479,49.716554522874084,39.13605951255044,106.42437836675143,71.9617797661773,65.28452365918315,55.05014363572593,58.96021330261772,18.031786394060987,49.275970988106906,12.084843226276803,0.891132156640424,28.05247803740365,27.673373070244715,26.688498772853563,61.12439139731589,63.597737791256634,52.90735271598811,399.9999999999999,393.9498544374891,384.2962046726179,365.75956458667343
124,21,135,0,4.504500000000001,8.71627267280823,158.71904301948783,19.490178206822904,29.536152773510945,47.63111575707019,49.518756847213695,38.98035641364568,96.36957167366467,66.85306489177766,62.497605605886974,55.05301801011467,60.13317215895381,18.77134972727083,38.70464960560582,4.827947914499532,1.9545983161314098,27.94087104843275,27.563274353157453,26.724853474478152,59.09732512505934,61.637402199478856,54.28852849870466,400.00000000000006,393.6290622172092,383.60478947603923,365.0837950719099
125,21,136,0,4.537866666666668,5.125762463818991,156.72600242813792,19.51832195949953,31.17879585412713,47.451384380247,49.59026176783467,39.20454423758146,94.90276876049423,63.732832615282284,61.131061843996804,56.72912025039045,58.903029930839466,18.658639726177853,37.024117358519334,3.3781293582081844,3.414210846680362,26.386477259017216,27.603075629888963,26.763444074242102,57.865687137264274,61.72640640378785,50.89755658555586,399.99999999999983,395.1327905463322,383.10059756043324,364.84844523861904
126,21,137,0,4.571233333333335,8.772762019927555,157.51427887999992,19.616492226986747,31.33561418796093,46.335260628474984,48.24331541436099,39.23298445397302,98.60866561052393,67.28633334613117,62.925849416083224,56.678182342325385,59.72715276612007,19.11051104914145,40.344412214854174,4.519009735267218,2.041721265933802,26.51919192249753,27.741909353590785,26.90988628500895,58.39322820570999,62.72167728948983,54.37258048601277,399.9999999999999,394.9255164494642,383.6637550358133,365.86838920837
127,21,138,0,4.604600000000001,14.982095527227541,156.83074871106476,19.568029756275205,33.14436968191603,45.962970915800724,49.423553257167455,39.13605951255056,106.63508310132684,73.57665327384646,66.00275678265723,57.74903320410249,60.19090993967927,19.95400749422447,47.63461757426876,11.493039764679793,2.5004457347696416,28.052478037403667,27.67337307024481,26.856138783714698,58.58702042332254,62.08313914436974,54.23825322919164,399.99999999999983,395.53867182832647,385.50371540590595,363.7831953334536
128,21,139,0,4.637966666666668,19.690768515674023,155.9298263671588,19.49017820682288,33.012504564809234,44.17839616105203,49.22692128918489,38.98035641364567,111.02265857398348,78.11178335662196,68.1566396579791,60.43414735641909,61.98767797146979,22.336518668722874,49.776204764792396,13.683714429080055,4.841234939925357,26.348430213193836,27.56327435315744,26.757758413300223,58.79029519398182,61.03930172390977,52.19735284575147,400.0,395.5478065451318,382.0273802730013,363.51249873840334
129,21,140,0,4.671333333333335,21.420202835423222,156.890957599797,19.812139859797043,32.93534229837868,46.062289543274275,51.137440231166174,40.84377265572672,114.93671973090674,82.0115749267135,71.26392417945226,58.7546157692359,61.44449941875382,19.355467130226657,54.80975295882274,18.590784487387282,3.1891764339601423,26.259545280521138,27.73317080255263,26.129655719146513,58.46673524487289,61.939294070003086,50.903519328912495,399.9999999999998,395.0798045743361,383.3146427796811,364.9837006095593
130,21,141,0,4.704700000000002,23.107494072905947,159.02254409711745,19.87781801213962,33.044524468716325,46.21498814581213,49.45219684774954,39.35064445158704,115.31774022852389,82.28344705915393,70.67817580085307,61.15461402393578,62.74187432008864,22.699625939868156,53.3265348360909,17.108140805693324,4.9962625231175934,26.598723166468563,26.194156271834053,26.207831935342483,54.67029497317486,59.801835362441864,54.31490090085626,399.99999999999994,393.83535985542386,383.3407211083502,364.60447862051177
131,21,142,0,4.738066666666668,21.348452833811553,159.0929534970527,21.535997749700048,33.395550810862375,48.183782703325654,51.41388278184592,39.43264803437843,115.55805313800576,82.27589908542788,71.51091791698957,60.97662985782529,61.08448946252656,21.69775714575337,54.48707697496093,18.174343392175956,2.5706539120487832,28.2650707996376,27.88309282525137,27.07276078003673,56.48247966193594,61.44402147819767,54.42808879231045,400.0,396.9015904125053,386.9869309643235,368.1748069332203
132,21,143,0,4.771433333333335,21.248288170738114,158.34650633254742,19.82578283116348,33.23886244936118,44.48131556779637,49.56445707790853,39.24763425679,113.39969318363372,80.26845156953463,69.57479783514407,60.75507267786327,61.32849134133971,21.885478989351554,52.331279454887635,16.12398670394532,4.136806072222953,26.52909432829036,27.75226832850556,26.950677183393736,56.49539117775237,60.563933123371044,54.172718006518785,399.99999999999983,396.95078135100243,386.7641680702156,366.8204256389594
133,21,144,0,4.804800000000002,18.20771864986291,157.1696348708858,19.812139859797224,32.93534229837863,44.71839423755333,49.53034964949278,40.84377265572661,111.70698784678555,78.77863584156357,69.63785763359544,60.75349500493553,64.0614062176412,21.68218305814355,49.266185848245186,13.186454806932602,4.058065941269888,28.11309495490027,27.73317080255261,26.79769602642574,56.27064265110516,61.313851549164326,54.355453417951246,399.99999999999994,395.0798045743361,384.9061767305036,365.8292728705657
134,21,145,0,4.838166666666669,18.207718649862958,158.2375413110777,21.420202835423307,33.21598936270884,46.06228954327459,50.90351932891235,39.220626276579544,111.93231136987941,78.77863584156361,69.65168672368281,60.6602871648073,61.36584970564468,21.88148443955697,50.91809669709221,14.473077760765136,4.124827161818075,28.113094954900287,26.259545280521227,26.128428194981495,56.535460002989225,59.05920293752263,52.74584710369264,399.9999999999998,395.0798045743363,384.9061767305033,366.5680007735108
135,21,146,0,4.871533333333336,18.13496758516858,156.26408146963428,19.531957843634867,34.675272057996246,45.87824228996501,50.70012837702629,39.231933304321565,111.48507275737313,76.85461473261996,67.76792563116032,58.62258495544938,61.0414120583863,20.61438604019861,51.651470889119764,13.765572220646618,3.1933953325291213,26.404911371713435,26.003292356774203,26.022774731035042,56.230935685129566,59.16614160779466,53.919134970301506,400.0000000000002,395.0926507629892,384.61525812419075,364.3675593187728
136,21,147,0,4.904900000000002,16.58436981962391,156.66778031372547,19.7839571036152,36.10819370852774,44.38747496630436,49.21868891836687,39.16483496097817,111.54808472856709,75.44030533754153,67.15185690787257,58.331938360995764,61.87429096799826,21.011365590266337,51.43603874279529,13.306299132902723,3.1287784447638387,26.473126870110946,26.070470296632532,26.100125934335722,57.04626216099223,58.233040191764644,51.064697255395075,400.0,395.16081045025516,386.29411139165427,366.4256658519451
137,21,148,0,4.938266666666669,16.57218484095801,158.43063379536665,19.769421302866856,32.86432774341671,44.354862305022934,47.57223000295961,40.7557060945282,109.85534669514769,76.99655098759423,68.68505743077321,59.26972130187005,62.317981466208494,20.15639487365786,49.03369974410646,13.031763128606485,2.5702785409363287,26.20292495137124,26.20292495137129,26.189785553960803,57.5020911474017,59.82886961603862,52.63211751727379,400.0000000000002,394.87047526735273,384.42330890626414,365.7776138632312
138,21,149,0,4.971633333333336,13.884317266465366,155.23138614495252,19.568029756275212,34.472228186850614,45.962970915800895,49.182526635388896,42.5312732932137,110.08347433437498,75.61223045542654,68.81131672752099,59.26972130187005,62.82301865319948,18.551098100722356,49.03369974410634,11.426466355670868,2.8227971344318803,26.45367635799397,26.051315627035425,25.134618573997557,55.64427578097059,58.22357284310294,52.63211751727379,400.00000000000006,393.27895842196676,381.2503069254153,360.6592521197304
139,21,150,0,5.005000000000003,13.400393617710517,156.83074871106476,19.76942130286687,32.86432774341657,45.96297091580072,49.42355325716723,42.5312732932137,108.47650645838306,75.61223045542656,68.93120674229726,59.61423056301169,62.05610729858847,18.350117977867853,47.63461757426853,11.754347607232148,1.1578640609653803,26.453676357993917,27.816142924437333,26.054194025536333,55.37924139060908,58.875360111656335,51.02717866087455,400.00000000000006,393.6111948751251,382.83664628299766,364.1967297369834
140,21,151,0,5.038366666666669,13.419898972963221,156.78054737780738,17.975240320014112,29.697295938507523,47.64147522611123,47.64147522611101,40.97693010812138,101.95643007914045,72.26836766450215,65.54808563003894,58.59196225705534,58.8595054637085,17.791623242439186,43.20822787449504,10.835499869455361,2.274117256552472,26.492181820581553,26.24106542503351,26.219234252015667,54.846357363910215,57.78933263709564,52.98436364116313,399.99999999999983,395.12028597461057,383.04488947172337,363.98542857772065
141,21,152,0,5.071733333333336,10.292592666131574,155.45733796543811,17.975240320014198,33.192613989040105,44.68692417764498,47.890981312488506,40.976930108121365,102.20290568170425,69.0448105985582,63.94061910074686,57.04532586158348,59.04487123522904,17.112701101356834,44.155879787074355,8.325461342735025,1.0804718274632705,24.894460491780055,23.01493686618612,23.810729774510378,55.027847345573264,57.62815298843077,52.984363641162965,399.99999999999994,393.85140771087,383.74948653482045,361.9460127704532
142,21,153,0,5.105100000000003,8.751088944154109,152.65831203608235,19.76942130286689,32.86432774341665,43.025121752880295,46.53396139156781,39.30438742705695,100.45038782372379,67.5905764793962,63.31007777556215,55.433776329941225,60.34472407968099,18.628503986945702,42.55707453440289,5.300066560511482,2.74172219543766,24.858277261436996,26.202924951371326,25.373230040322426,56.03310875112987,59.78117269856341,52.63211751727398,400.0000000000002,394.8704752673526,384.4233089062645,364.1967297369835
143,21,154,0,5.13846666666667,8.722630510368573,147.07667640211955,19.504394763798132,31.15654838877132,44.21062083747288,46.07048010030911,41.0088406852448,100.12372439602524,68.96795985643648,64.6975233366777,60.159006722255185,64.00795725722719,21.079088585554928,38.03430159792572,2.5374228936642567,5.566105281838759,22.906749949397856,24.5112928313595,24.63057924311687,53.7951681328168,58.4914286216233,52.73529865464376,400.0000000000002,394.5351044912276,380.90350553388015,361.0629911269381
144,21,155,0,5.171833333333336,8.138895274878251,149.40138897249457,21.223642260671742,34.53040824140187,43.09773684225291,48.20535135899268,39.90549405460762,102.79524615198987,68.32795267313689,64.63553712339831,60.616816890523296,64.48769122854355,22.66970387775666,40.22304375780618,1.0214807280885907,3.826072551700463,26.498323206037725,27.72007844554339,26.07911981668417,55.84990682610976,58.27816364463621,52.99664641207546,400.00000000000006,393.0235364542499,381.89375716989525,362.85236191709106
145,21,156,0,5.205200000000003,10.344433604245944,144.98822497060507,19.897915327812946,33.077933882119694,40.097191691621326,41.69974498879612,41.69974498879613,104.89531114587338,71.8547322247848,66.6987970875407,63.63000064173775,66.60827211863796,23.43238820047486,39.763092590529595,3.3358451040659247,5.571811835963899,26.373234402557603,26.220639672933167,25.396780025664384,54.41455880743848,57.619142706595596,56.208457790159194,400.0000000000001,394.91153922213755,380.897862242602,359.8205322506154
146,21,157,0,5.23856666666667,8.77953604518839,146.12060131188628,21.443497365125324,34.852237695004845,39.96775948722265,41.56513980351886,39.96775948722287,104.87399460902158,70.02784350093876,65.66962153220459,63.09558190399946,66.58182504956847,24.900446508635355,39.96535212212973,1.6708678288348437,5.373872206252372,26.288102608488543,26.288102608488543,26.12876015577882,56.37598371668554,61.32536517723406,56.027019033710175,400.0,394.55738746506296,380.89846684118123,361.8316445213514
147,21,158,0,5.271933333333337,5.882646532805333,140.1616684944328,21.459723866918996,36.226346557076305,38.40218718468597,41.94708707405791,39.99800347727588,103.0335473959628,66.89365631445149,64.09370748225535,62.49665082778779,69.5686876188388,26.074761603646493,36.95274185858398,3.095140783869738,6.397224120149303,26.559751955124522,27.92768182476449,26.160237875294115,55.16368647065451,58.74469237757353,50.997438121657105,399.99999999999994,394.8559528551403,382.427714271944,359.7786192134138
148,21,159,0,5.305300000000004,2.303114477163714,144.3632131214355,23.031144771637145,36.41543729972595,39.6242797195944,44.718394237553404,39.62427971959418,100.94369728984276,64.52831929868508,63.58175597653383,60.449184836670725,65.90534174311813,23.554957451969585,37.73916766345906,3.941556513142018,3.797736891225668,24.911992022031622,26.107608352688317,25.316747820443595,52.37730855662164,56.386280517536875,54.35545341795116,399.99999999999983,394.7675269633786,380.7111625086911,363.1807793340054
149,21,160,0,5.33866666666667,5.146296333065651,147.16068101043817,21.218723361959317,36.13418383225116,39.59639458467676,44.68692417764459,43.087748292706415,105.41745563077328,69.2936905231841,66.7529131935022,63.9260072498455,67.14127407394062,22.47074117513648,39.88375925619073,0.36126593529161255,4.606140674967605,26.24106542503355,26.089235421080705,25.171204041441,52.510003694631564,56.447802389309686,52.48213085006709,400.00000000000017,393.2053299863032,380.77376666575736,361.6824971236587
150,21,161,0,5.372033333333337,8.763826860932706,151.96830954648905,21.218723361959075,36.13418383225104,39.89624535540093,43.08774829270639,41.490767486300165,107.28515946244335,71.17906437850993,66.87043676952953,62.36412574775636,65.9047986934354,22.692494788215868,43.13183406554481,3.2187935869809507,3.0578539076319657,26.241065425033486,26.08923542108065,25.187059818126045,54.79996081835111,55.60465921509626,52.708727815386595,400.0000000000001,394.80177166795323,382.3667006655124,361.6824971236587
151,21,162,0,5.405400000000004,10.326492773685699,149.25265502744261,21.288610224041715,34.90446211563671,41.33822878891674,43.22966387692962,39.726810902383434,106.02899630785073,71.13297192643083,66.03659058801873,62.80409317581541,65.09115262623209,24.22122016386288,42.07649138503018,3.8717935577922162,6.401965626954166,26.327494079998974,26.327494079998974,25.504314540573034,52.24220051700087,57.17648626041978,52.65498815999794,399.9999999999999,395.1486129452368,383.062777045102,364.34011941032065
152,21,163,0,5.438766666666671,9.909191271424431,150.51853757678643,18.21345578968896,34.825346759387706,41.244530490788,46.33526062847503,41.53306939506579,104.4760402781631,69.6506935187754,64.6789882326724,61.92344432656216,63.12618987515759,21.01214424822183,41.925555652902176,3.913410889459442,6.570221952028305,26.519191922497527,26.11583469902636,25.30702294227308,51.60137431996026,55.81098374004404,51.15355332312412,399.99999999999983,392.9921875971036,384.1407382939889,365.4801189751148
153,21,164,0,5.472133333333337,13.75373093324776,142.39714007542463,16.416318275087264,32.55522849342795,39.46356631939235,42.9535527393321,39.463566319392235,101.9749905430284,69.49955884209105,62.59697070461618,59.18063409976605,61.17125542857639,20.74012222314525,41.72234704033531,3.9274420811664186,6.240866868702483,24.359974818287952,24.199885626363926,24.075757963313947,52.401761466520156,55.62979605378007,50.54725213457335,399.99999999999994,393.39267170776424,379.94591122569267,361.53190767738266
154,21,165,0,5.505500000000004,10.858594706456318,142.2250243548286,16.267771122961367,33.01520756110191,39.68300965245258,42.85745478478819,40.04451865595996,99.73106769714009,66.74086442659994,61.34578928350027,59.45367387072167,65.04931376443665,22.328755345112654,37.28633121485086,0.7353244732124722,7.998895489092547,24.76140567082635,25.94979481946901,25.14451003521924,51.45477838162907,54.234663585237456,50.8283280362208,399.9999999999999,393.1084572200827,379.2744077562855,361.97125408730534
155,21,166,0,5.538866666666671,13.327019737794979,141.67738114850874,18.06897808173853,31.379734132999506,38.039383252704084,43.123954723087586,38.0393832527042,100.7983412201755,69.41874690049355,62.726991586488,59.862537781074366,62.67243056162306,23.25663684871597,39.47035473777203,3.250927731540969,7.261163059120122,26.30882920441149,26.059450787577227,25.088977933766387,52.17852677925026,54.84292349349215,52.11890157515434,400.0,393.0374479227811,379.16277016820686,360.63073009771267
156,21,167,0,5.572233333333338,11.821569506760273,136.32331958288077,19.75459193299177,33.11950754206063,36.63499161205417,41.399384427575534,37.02873512268228,101.6281432429581,68.52817482533175,62.501373894669314,61.62934576182238,67.44889102144327,27.669949666085017,36.950497774207065,1.3554841443215082,9.958290180282688,26.433833017854617,26.03177410433478,26.01174072953154,52.610857921602644,56.758639403226766,52.867666035709235,399.99999999999983,392.98395337102414,378.68383941055436,359.6563217057553
157,21,168,0,5.605600000000004,11.756553497005312,140.30941124958522,19.445812358309222,32.937357597909646,37.69991237158405,41.17169699738714,37.28255731020356,101.06921100061224,68.15128506628709,62.161335994496994,59.477527767957326,64.29392434959243,24.935921889346446,39.050765154850865,1.2515401999182814,9.212600966185505,26.03926752921176,27.500531568483314,26.66187263436018,52.23034191716715,54.96836849171757,49.11486514944479,400.0000000000001,391.8322454798567,378.0111666305258,359.1625913431932
158,21,169,0,5.638966666666671,10.254050950032031,140.86729917969703,19.724060821181034,36.253544806999756,34.659602322024206,40.108940169911264,38.161053683946385,104.2943348108674,68.0563146006434,62.91315215240172,62.5862362347508,68.19829282109379,27.27023613072504,38.839427216487024,1.0806387277909835,9.217212678217152,24.801240517002984,25.991541483559487,25.181606656843257,52.68794872809406,56.138727858855134,52.51135433629053,400.00000000000006,389.8764933855735,377.2111216133191,359.4626263919833
159,21,170,0,5.672333333333338,8.779536045188447,138.12563711762908,19.83368561657502,34.85223769500488,35.193748453796175,39.96775948722271,39.967759487222835,103.27784019187307,68.43456630200441,64.07623796353403,64.80659366704754,68.76230903017688,26.837169826001286,36.43613050075078,3.6290966634214783,8.77334118382123,26.28810260848859,26.13600044882732,25.312949227364243,51.21562666253442,55.09876009239525,53.07933826176164,400.0000000000001,392.9609732462956,378.60624862283214,359.14782308753166
160,21,171,0,5.705700000000005,4.5996765966085595,139.05941414070818,22.99838298304281,37.96475094149295,36.689449470922014,39.867549305209295,37.96475094149295,102.69750171987707,64.74361387187226,62.83618790212461,64.96086475924676,66.26279440786641,27.647922676934854,37.07787145131124,4.104694864397857,6.247454077750831,23.678284503417824,26.070470296632664,25.238448709177135,52.1675977259365,57.48381045779979,53.26993477012374,400.00000000000017,393.2420868154566,378.0034544422153,358.97006021704874
161,21,172,0,5.739066666666671,5.882646532805318,138.2301581227755,21.45972386691902,37.84358015233514,36.482625068932236,39.99800347727584,39.69738791650664,104.34285889847867,66.55454807472339,63.838515543390145,64.15764070029934,69.12880159525025,26.945849516484145,37.69722099995852,3.8609649265488315,6.845459351727413,24.957955528021333,24.527613688004077,24.541174038365853,53.55908971449952,54.55691766990566,51.516773697981534,399.9999999999998,392.92989718619236,380.8338734376035,361.36956328449367
162,21,173,0,5.772433333333338,5.878198443206956,140.0556870018773,23.05619120514097,36.198954458229316,38.06017829201331,39.967759487222615,38.060178292013426,102.65832243907433,66.50422368563001,63.79455973502945,64.75102696726594,70.16499243275643,29.39783247761318,35.199798801463885,4.322149096616499,8.102901646684018,23.34261450031284,22.882616406230596,22.905585556912513,53.19221069844377,55.26756412688178,51.47781993389738,400.00000000000017,392.9609732462957,380.89846684118083,362.2097552147965
163,21,174,0,5.805800000000005,8.292184909812017,144.15785654381034,22.998382983042767,36.10819370852765,41.17288685008942,43.056756699972844,39.567914207230366,106.94866305347449,70.84845892629859,66.69845427770429,66.52650439557715,69.35010245997933,28.371730550963775,38.98737327386016,0.1357499069424648,9.031893808568384,23.284088136119408,24.609344459183482,23.928183597048815,52.96961368892852,55.521711939445765,51.06469725539478,399.9999999999999,393.5681234152421,381.53062764961714,362.5073381987378
164,21,175,0,5.839166666666672,15.007381363998546,143.99175636289698,23.020272160934578,36.14256041491847,41.21207398099538,44.697283446205155,37.75605358982602,111.87947003443439,75.73984401347089,68.2150761900242,67.14401218862395,67.7200466095452,29.719775904401672,44.39065256223773,5.328318393520817,10.458624954850052,23.306249239690757,24.47088497195714,24.463461813495996,52.59914306036438,57.71144854603972,51.39762307599485,400.00000000000006,393.3705831225085,381.7792593002259,364.39716568763595
165,21,176,0,5.8725333333333385,21.42695220919868,144.40870107933526,19.818382542848866,36.42691157937778,41.244530490787966,44.73248472771687,39.23298445397312,116.80492404137682,80.42019354782948,69.5839122988857,66.90864732118098,69.08849285857013,28.94150294062399,48.72225004850122,9.629152394499442,11.268540360635143,24.919841637039454,24.652166402630986,24.626849996783676,54.53216893947638,55.865297615234795,51.43810120037816,400.00000000000017,392.99218759710334,382.9159797356396,363.897371609345
166,21,177,0,5.905900000000005,25.039322012822478,148.01701288779856,21.52968561895,36.60156361559486,43.05937123790022,47.918702224793414,37.79011740399158,120.84060412071837,84.26312736460784,71.68049753324556,69.01240007322713,69.29890718302772,31.51578207806938,51.64290654156389,12.319805721427201,12.104925389076698,25.039322012822417,24.770363385924473,24.084503917615564,52.788934980766385,55.90469979984823,51.68472570748768,400.00000000000006,393.2752424242317,381.19434660214813,363.2859612817588
167,21,178,0,5.939266666666672,24.652166402631007,146.00785906226048,21.426952209198834,38.03081220616859,42.85390441839744,47.93980855876317,37.78578831571334,121.87510499461719,83.86104818223173,71.46186673143893,67.46565864131583,68.70971894260833,30.354176344126245,53.71386977127304,14.718396873924576,11.46951997198812,23.32460404287382,24.919841637039568,23.968298466628255,52.22368243195524,54.48805118178973,49.83968327407891,400.0000000000001,391.7409077385461,379.37539784007595,358.76347230389194
168,21,179,0,5.972633333333339,26.352313834736538,145.8928450000965,21.495875175778572,36.54408413779289,44.39767838698126,47.84345019431309,37.730771408905866,122.03754501448485,85.54750766899106,72.25286637810257,68.29797263951173,68.0474363845783,30.574370825260303,53.784765300157915,14.405834658668141,12.965251192801247,24.73146374853907,24.73146374853906,24.85230171705018,54.55426951173877,54.903230723967454,50.3460248899774,399.99999999999994,393.001000411941,380.9639707486092,361.89346545893903
169,21,180,0,6.006000000000006,26.267819501247967,144.40870107933526,23.038401743279046,36.171024436568565,44.46471221030875,49.304332805262014,36.17102443656867,121.64625182136153,85.47526483719273,72.27414486470616,66.9667953796536,69.00460021606455,31.848625365505995,53.53992573530206,14.75823547080688,11.280381883332211,24.919841637039497,24.65216640263101,24.77064990037229,50.65529977798258,52.77461680784984,49.83968327407888,400.0000000000001,391.7409077385464,380.9635016424523,361.93028509030563
170,21,181,0,6.039366666666672,26.28810260848861,147.42446694435296,21.44349736512522,36.19895445822937,46.11238241028179,52.803208357993434,37.81496520253286,121.74018287532651,85.54126589841636,72.33879963130516,68.73612765755672,69.02148781389326,31.1042570406795,52.75595890271222,14.1609977581993,12.341826761553989,24.939083882111166,24.671201958088258,23.845408063869513,50.6870977692725,53.50502931309558,49.878167764222795,399.9999999999999,392.96097324629545,378.07935745235807,360.62492250853813
171,21,182,0,6.072733333333339,26.53966913088068,147.72164860321985,21.44349736512546,36.1989544582293,46.11238241028203,51.193052338553834,37.638834924138635,121.74018287532641,85.54126589841631,72.21201320553132,66.85882040405238,69.40753248388478,30.62941664953439,53.52295367647912,14.816632548602911,13.08458525491369,24.939083882111277,26.28810260848855,25.594812858034516,51.11783100959502,53.27167220381955,48.28056724411965,399.99999999999983,393.29564265493116,379.6683384809423,360.6249225085383
172,21,183,0,6.106100000000006,26.20292495137135,146.94678809156144,22.981485457900266,36.08166405592204,44.35486230502302,49.42355325716745,37.516879078819436,122.75211470678907,86.67707243291203,73.4363277742126,68.02191634493204,68.82238580872922,31.042925329172476,54.15760535118454,15.321345298637084,11.975562820742653,26.45367635799395,24.591263317694445,24.711121930146817,50.861290087345026,53.2087342452225,51.31102356366215,400.0000000000002,392.0213018668304,378.43815233799194,361.41993686066786
173,21,184,0,6.139466666666673,26.267819501247857,147.6076710337841,23.03840174327917,36.42691157937786,44.46471221030889,47.93980855876306,37.609793934130806,123.260832013155,86.89173814716325,73.62662563787921,68.3554765461788,71.0401057790076,32.22001031094351,53.47406832367119,14.497889760675207,11.45649916800187,23.038401743279113,24.65216640263103,23.831658837603072,53.050414208855955,54.727192600124454,49.83968327407895,400.00000000000006,391.74090773854624,380.1161750287586,362.70669320778694
174,21,185,0,6.172833333333339,26.30799506991254,149.1421135905336,22.899931903317654,34.87861072025559,46.147276095913135,48.01313055910748,36.04217481720812,120.00510198894611,85.23203261932015,71.85444009922378,66.85214193219679,67.65608270904033,31.326892271006614,52.61345750676628,13.577666453359143,12.416418664584853,24.689870895156226,24.689870895156275,23.86810839695744,51.24675818613218,53.47992701069779,48.31710161617883,400.00000000000006,392.92989718619236,379.2403533373537,360.1446782414405
175,21,186,0,6.206200000000006,23.249527748763917,151.92025108430656,21.17198930615537,34.446369998369974,46.1861185616599,49.38647983247959,37.66416494532099,116.42895706613082,81.98268222359415,70.30613005397231,65.89469499152301,66.7787680101111,28.714513043128022,50.01263576365716,11.595644592288068,10.050749317381587,24.57281700437808,24.57281700437808,23.89229657810273,50.39216205951544,53.6873433106162,49.67926131309102,400.0000000000002,393.3159406081243,379.37950241893174,361.9692714316753
176,21,187,0,6.239566666666673,21.374434115418524,153.0835085892297,23.183828891362246,35.04517758431475,46.3676577827245,49.85870926473967,37.847201247918605,117.32483498415013,82.37602968131874,71.541916612573,65.65958124665042,66.33083873585474,28.272305565042757,51.227545228756185,13.557634814851895,9.203293470407516,23.183828891362197,23.18382889136225,23.312949246776157,53.37380272713324,53.135329671758086,50.154290297633864,400.0000000000001,395.1363815326928,383.0070978184431,363.83472271832807
177,21,188,0,6.27293333333334,19.783957103615297,153.46143888006705,21.203461435801064,34.49757447456411,45.996765966085256,49.45989275903773,37.544463997499115,112.96163321461148,78.48145540811042,68.4195708441705,63.64631836099579,63.76144318897582,26.288311681454843,49.09188337751209,12.039400279918368,9.019587484440535,22.998382983042738,22.998382983042745,22.98954257202513,51.16855815915301,53.19652628280244,49.459892759037956,399.99999999999994,391.97571184664747,378.3566029663873,360.5542106854047
178,21,189,0,6.306300000000007,18.241312534465983,152.3559151877259,19.84869395825334,36.226346557076354,46.147276095913234,49.6217348956334,39.29298971861926,113.53074045700552,77.30529654766241,68.11481098263482,63.85458116900759,64.24550945221847,24.903908587272554,49.39023469020651,10.332945303959491,7.578677854064722,23.360278082405387,24.689870895156314,23.868837110134848,52.66870142895192,54.703305448390154,51.51677369798127,400.0000000000001,393.2583306142977,379.59465743038174,362.10544602531706
179,21,190,0,6.339666666666673,18.241312534465983,155.5717694507529,21.459723866919077,34.61045707193498,47.76298809027074,49.6217348956334,37.66731659445643,111.91309118851913,77.30529654766241,68.11481098263482,62.52187111260707,62.36194590583898,24.903908587272667,49.3902346902064,12.216508850338869,7.578677854064836,24.95795552802123,23.07363804795661,23.06476870943976,52.66870142895192,53.095168647000094,49.91591105604258,399.9999999999999,391.66098812324344,379.2403533373537,361.7340123501602
180,21,191,0,6.37303333333334,19.7545919329918,153.51732008984388,19.754591932991914,34.71325233879299,46.18611856165969,50.9889023302499,39.27490455601353,113.45825317815637,78.76770081801025,68.8710860394832,62.05234476232431,64.17533017315475,23.874590170949432,50.33994219918338,13.007783491783243,6.566861652145008,21.66442697549757,19.553351453529917,20.420241027903216,51.07758967243802,52.804764243961074,51.27253431628144,400.0,391.3939054062917,379.3795024189317,361.9692714316754
181,21,192,0,6.406400000000007,13.929450915385273,157.06157694919665,19.631639407950853,38.060178292013305,49.342403916176835,53.07933826176143,39.6673712331499,110.96952252150541,72.91007837658775,66.05244291975134,62.32726305811559,59.80674335074025,21.405884279549127,49.90073023609159,9.581681534655218,6.3198325015812316,9.506311166323323,10.936511756488189,10.50834319177875,49.71539790466716,54.598904837707096,51.193052338554075,400.0,394.55738746506324,382.1385463390248,362.68641957225236
182,21,193,0,6.4397666666666735,17.033909156697458,159.06591880665175,18.241312534466026,34.61045707193484,48.013130559107594,51.231790616245206,39.461992604868854,109.16781677039319,74.57105679526686,66.10714626856736,60.525849889008555,59.87806275664593,20.799599880424694,48.95486958992319,12.021614825946244,5.31842623888997,7.296525013786338,10.94478752067957,9.702724656474345,46.894155451465394,53.935319933667415,49.9159110560424,400.00000000000017,395.1895215306966,382.7790681235214,364.9137984850112
183,21,194,0,6.47313333333334,20.10059042656566,160.03102572647722,16.572184840958016,34.73931087041175,49.18252663538915,52.90735271598785,39.3043874270569,110.60996351945144,75.87371445358013,65.8398642653982,60.75123636318972,59.4101900207304,20.841329801644633,50.52805431416789,13.51150116272322,7.375754883526042,8.751088944154098,10.90107570915052,9.67206711376457,49.36152770120674,52.41103034296344,52.90735271598785,399.99999999999983,393.2789584219668,380.9003563275154,361.87266121960226
184,21,195,0,6.506500000000007,13.337147605600553,158.27898077679998,19.676115307924057,37.75780614814067,47.59567028250711,50.786345021834855,39.352230615848214,110.0879162354836,72.330838401948,65.6738045651814,60.634411272736315,62.38607204283767,22.165245898589205,48.57490058626968,8.610086400728505,5.645737405172667,14.91138433603569,15.34368789687774,14.255823805901116,48.8848097994416,52.73846349366437,51.06885025814153,399.99999999999983,391.4227946049546,377.5226331103688,359.4522477567715
185,21,196,0,6.539866666666674,14.94771945423217,157.4005171012116,19.724060821181098,36.253544806999805,46.11473700365579,49.6024810340059,41.04823520196417,111.95244909153828,75.69962396392,68.22575410924242,62.01038611871809,65.81662732328982,22.87774860489094,48.0347640016962,9.542470596403064,5.995949379907756,16.53416034466869,16.53416034466869,15.735448932782788,47.806389529421836,49.26619497964583,51.19329160231687,400.00000000000006,393.3902199481049,377.5698347167836,360.20774857454194
186,21,197,0,6.573233333333341,3.6484446119576295,153.61641620538813,21.46079504104343,31.68060235733837,43.19980279735609,46.72288824751425,46.408444925458745,103.03869037313275,71.3641734899487,69.60763115653128,60.86503513363755,64.75463501200022,16.40474763513123,40.22854689010251,4.2137332015596485,0.756311087459494,18.603490270634207,18.603490270634282,18.394566091423314,51.08701321719809,55.3187538256019,50.263862832277226,400.00000000000017,393.4268574712465,380.716550092248,362.88729382546137
187,21,198,0,6.606600000000007,3.252946458116032,153.48427294977782,23.001804993706227,29.990684487794386,44.661426693414164,46.57510531572389,43.06316326693323,96.67601448853961,66.6854023913789,66.34077007269968,58.71301901748268,65.0200640596056,18.804337995958917,34.74265409955706,0.33242260193526363,1.6261754310885408,20.118362761936954,19.78690082849463,18.984025888896895,49.55792087229298,52.918084470233055,54.55357055635989,399.99999999999994,394.64354422664564,380.35833701248487,360.97813614489684
188,21,199,0,6.639966666666674,3.648444611957589,152.022417122674,23.07478978151041,33.27893509111529,43.199802797355886,45.12876751295062,44.80313751789696,104.64105511687734,71.36417348994867,69.60845649945145,60.49210390502947,64.84431152869274,17.86554364034555,41.97283360516258,3.035799144900807,0.9223814511054798,20.182198379948165,19.8496847169184,19.844633938348693,50.88321752603673,55.19960451082204,51.51934518656649,399.9999999999999,393.06466848426976,380.34225763789595,362.1235207212695
189,21,200,0,6.673333333333341,15.055327593641072,152.14778183575757,21.47849260475672,36.51453288050497,46.44671547458484,51.27659809154128,41.3437400935045,114.36687459064915,77.85391648976163,70.3239071388399,61.796398848291005,66.97301356017613,23.052532932735744,49.97631239610996,9.577185797118318,4.418514290473695,20.198841553745872,20.198841553745872,19.356232653192194,51.461112629761544,54.32305386562166,49.95956765919128,399.9999999999998,394.9819402889802,380.6559054465868,363.1865474640579
190,21,201,0,6.706700000000008,20.296498057631766,154.48640601168256,21.582335911361113,38.30660357113479,46.67127408791706,49.90525309941113,41.8342583846042,121.96677409857764,83.66851676920828,73.53297990056046,66.28324948782915,70.35390557050562,26.486282166264346,53.64800505421158,11.266351237673007,7.898153505547043,21.891997873370872,20.29649805763175,20.11012175357638,51.47758886853683,55.512221446056856,53.423006928954244,399.9999999999998,394.93298878283656,382.49628450052967,362.95983267384224
191,21,202,0,6.740066666666674,26.6897293951497,157.56624874804683,19.7426403772194,35.04929878017083,46.63322967162518,51.48250745288763,41.800156895575626,123.18368924629351,88.13941322761002,74.77782656390048,66.22921823228728,69.68465570527621,26.15874149473632,55.21501128713521,16.39533092652539,9.196502857798578,20.279953224938264,21.564742918926054,20.899097737022657,51.129676358132656,55.16102007661982,51.768885177596296,400.0000000000002,394.61105638809596,380.588075689996,362.2820419889035
192,21,203,0,6.773433333333341,18.678071754570826,155.83343988125068,19.92926220051557,38.24358655488701,48.51322655803181,50.11852575820672,43.09366294769804,119.8557806764188,81.61335885238199,72.30282973119677,67.71515482060875,71.63211702497051,26.604937346977295,50.17825326181139,9.756634166572098,9.631434461409867,21.855984020482026,21.54683147384907,20.7294940404347,49.579083244249205,53.69278784243727,53.661180717186014,399.99999999999983,395.00410767665574,380.6493310364497,362.7513394066119
193,21,204,0,6.806800000000008,15.115784663826002,152.41522956787148,18.330581406778386,31.834051070621776,43.74830491563253,46.94919603679133,43.12948583785201,108.37079414935725,76.55075534932098,68.98726923611832,64.31253025898877,67.0750805303627,22.59082233317349,42.67555264492171,6.465447459225402,5.322633503314933,21.874152457816262,21.564742918925997,21.551491530751093,51.43562655105359,53.85623248916306,50.160188274690476,400.0,393.3693227470742,382.56059535623524,363.05288725601395
194,21,205,0,6.840166666666675,8.800980908811553,153.52865207689084,21.49587517577842,31.73238794109966,46.48430485971133,50.00000000000001,39.76426261351484,101.60306964203271,69.87473529451556,65.55164739466238,62.78876354798058,64.57126925551722,23.930139123680306,37.92280892784356,2.228132134420889,5.525767693363832,21.804296604737143,21.495875175778476,21.479193775817407,50.53403680866569,53.87623501029708,50.00000000000001,400.00000000000006,393.3508524998936,379.0028527506914,361.5057836659485
195,21,206,0,6.8735333333333415,5.89255650988804,152.63007623315974,21.49587517577848,33.33333333333322,46.79926217549754,48.755889409759824,41.666666666666664,101.9311398197688,68.60172433107343,65.85989408719331,62.737303606223804,68.85758094892424,24.133163574350988,36.10606764709701,1.3114880020073088,5.59389780447998,20.215188501566047,21.49587517577848,21.635091189575178,51.067736894485904,53.262471918253084,50.0,400.0,393.00100041194077,380.963970748609,362.7154532136726
196,21,207,0,6.906900000000008,7.31994499448007,151.2680403327849,19.91240319359722,34.99056214756439,45.27135957892842,48.472187165105574,41.7301069789177,103.68773785270868,68.70617508657404,65.15979074009635,64.733619605674,70.51356561627529,25.89433569879975,36.051414402529076,2.9343658318030066,7.12504865362132,21.52860409657671,21.528604096576768,21.668138615779412,50.71436499624326,52.23259966262242,50.07612837470142,399.99999999999994,393.0749121235966,381.5440141068659,362.05620062106067
197,21,208,0,6.940266666666675,7.319944994479958,146.49037062635304,21.528604096576792,36.59972497240007,42.08172650413857,45.27135957892843,42.0817265041388,107.23157290363174,70.66685664517871,67.06814382003597,64.44117415802009,71.78596688651339,26.082055930014008,39.07393990474509,1.9210832562359883,6.906964451490467,21.837495117977628,21.52860409657678,21.516132469843683,51.14549097067493,53.647366839261394,51.68212937662597,399.99999999999966,394.3066235880971,379.9502751417903,361.3006506249209
198,21,209,0,6.973633333333342,8.793864023620444,139.4166754128678,21.478492604756827,36.51453288050497,38.43577385095146,41.63297304932633,40.397683107491744,106.98197315883179,70.50236750353102,66.09828230470168,65.00823258634102,72.55335038997237,28.462409312747354,38.14276853999854,3.1445467183980327,8.940202011080487,21.78666462970883,21.478492604756763,21.469045070261416,51.4611126297616,52.717136996596764,53.16596238516445,400.0,392.34011752628135,377.977449350438,358.14037600432323
199,21,210,0,7.0070000000000086,5.159679851797541,134.1615982410602,19.8496847169184,36.48444611957597,39.99999999999986,41.94918088638059,42.35968321485925,103.70828151073636,67.27399459982766,64.60699979612673,66.59952283370922,72.69798660266918,27.44308696032033,33.99826387497319,7.1506950359979555,9.95366002819253,21.768713142494253,21.768713142494263,21.59984524336511,51.187692956498836,53.59663092103665,51.51934518656627,399.9999999999999,390.4210790523307,377.6660085005079,359.43753434800016
200,21,211,0,7.040366666666675,4.611085043744271,145.53252084218383,21.44278495657481,34.85107981335367,36.78044926969949,40.33052260967113,40.75661878824395,100.82630652417816,66.0609348166676,63.90863138886198,62.72113992724462,68.13682068401476,24.85635536703637,35.23790950875184,2.9597325066068834,5.496646083698579,21.4427849565747,21.44278495657476,21.581757700152025,48.83108828529606,53.36514659328958,51.47610970732144,400.0,392.03037190351574,379.2950300955074,358.27270281064244
201,21,212,0,7.073733333333342,3.663071244340174,141.8417623871841,23.167296727163688,35.02018720706076,37.356143509141596,40.954381543846104,40.954381543846104,101.31554456227435,66.38148134126692,64.99456792436365,62.290023486051496,71.17316944483389,25.98792700707611,34.385064980271636,5.422589098446224,3.181552276017783,23.45510026807742,23.167296727163855,23.296882790585812,49.41981201588044,52.88486895015723,49.82315550128881,400.00000000000006,393.93261524293854,379.90128476038853,361.98113439534484
202,21,213,0,7.107100000000009,4.607145464823044,137.87801700162495,24.649304649156225,36.422682951391074,36.74902510786296,39.93228548079647,37.605427990922735,102.32116393501224,66.00449424707291,63.82929041192335,63.3074270282342,72.59299620008426,30.636979680377635,34.200046920738714,7.261099148917765,7.980910712627178,23.035727324115914,23.03572732411596,23.16443588462033,49.33408504772706,52.699204108068045,51.432129994341686,400.0000000000002,390.81046605324923,377.7437872395651,356.7564145102967
203,21,214,0,7.140466666666676,7.261812748393815,142.67198328892744,22.96386822657192,34.71268028219684,39.508532774895244,43.328139913702685,38.59706419010106,103.20975112523347,68.52704551615453,64.91754058767765,64.70990556702452,68.62788813065299,28.184197151262765,36.44445992941928,3.07841487142241,8.99149915523958,22.96386822657187,21.357632031598605,21.49473844239475,48.026883038026085,52.02611408799703,50.98806205928877,399.99999999999983,390.82115514303973,376.5654294967434,354.9013643423334
204,21,215,0,7.173833333333342,9.468245427092281,146.5375515447222,21.35763203159854,36.30906374196937,42.99213939739902,46.185357438111986,36.63438788618049,103.20975112523357,66.95060547435367,62.387890929595414,63.99792995221958,69.88197228559818,30.335108493119378,36.19224209631477,2.9509907434170373,11.53487567183663,22.963868226571943,21.357632031598598,21.495590627959928,49.47618523005508,52.53481089420461,50.9880620592889,399.99999999999994,391.1751888992983,376.9328531650281,357.6028057110073
205,21,216,0,7.207200000000009,5.867874871136885,154.81372562622403,19.798852753265237,34.791028535238055,44.688403632178485,48.19577461243994,39.897566204444836,99.91305462251036,65.13890053411738,62.3803714603215,62.838852357349424,67.25285471893153,25.158015496715734,34.82207362034217,2.5126551121430794,7.915537839863646,21.712966844705733,21.21942585238682,21.247443139713198,49.29119134125125,51.05319635727989,49.79056935041984,399.99999999999983,392.7870247023025,378.54003189227535,361.5736251915239
206,21,217,0,7.240566666666676,7.27820302244143,157.99736624357485,19.79885275326517,31.59947324871492,46.28960009647029,48.19577461244015,38.684179691619256,97.10333971592235,65.52404131361028,61.91043459038042,62.32311101280584,64.4313492578051,24.765070958809588,33.6376140409551,1.861529514201493,8.087560756879839,21.405837273751334,23.01569882403646,22.342839783704164,49.79927871485319,52.607272632660624,51.38741213476693,399.99999999999994,391.20256615263423,379.74159406083237,363.53877326852734
207,21,218,0,7.273933333333343,5.880690085188099,161.00803067200476,18.23524584794251,33.62413195695436,49.899310047516344,51.49964027536521,39.984700961450606,97.31540969200148,63.69297552984816,60.94445791680232,60.51650880732666,64.32750824539414,22.438047518929125,34.86208587612771,1.9235186289064359,6.500321736561887,13.44965278278174,13.935355310245448,13.784466052584492,48.48888646732638,51.5340822358059,51.83430779290907,400.00000000000006,393.20535081568454,380.55345974392856,364.35828255811566
208,21,219,0,7.3073000000000095,8.156473902861736,161.03614604380087,19.8455575342734,31.674015268722098,46.71317353938369,50.25341187825375,38.77543427911938,97.72803707621075,66.10267324067469,62.29062680887421,61.3518045323724,63.3126944103858,23.576925938944214,35.35151468758136,0.4162266250500579,7.584574056466977,10.317214083506558,10.943058062101377,9.651832960882075,47.33884148902183,54.10021177594541,52.226915739403296,399.9999999999998,391.32378350197877,378.2915968198768,362.84484636877863
209,21,220,0,7.340666666666676,9.597380836973212,159.68136236674886,18.40213771648289,33.93186535726824,48.74309106443116,52.308703617028556,40.71823842872181,102.20726867695367,68.28160252572577,63.66067455154655,63.555932043878784,66.92590837753255,24.527962882511474,36.91490291972514,0.17305283875521127,8.916775217964641,11.982603938853789,14.062893897105933,13.142907701249214,48.764468352382835,54.028917868198505,53.91543716833301,400.00000000000006,392.82767139137337,380.09747978847605,363.78564186513273
210,21,221,0,7.374033333333343,9.502602217696884,151.79688622744777,18.220408009791864,33.23913831687082,46.66701445736548,50.59896207581577,38.737118782321346,99.2100797850071,66.03735464883997,61.45943570502334,62.17386999294217,65.1582157526035,24.93285230116976,35.54084495596544,0.5245213759405942,9.025385054975459,15.460528871651471,17.014388315004094,16.20138008616084,45.470577210838314,50.93283429821821,50.20375455067729,400.0000000000001,390.20610714771624,377.6436153559451,359.96443914693634
211,21,222,0,7.40740000000001,4.595387038852819,150.1960619020097,19.765507018082076,35.072769403725594,45.317599816013306,47.31240530671466,37.50945085182643,96.18804826951155,61.15923248601356,59.09628067954395,58.73757791365904,63.87599503496085,23.88512042336356,34.82555478285417,3.125197847772597,6.4162957247669965,18.524597380211052,18.52459738021111,17.72888420386323,47.42947321913624,49.8238141814183,48.46989789137487,399.99999999999994,391.01316339330964,376.93730465652624,359.97605861176726
212,21,223,0,7.440766666666676,4.6065343970488275,142.1509639493316,21.72897929296408,35.15784792271875,43.45795858592793,45.863365291505566,36.05183418372239,96.87422456265334,61.80314431495273,59.65975704779112,60.70313396477036,70.01326645473955,29.401826455391188,31.435073780786638,6.795326587506338,11.717925375305981,20.145360353356264,20.145360353356267,19.355979472680133,48.583909775241466,49.440013912250095,47.900205722134544,400.00000000000017,390.1608183697863,376.1102045167673,357.0769927898476
213,21,224,0,7.474133333333343,6.882868245266171,137.50432720942257,23.227909975270908,35.020808006153274,39.00292005650815,42.58364322723943,32.84922531260936,96.97275000440169,62.094340092619085,58.884277926371055,62.341661847711634,72.89053441505234,34.909155609447,29.254089903243653,10.576060383235927,13.575782737007103,21.644283053424296,21.64428305342424,21.056963410838478,50.025581247182515,52.0646674393231,50.369973292932094,400.00000000000034,390.1978618488868,376.8296157083681,358.79415033425835
214,21,225,0,7.50750000000001,8.102413562077464,135.8212010482653,24.788618916139015,38.518434352906695,37.41174855469319,40.51206781038725,29.79221218335876,100.44378795124372,62.02449180858241,58.03500700390896,62.2715353579614,73.22495268360956,38.2102268855873,32.56152241351754,9.206302000152164,15.33478425590738,21.619935970771785,21.619935970771774,21.03327698854821,49.96930879138654,50.02362325746401,47.18916888025682,399.99999999999994,390.67415126517545,375.77383366674616,357.304495555126
215,21,226,0,7.540866666666677,10.874991503916142,133.81101467305245,23.211307226867365,38.53424846629339,35.8856411095713,40.52870042914896,29.804443662374403,102.02934312929564,63.577118008737756,58.05883383375226,62.29710153523354,72.10488769058418,37.65085036091489,34.716665029120236,7.484889434346655,14.34943413033534,23.211307226867426,23.211307226867387,22.400331537636305,49.98982417131691,51.610871005857746,50.33397005395955,400.00000000000017,391.7748287291509,376.39970925877725,356.376124594985
216,21,227,0,7.574233333333344,4.59368214597841,128.9201160422743,26.438626215833477,41.75578739846081,34.41431411957836,38.01948477547079,31.366810765000338,103.29402743972302,61.63071327260904,59.50640905864134,64.30487575721963,74.68799861346554,38.34706861660504,33.73837178746214,11.806396877010457,13.297445851144971,21.668355345912822,22.968410729892128,22.243739695952286,49.20461614643921,51.34630467292334,51.996951292525175,400.0000000000001,390.6318312733146,377.2487172653613,358.7339301516175
217,21,228,0,7.60760000000001,5.107011857291778,131.2511983107162,24.704427550262828,38.01208997309734,36.82718623173732,40.856094858335695,34.220790434505965,99.61946309357984,61.81383357462368,60.145980157804615,65.7494169057187,75.61001014393105,36.58607564952979,28.835867680012143,12.971592211891902,13.590153411337042,21.5465066302468,21.5465066302468,21.740606862848324,47.62921235726935,49.19380833233623,50.14243072143778,400.00000000000006,390.6580337644429,376.23117534810655,356.2666991775246
218,21,229,0,7.640966666666677,3.6073531474593623,133.67665132812607,22.814904541097352,35.23407282855928,38.785337719865424,40.331434282834,35.71097421784364,95.95830597968518,60.72794474884972,59.483879803815626,65.35414636606822,72.67523926499939,33.39132614878349,26.873767836320326,13.302961487082257,12.41014527989546,21.5235378970384,23.098330371476315,22.49896842110536,47.85494870520847,49.28345463670723,46.97876377141252,399.9999999999997,387.5748011141533,374.72742776491907,357.4375496501419
219,21,230,0,7.674333333333344,4.888196611023689,142.3464339546425,23.32944146625005,36.76091409966063,40.734971758530136,42.30165501990492,38.73036900738371,100.04562138636021,63.37921778332803,62.63978208908179,66.47745073372062,71.02847425583366,30.024113513939255,31.234107863072495,9.445179770099344,7.530860352067748,23.329441466250106,24.65727915677741,23.90641820395615,46.89179593319898,49.555589463007095,53.745469189431276,399.99999999999994,390.13811542594226,377.13808741407394,360.5687037081181
220,21,231,0,7.707700000000011,5.135892772717566,144.36335910475916,24.844134780763074,36.64163456722578,42.16439723522883,45.30078694424434,36.641634567225786,100.8519873244517,64.24999805954234,62.828054562790385,66.26174882762871,73.55216129032635,33.274882561225695,30.93475016579191,9.216521434323795,10.854614111127376,24.844134780762857,24.844134780763017,24.02685934465569,48.31473345649442,50.9698836743903,48.45191551408204,399.99999999999994,390.6318312733147,375.2366349783545,357.17540348069036
221,21,232,0,7.741066666666677,5.901923631225409,141.89186753727532,23.43682838628659,37.32704250208723,40.49464728148596,44.074857081570975,39.35372338284553,105.67828691307373,68.35891323636275,65.5089227586219,68.37094105542235,74.92954399864527,32.34398173452405,33.95868619357475,6.907850817792678,11.334681020134099,25.039741330107375,25.039741330107432,24.216031199077975,48.69513222575392,50.9720469404827,52.40634144873364,399.99999999999983,392.13556982385194,378.64770318804824,358.88429449090376
222,21,233,0,7.774433333333344,5.878784426970499,140.87397363466343,23.344941470595177,38.37697518012684,40.33588312707961,43.90205628233223,40.335883127079725,106.39437983658956,68.09090386266314,65.82827619958994,68.6186848246208,75.08735936446487,31.518933787279707,34.49959754583517,7.990715608042819,9.956685321132682,23.344941470595234,23.344941470595177,22.35497818916707,49.59317147213818,50.734702273287155,52.631981214275335,400.00000000000006,390.59815497188697,377.1631691458922,357.0121457001886
223,21,234,0,7.807800000000011,5.857992045905492,139.28079120470127,24.853355398779918,36.655233693089606,38.61902680484084,43.74678127691429,40.193221142619926,106.01807883147582,69.40784107114956,67.17341359812701,69.87615353838055,78.46027108948454,33.97730210604357,31.804335110889724,8.979202459313797,10.882793380688327,25.222354348084036,24.853355398779918,24.046304186042562,47.96689953765468,48.002816347492,53.59096152349293,400.0,389.44719011242086,376.0538894993189,355.96456511379046
224,21,235,0,7.841166666666678,3.6395534032437116,143.76005589486417,24.630931428955723,35.548582140798324,40.266029287077934,44.277078136541846,38.68898336971665,101.07217386387399,65.53217788015034,64.35105595835944,67.55827737077516,72.67006724098405,31.42987146032658,30.93576171891823,9.823800040550736,8.799645303813122,24.898376092287293,24.63093142895579,23.69929996065224,49.096540669054036,51.49521886825568,50.53608693193705,400.0,390.59038699845667,374.7326319986701,356.1745135943693
225,21,236,0,7.874533333333344,3.2587977406823505,145.92902104655437,23.32944146625002,35.17388742035556,40.73497175853031,44.324441363825606,40.30910189207347,99.60679352427138,64.45915111229218,64.01662518946182,66.13242890335084,72.25379263968773,28.884337453069975,30.385292224461296,8.422526322596582,6.261513127641479,26.52469188977208,24.65727915677744,23.7214147153324,47.433787534451426,50.11923070977207,53.74546918943145,400.00000000000006,390.1381154259424,375.13348380657993,356.9908436605616
226,21,237,0,7.907900000000011,4.8968579733394,149.7794733203528,21.777411350010734,33.65043776287692,42.376609034613494,43.95064537260506,40.015982952156115,96.6362935781808,63.007084995326835,62.34826418705529,62.90834561166048,70.23869129689388,26.579224086066347,30.002441753253493,7.339306988027033,5.439510795766068,23.370778744850274,24.700969221946803,23.169448373069542,49.36781709040423,51.876981872635724,52.25864996059249,399.99999999999994,390.57708108801194,376.6762973315745,357.4072728729198
227,21,238,0,7.941266666666678,3.6395534032440042,150.46813505915125,24.89837609228729,33.55502440589814,40.691444086969284,44.277078136542045,40.26602928707768,97.93036637298034,64.39027278397688,64.73961920099873,64.95756714051663,69.70701598918026,27.066409738894208,30.562657935329185,6.987955810796507,4.499716834632409,24.898376092287336,24.89837609228727,24.08324731674128,47.249297054677584,50.60932778891373,52.110474377884,399.9999999999999,390.59038699845684,375.60825921938107,357.95521177347297
228,21,239,0,7.974633333333345,4.885967564883525,154.138316747184,23.31880310499098,36.41785203646138,41.872612169142066,47.00584082449794,41.87261216914195,102.7086735287586,66.4563437403998,65.76138815905358,63.62642408444822,69.58634484850438,24.73412063695389,36.08763485264433,5.505959981877027,5.254258954134002,23.31880310499103,23.318803104990973,22.324982228557133,49.12664702197094,51.5267961079482,52.57305136134844,399.99999999999994,392.6445737218452,378.1428862749082,361.62028533978946
229,21,240,0,8.008000000000012,8.17034639234412,155.78603241539145,21.801203370840426,35.27470767540707,42.42290586708119,45.578524685625325,42.0117908558821,106.62849848097015,71.37722348370268,67.56881114158102,63.92808408349265,67.72749787512157,23.81661175110537,40.773422706585166,2.244283802931136,4.302677432286032,23.39631153411384,23.10922935467848,23.19093263028833,51.940434841169804,55.023491378529684,53.89952187763092,399.9999999999999,392.57472916036517,377.5371993286066,360.93331692252866
230,21,241,0,8.041366666666677,8.129476811329287,156.16215002481155,21.69214972677185,33.51869157411988,41.80164012205557,45.35053249071336,41.452360896267734,104.10810001654096,70.5908269482363,66.83783870850505,65.64204110623848,66.40300321677194,24.622559719397827,38.084341817641075,1.0689705838443615,5.362971064710564,23.279278864533314,23.279278864533314,22.276259878586984,50.205381149706795,53.937719120417455,53.62990651859198,399.9999999999999,391.0607905745915,377.66298034688816,357.567623722986
231,21,242,0,8.074733333333343,3.639553403243839,156.33142313365087,21.408495382375687,30.407156369174796,41.84695131671386,45.8352587801695,43.09452547950773,97.11539769905384,66.73396830263012,65.54924804956863,63.1142170232572,65.3392545482169,21.18253595549072,32.88855666913469,1.18400591187617,2.068659385655451,23.304512609741813,23.018556840135552,22.31292650531975,49.22783825302628,50.96140162588648,53.688039049437094,399.9999999999997,390.59038699845684,377.17434887939356,359.0636636785954
232,21,243,0,8.10810000000001,3.2689842673103398,157.40422325151215,21.498387487243747,30.138545782659726,44.010047578491566,47.59712938469845,42.02266242900741,94.34857195822329,64.22535046233968,63.8250318551236,60.95729664118926,63.94153359818961,20.428132563009513,31.899073418746525,1.4293867706952597,1.7609686548064474,25.0029218529656,24.73435421656697,23.788759766838723,50.48110143778587,53.76107358872309,52.32928098450534,399.99999999999994,392.50959682952043,377.4544543199763,360.82316234302243
233,21,244,0,8.141466666666675,3.2656325660103507,154.84230204735488,23.378371369272603,31.703557502206266,40.39364401235356,43.96492391877919,41.628810445778065,97.4231845610025,65.73986835832665,65.34808426818097,63.401430537395186,64.23056083013728,22.224296759803337,33.606813713425254,0.16222114423214862,1.1085111522529587,24.977286267466884,24.977286267466837,23.968174060298907,51.225832434193876,53.244584451304945,50.696250448541505,400.00000000000017,392.9629444280973,378.3697237838853,360.2016405689943
234,21,245,0,8.174833333333341,9.463723782428156,155.88552320558,22.952901627424037,33.10314549534341,42.971608119540264,48.41919902658503,41.727592379092314,106.68779288099881,73.61049588014454,69.08864689894665,63.49562777181245,65.30592864871096,22.673793321352832,42.280882918407656,5.975794188169857,3.6791438219554493,23.238041773053205,22.952901627424147,22.052346751671337,50.78749574542559,53.07513963961571,50.391944205693854,400.00000000000006,391.47988853590795,378.10333730946803,361.6083779891439
235,21,246,0,8.208200000000007,13.936282171257936,154.6812943985427,19.843412416444746,35.21100810762421,43.52366889672739,48.660941141637345,43.52366889672705,112.35789891770037,77.14690240616484,70.23370155979774,66.44092028062062,68.2969621831968,23.846103574401013,44.98884176896274,6.36165086897438,7.7335079274002965,24.951314462072226,24.683301163885435,23.7654061003758,51.45808926997063,52.04987074615428,53.80218935601485,400.00000000000017,392.991242224891,378.4229964149082,359.8270968010484
236,21,247,0,8.241566666666673,15.368835316679734,154.02950420403462,19.708363326460983,33.39751605388743,43.22745815666403,46.3902409723814,41.65052039600197,110.01815347919873,76.62186070737036,68.9668296983914,64.49916151463219,67.72232894179308,24.46025947501039,43.9067029522148,7.144687796873427,6.911903482689581,23.195120486190646,23.195120486190643,22.401013618768616,49.40399406409489,50.26350537800454,51.865866153420406,399.99999999999994,392.58275190305284,376.5277526661795,356.49588151976764
