,video_id,frame_seq,gap,time_seconds,m1,m3,m4,m5,m6,m7,m8,m9,m10,m11,m12,m13,m14,m15,m16,m17,e1,e2,e3,b1,b2,b3,m_0_16,m_1_15,m_2_14,m_3_13
0,21,11,1,0.3670333333333326,7.0710678118654755,109.01834707974616,10.0,19.0,28.0,30.01666203960727,32.0,68.00735254367721,49.01020301937138,45.5,42.0,40.0,9.0,27.0,7.0,0.0,13.0,14.035668847618199,14.0,41.0,42.0,36.0,279.00716836669267,277.01624501101014,269.0167281044062,252.01785651020842
1,21,12,0,0.4003999999999992,12.0,106.01886624558857,10.04987562112089,17.0,27.0,29.017236257093817,30.01666203960727,69.02897942168927,52.03844732503075,46.0,43.0,45.0,14.0,25.0,6.0,5.0,12.0,13.0,13.0,36.0,35.0,38.01315561749642,268.09140232390894,264.12118430750684,258.15692901799093,244.16592718886884
2,21,13,0,0.4337666666666658,12.0,101.0,10.0,18.0,26.019223662515376,29.017236257093817,29.0,69.0,51.0,45.0,41.0,41.0,12.0,28.0,8.0,4.0,13.0,13.0,12.5,36.0,35.0,39.0,254.159398803192,251.24092023394596,245.29370150902776,236.35777964771967
3,21,14,0,0.4671333333333324,15.0,101.0,12.0,20.0,27.018512172212592,30.01666203960727,27.0,74.0,54.0,46.5,43.0,43.0,16.0,31.0,10.0,5.0,14.0,14.0,13.5,36.0,35.0,41.012193308819754,252.0972034751675,249.24285345822858,244.29490375363952,235.35929979501554
4,21,15,0,0.5004999999999991,17.0,102.04410811016969,15.033296378372908,22.02271554554524,29.017236257093817,32.01562118716424,22.0,76.02631123499285,54.00925846556311,45.5,40.0,43.0,19.5,34.5,10.5,5.5,16.0312195418814,17.029386365926403,16.5,38.0,36.0,39.0,247.2023462671825,244.3460660620506,237.47420912595962,230.5558500667463
5,21,16,0,0.5338666666666656,19.026297590440446,100.07996802557443,11.045361017187261,19.026297590440446,31.064449134018133,34.058772731852805,21.0,70.06425622241343,51.03920062069938,41.5,38.0,42.0,19.0,30.0,8.0,8.0,16.0312195418814,17.029386365926403,16.5,39.0,36.0,39.0,244.24782496472716,241.3503677229434,233.54871012274933,226.63847863944022
6,21,17,0,0.5672333333333321,11.0,98.08159868191383,11.045361017187261,19.026297590440446,29.017236257093817,31.016124838541646,21.02379604162864,62.07253821135398,43.04648650006177,37.5,34.0,38.0,15.0,26.0,4.0,5.0,18.027756377319946,18.027756377319946,17.5,38.0,35.0,38.01315561749642,245.29370150902776,241.46635376383188,234.61670869739862,225.71885167172013
7,21,18,0,0.6005999999999987,6.082762530298219,95.1892851112981,11.0,19.026297590440446,27.073972741361768,29.017236257093817,23.08679276123039,59.135437767890075,40.11234224026316,37.0,34.0,40.0,14.0,22.0,0.0,3.0,17.029386365926403,17.029386365926403,16.5,38.0,35.0,38.0,245.29370150902776,242.52834885843757,235.76683396949622,226.88322987827902
8,21,19,0,0.6339666666666652,5.0990195135927845,92.26592003551474,11.0,20.024984394500787,27.018512172212592,28.071337695236398,24.08318915758459,60.13318551349163,40.11234224026316,37.5,35.0,42.0,14.5,21.5,1.5,3.5,17.029386365926403,16.0,16.0,37.0,35.0,38.01315561749642,245.34465553584002,242.5963726027246,235.8495283014151,226.07299706068392
9,21,20,0,0.6673333333333318,3.1622776601683795,91.35097153287424,12.0,20.024984394500787,27.018512172212592,28.071337695236398,23.08679276123039,58.137767414994535,38.118237105091836,36.5,34.0,42.0,15.0,20.0,3.0,4.0,12.041594578792296,12.0,12.0,36.0,34.0,36.013886210738214,245.34465553584002,242.5963726027246,235.76683396949622,224.98222151983475
10,21,21,0,0.7006999999999983,4.123105625617661,90.27181176868004,12.041594578792296,21.02379604162864,26.076809620810597,28.0178514522438,23.08679276123039,60.207972893961475,39.20459156782532,37.0,34.0,41.0,14.5,22.5,2.5,3.5,6.0,7.0710678118654755,6.5,36.0,35.0,35.014282800023196,246.2925090212855,244.4606307772276,238.67970169245646,227.71253808255707
11,21,22,0,0.7340666666666649,3.1622776601683795,87.28115489611719,13.0,21.02379604162864,26.019223662515376,28.0178514522438,23.021728866442675,60.07495318350236,39.05124837953327,37.5,36.0,43.0,16.5,20.5,3.5,5.5,5.0990195135927845,5.0990195135927845,5.0,34.0,34.0,35.0,246.24581214713075,243.402958075698,237.53947040439405,227.63567382991621
12,21,23,0,0.7674333333333314,3.0,87.14355971613737,13.0,22.02271554554524,25.0,27.018512172212592,22.02271554554524,60.03332407921454,38.01315561749642,36.5,35.0,40.0,15.5,22.5,1.5,4.5,5.0990195135927845,6.082762530298219,6.0,34.0,35.0,35.014282800023196,246.13004692641653,242.20652344641752,237.25513693068902,225.26872841120226
13,21,24,0,0.800799999999998,3.1622776601683795,85.21150157109074,13.0,23.021728866442675,25.019992006393608,27.018512172212592,23.08679276123039,62.12889826803627,39.11521443121589,37.5,37.0,43.0,17.0,22.0,4.0,5.0,7.0710678118654755,8.0,7.0,34.0,35.0,36.013886210738214,247.07286374670934,243.13165157996193,236.21176939348302,225.26872841120226
14,21,25,0,0.8341666666666645,3.1622776601683795,87.09190547921202,13.0,22.0,25.0,27.0,24.020824298928627,62.03224967708329,40.049968789001575,38.5,40.0,44.0,18.0,20.0,5.0,7.0,9.0,9.055385138137417,8.5,34.0,36.0,34.0147027033899,251.03187048659777,245.09997960016236,236.17154782064668,225.22211259110415
15,21,26,0,0.867533333333331,2.23606797749979,87.09190547921202,15.033296378372908,23.021728866442675,23.0,25.019992006393608,24.020824298928627,64.03124237432849,41.012193308819754,40.0,41.0,45.0,19.0,21.0,5.0,6.0,11.045361017187261,12.0,11.0,34.0,36.0,35.014282800023196,248.0181444975347,245.05101509685693,236.05296015936761,224.0803427344755
16,21,27,0,0.9008999999999976,3.0,86.05230967266364,15.0,23.021728866442675,23.0,25.019992006393608,25.019992006393608,66.03029607687671,43.01162633521314,41.5,44.0,47.0,20.5,20.5,5.5,7.5,12.0,11.045361017187261,11.0,33.0,36.0,34.058772731852805,249.0180716333656,244.05122413132864,235.07658326596462,223.10983842045155
17,21,28,0,0.934266666666664,5.0,82.09750300709517,15.0,23.021728866442675,23.021728866442675,25.0,24.020824298928627,67.02984409947557,44.01136216933077,41.5,43.0,47.0,21.0,22.0,3.0,7.0,13.038404810405298,12.041594578792296,12.0,32.0,35.0,34.058772731852805,249.0180716333656,243.0740627874558,235.1361307838504,222.1823575354263
18,21,29,0,0.9676333333333308,6.082762530298219,84.0535543567314,16.0,22.02271554554524,23.0,26.019223662515376,23.021728866442675,67.06713054842886,45.044422518220834,42.0,44.0,47.0,22.5,21.5,2.5,8.5,13.038404810405298,13.038404810405298,12.5,31.0,35.0,33.06055050963308,247.00202428320299,242.0185943269649,234.03418553707064,222.11033294288674
19,21,30,0,1.0009999999999972,5.0,83.02409288875127,15.0,22.0,22.0,25.019992006393608,25.079872407968907,67.02984409947557,45.044422518220834,42.5,46.0,48.0,22.0,20.0,5.0,9.0,15.0,15.033296378372908,14.5,31.0,35.0,34.058772731852805,248.0,243.00823031329617,235.05318547086316,223.0807028857494
20,21,31,0,1.0343666666666638,3.0,85.05292469985967,14.0,22.0,23.021728866442675,25.019992006393608,26.019223662515376,65.00769185258002,43.01162633521314,41.5,44.0,47.0,19.5,19.5,5.5,6.5,14.0,14.142135623730951,14.0,31.0,36.0,36.05551275463989,248.03225596683993,242.00206610688264,234.00213674238105,222.05629916757596
21,21,32,0,1.0677333333333303,2.0,87.05170877128145,15.0,22.0,25.019992006393608,27.0,25.079872407968907,64.03124237432849,42.04759208325728,41.0,44.0,47.0,20.5,18.5,6.5,6.5,14.035668847618199,13.038404810405298,13.0,29.0,35.0,33.13608305156178,248.0987706539474,243.03291958086666,234.00854685246006,222.00900882621858
22,21,33,0,1.1010999999999969,5.0,94.00531899844816,15.033296378372908,23.0,27.018512172212592,29.0,25.019992006393608,68.0,45.0,42.5,44.0,43.0,18.5,24.5,0.5,6.5,14.035668847618199,14.035668847618199,14.5,30.0,36.0,34.058772731852805,247.07286374670934,243.01851781294363,235.00212764994276,223.03587155433092
23,21,34,0,1.1344666666666634,6.0,97.02061636580135,15.0,24.0,28.0178514522438,30.01666203960727,25.0,70.0,46.0,43.0,43.0,41.0,17.0,28.0,3.0,4.0,14.0,15.033296378372908,14.5,29.0,36.0,34.058772731852805,247.05060210410335,244.00819658363937,236.00211863455803,224.0089283934906
24,21,35,0,1.16783333333333,6.0,94.08506789071261,13.038404810405298,23.021728866442675,28.0178514522438,30.066592756745816,24.08318915758459,66.03029607687671,43.01162633521314,40.0,41.0,37.0,15.0,27.0,2.0,4.0,15.0,15.033296378372908,14.5,29.0,36.0,34.132096331752024,247.09917037497314,245.01836665850175,236.0,224.0089283934906
25,21,36,0,1.2011999999999965,8.0,97.082439194738,11.0,21.0,27.018512172212592,29.068883707497267,23.021728866442675,63.00793600809346,42.01190307520001,38.0,40.0,36.0,15.0,25.0,2.0,6.0,16.0,15.132745950421556,14.5,30.0,36.0,35.05709628591621,246.0995733437992,244.0327846827143,237.00210969525145,225.00888871331284
26,21,37,0,1.234566666666663,6.0,93.04837451562494,11.0,21.0,29.017236257093817,30.066592756745816,24.0,62.0,41.0,38.0,39.0,36.0,13.5,24.5,1.5,4.5,15.0,15.132745950421556,15.0,29.0,36.0,32.0624390837628,249.09837414162303,245.05101509685693,236.00211863455803,225.0
27,21,38,0,1.2679333333333296,6.0,95.13148795220224,11.0,20.0,28.071337695236398,31.144823004794873,24.0,61.0,41.0,38.0,39.0,34.0,12.5,24.5,2.5,4.5,16.0,15.033296378372908,14.5,29.0,37.0,31.064449134018133,249.20072231034965,244.07375934335914,235.03404008781365,224.0
28,21,39,0,1.301299999999996,6.0,95.08417323613851,11.0,21.0,28.0178514522438,30.14962686336267,24.020824298928627,62.00806399170998,41.012193308819754,38.0,37.0,33.0,11.0,27.0,5.0,3.0,16.0,14.142135623730951,14.0,29.0,36.0,32.0624390837628,247.29132617218906,243.10080213771406,235.05318547086316,223.00896842952304
29,21,40,0,1.334666666666663,6.0,93.1933474020544,11.0,20.024984394500787,28.071337695236398,29.154759474226502,24.020824298928627,61.0,41.012193308819754,38.0,37.0,31.0,10.0,27.0,6.0,2.0,16.0312195418814,15.297058540778355,15.0,29.0,38.0,31.064449134018133,249.24285345822858,244.13111231467406,235.05318547086316,224.0200883849482
30,21,41,0,1.3680333333333292,6.0,95.1892851112981,11.0,20.024984394500787,27.073972741361768,28.071337695236398,24.020824298928627,61.0,41.012193308819754,38.0,36.0,30.0,9.0,28.0,6.0,1.0,15.0,15.297058540778355,14.5,28.0,38.0,30.066592756745816,247.39644298170498,244.20483205702544,235.10423220350586,224.0557966221807
31,21,42,0,1.4013999999999958,4.0,95.1892851112981,11.0,21.02379604162864,28.0178514522438,29.068883707497267,24.020824298928627,60.03332407921454,39.01281840626232,37.0,35.0,29.0,8.0,28.0,5.0,0.0,16.0312195418814,16.278820596099706,15.5,29.0,39.0,29.154759474226502,246.45689278249046,244.29490375363952,236.13555429032706,224.0803427344755
32,21,43,0,1.4347666666666623,4.123105625617661,96.18731725128839,11.0,21.0,28.0178514522438,30.14962686336267,24.08318915758459,60.07495318350236,39.11521443121589,37.0,35.0,29.0,8.0,28.0,5.0,0.0,15.0,16.278820596099706,15.5,28.0,39.0,30.14962686336267,246.6576574931336,244.4606307772276,235.25730594393875,223.14345161801185
33,21,44,0,1.4681333333333288,4.0,95.25754563287887,11.045361017187261,21.02379604162864,29.017236257093817,30.066592756745816,24.020824298928627,60.07495318350236,39.05124837953327,37.0,36.0,29.0,8.5,27.5,4.5,0.5,15.0,14.317821063276353,14.0,27.0,39.0,30.14962686336267,247.65500196846418,243.46252278328177,235.25730594393875,223.14345161801185
34,21,45,0,1.5014999999999954,6.082762530298219,97.25224933131366,11.045361017187261,21.02379604162864,29.017236257093817,30.14962686336267,22.090722034374522,60.07495318350236,39.05124837953327,36.0,34.0,27.0,8.5,29.5,7.5,0.5,15.033296378372908,15.132745950421556,14.5,26.0,38.0,30.265491900843113,247.8911051248108,243.52617929085162,236.30488780387088,225.17992805754247
35,21,46,0,1.534866666666662,8.0,98.32598842625484,11.045361017187261,21.02379604162864,29.017236257093817,31.144823004794873,21.095023109728988,61.1310068623117,40.11234224026316,36.0,35.0,27.0,10.0,30.0,7.0,1.0,14.035668847618199,14.317821063276353,14.0,27.0,39.0,28.160255680657446,247.72969139770066,243.46252278328177,235.2126697267815,224.0803427344755
36,21,47,0,1.5682333333333285,9.0,100.31948963187563,11.045361017187261,21.0,29.068883707497267,32.14031735997639,21.213203435596427,62.12889826803627,41.19465984809196,36.5,35.0,27.0,10.0,31.0,9.0,2.0,15.033296378372908,15.297058540778355,14.0,27.0,39.0,28.284271247461902,247.8911051248108,243.52617929085162,235.25730594393875,225.10886255321003
37,21,48,0,1.601599999999995,7.0,101.24228365658294,11.0,21.02379604162864,30.066592756745816,32.14031735997639,21.213203435596427,60.13318551349163,39.11521443121589,35.5,33.0,26.0,8.5,30.5,8.5,0.5,15.033296378372908,14.317821063276353,14.0,27.0,40.0,30.265491900843113,246.89471440271862,243.5939243905726,236.30488780387088,225.10886255321003
38,21,49,0,1.6349666666666616,1.4142135623730951,100.31948963187563,11.045361017187261,18.027756377319946,30.066592756745816,31.064449134018133,21.213203435596427,51.35172830587107,33.37663853655727,32.5,32.0,24.0,7.0,23.0,4.0,1.0,14.035668847618199,14.142135623730951,13.5,25.0,40.0,30.14962686336267,248.06853891616325,244.6630335788388,237.41314201197878,226.17913254763357
39,21,50,0,1.668333333333328,1.0,100.31948963187563,11.045361017187261,17.029386365926403,32.0624390837628,32.14031735997639,20.396078054371138,49.36598018878993,32.38826948140329,31.5,32.0,24.0,8.0,21.0,3.0,0.0,14.035668847618199,14.317821063276353,13.5,25.0,40.0,28.284271247461902,247.2670621008791,243.74166652421167,237.35627229968034,225.17992805754247
40,21,51,0,1.7016999999999949,2.0,102.3132444994293,11.045361017187261,20.09975124224178,31.064449134018133,32.14031735997639,21.37755832643195,54.45181356024793,34.36568055487916,33.0,32.0,24.0,7.0,26.0,5.0,1.0,14.035668847618199,14.560219778561036,13.5,25.0,40.0,30.265491900843113,245.381335883559,242.82503989498284,235.35929979501554,224.22310318073826
41,21,52,0,1.7350666666666612,7.0710678118654755,100.40418317978589,11.0,22.02271554554524,29.068883707497267,31.144823004794873,21.587033144922902,61.40032573203501,39.45883931389772,35.5,33.0,24.0,7.5,32.5,9.5,0.5,14.035668847618199,15.297058540778355,14.5,25.0,41.0,29.427877939124322,246.37572932413616,243.82165613415063,236.47621444872632,224.22310318073826
42,21,53,0,1.7684333333333278,9.0,101.40019723846694,11.045361017187261,21.02379604162864,30.066592756745816,32.14031735997639,21.37755832643195,62.289646009589745,41.30375285612676,36.5,34.0,25.0,8.5,32.5,10.5,0.5,14.035668847618199,14.317821063276353,13.5,25.0,41.0,28.284271247461902,246.37572932413616,242.82503989498284,236.4148895480147,224.1807306616695
43,21,54,0,1.8017999999999943,9.0,101.31633629380802,11.045361017187261,21.02379604162864,29.068883707497267,31.144823004794873,20.396078054371138,61.29437168288782,40.311288741492746,35.5,32.0,24.0,8.0,33.0,11.0,0.0,14.035668847618199,13.152946437965905,12.5,25.0,41.0,27.16615541441225,245.48930730278255,242.7447218787671,236.35777964771967,224.1428116179504
44,21,55,0,1.8351666666666608,9.0,100.31948963187563,9.055385138137417,21.02379604162864,30.066592756745816,31.144823004794873,22.360679774997898,61.29437168288782,40.311288741492746,35.5,33.0,25.0,7.0,32.0,10.0,0.0,13.0,14.142135623730951,13.5,26.0,41.0,29.154759474226502,245.381335883559,242.90944814889355,235.47823678633233,224.1807306616695
45,21,56,0,1.868533333333328,9.0,100.31948963187563,11.045361017187261,21.02379604162864,29.068883707497267,31.144823004794873,21.37755832643195,62.289646009589745,41.30375285612676,36.5,33.0,25.0,8.0,33.0,11.0,0.0,14.035668847618199,14.142135623730951,13.5,25.0,40.0,29.274562336608895,245.381335883559,242.66849816158668,235.30618351416098,224.1093483101497
46,21,57,0,1.901899999999994,10.0,102.23991392797629,11.045361017187261,22.02271554554524,29.068883707497267,31.064449134018133,21.37755832643195,64.28063471995279,42.2965719651132,37.0,33.0,26.0,8.5,34.5,11.5,0.5,13.038404810405298,13.341664064126334,13.0,25.0,40.0,29.154759474226502,244.38698819699874,241.74780247191492,234.3608329051593,223.14345161801185
47,21,58,0,1.9352666666666605,16.0,101.24228365658294,10.04987562112089,21.02379604162864,30.066592756745816,33.06055050963308,21.213203435596427,68.18357573492314,47.16990566028302,39.0,35.0,28.0,10.5,36.5,14.5,3.5,6.324555320336759,6.082762530298219,5.0,26.0,40.0,30.4138126514911,244.989795705862,241.53053637169774,235.2126697267815,223.0560467685196
48,21,59,0,1.968633333333327,19.0,102.23991392797629,10.04987562112089,22.02271554554524,31.064449134018133,33.13608305156178,21.37755832643195,72.24956747275377,50.24937810560445,40.5,35.0,28.0,10.5,40.5,17.5,2.5,6.082762530298219,6.082762530298219,5.5,25.0,41.0,28.284271247461902,242.29321080046796,239.75404063331237,234.30749027719963,222.08106627986098
49,21,60,0,2.0019999999999936,22.02271554554524,102.23991392797629,9.055385138137417,23.08679276123039,31.064449134018133,34.132096331752024,21.587033144922902,75.32595834106593,52.23983154643591,41.0,36.0,29.0,11.5,42.5,18.5,4.5,5.385164807134504,5.0990195135927845,4.5,26.0,42.0,29.427877939124322,245.08161905781512,240.53274205396653,234.21357774475842,223.03587155433092
50,21,61,0,2.0353666666666603,19.0,101.17806086301516,9.0,23.0,31.016124838541646,34.132096331752024,22.360679774997898,73.10950690573696,50.15974481593781,40.5,35.0,29.0,10.0,41.0,16.0,3.0,5.0990195135927845,5.0990195135927845,4.5,27.0,42.0,30.265491900843113,246.272207120495,241.74780247191492,234.3608329051593,223.10983842045155
51,21,62,0,2.068733333333327,12.0,97.25224933131366,11.045361017187261,24.0,30.01666203960727,31.144823004794873,23.08679276123039,70.06425622241343,46.09772228646444,40.0,36.0,29.0,9.5,37.5,12.5,0.5,6.324555320336759,7.280109889280518,6.5,27.0,41.0,30.4138126514911,246.07722365143832,242.66849816158668,234.4184293096428,222.1823575354263
52,21,63,0,2.102099999999994,7.0710678118654755,93.1933474020544,10.04987562112089,25.019992006393608,29.017236257093817,30.01666203960727,24.08318915758459,66.06814663663572,41.048751503547585,37.5,36.0,30.0,9.0,33.0,7.0,1.0,9.055385138137417,9.219544457292887,8.5,27.0,41.0,30.265491900843113,245.08161905781512,240.6013300046365,234.3608329051593,222.1823575354263
53,21,64,0,2.1354666666666606,8.0,91.08786966440702,10.0,21.02379604162864,29.017236257093817,30.01666203960727,24.020824298928627,63.0317380372777,42.01190307520001,38.0,34.0,30.0,8.0,31.0,7.0,1.0,10.04987562112089,10.44030650891055,9.5,27.0,40.0,31.25699921617557,246.81166909204273,241.46635376383188,232.31013753170566,220.14540649307222
54,21,65,0,2.1688333333333274,8.0,91.13725912051558,10.0,21.0,28.0178514522438,29.017236257093817,24.020824298928627,63.00793600809346,42.01190307520001,38.0,36.0,31.0,9.5,29.5,5.5,2.5,11.0,11.180339887498949,10.5,27.0,39.0,31.144823004794873,243.74166652421167,240.46829312822095,232.26062946612367,220.14540649307222
55,21,66,0,2.202199999999994,10.0,90.13878188659973,10.0,19.0,26.019223662515376,28.0178514522438,23.08679276123039,62.03224967708329,43.04648650006177,38.0,34.0,29.0,8.5,30.5,8.5,1.5,12.041594578792296,12.165525060596439,11.5,28.0,40.0,29.154759474226502,244.8182999695897,239.47024867402632,232.31013753170566,220.18401395196702
56,21,67,0,2.235566666666661,8.0,88.09086218218096,10.04987562112089,21.0,26.019223662515376,27.018512172212592,23.021728866442675,62.03224967708329,41.048751503547585,37.0,35.0,31.0,10.0,29.0,6.0,2.0,13.038404810405298,12.36931687685298,11.5,27.0,39.0,30.265491900843113,244.90202122481554,240.53274205396653,233.25951213187426,220.14540649307222
57,21,68,0,2.268933333333328,3.0,89.08984229416954,11.0,20.024984394500787,26.019223662515376,27.0,23.08679276123039,57.07889277132134,37.05401462729781,35.5,34.0,30.0,9.0,25.0,3.0,1.0,12.0,12.36931687685298,11.5,28.0,40.0,30.265491900843113,243.18717071424635,239.67686580060246,232.42202993692314,220.27482833950864
58,21,69,0,2.3022999999999945,1.0,90.08884503644167,10.04987562112089,20.024984394500787,27.018512172212592,27.018512172212592,24.08318915758459,55.14526271584895,35.12833614050059,34.5,34.0,30.0,8.0,23.0,1.0,1.0,12.041594578792296,12.36931687685298,11.5,28.0,40.0,30.265491900843113,245.08161905781512,240.67405344157896,232.42202993692314,220.27482833950864
59,21,70,0,2.335666666666661,2.0,90.08884503644167,10.04987562112089,19.0,27.0,28.0178514522438,23.194827009486403,54.147945482723536,35.22782990761707,34.0,33.0,29.0,8.0,23.0,2.0,0.0,11.045361017187261,12.165525060596439,11.5,28.0,39.0,30.14962686336267,243.28789530101986,239.83536019528063,231.5534495532295,219.32852071721086
60,21,71,0,2.369033333333328,2.23606797749979,95.08417323613851,10.0,18.0,28.0178514522438,28.071337695236398,23.194827009486403,53.150729063673246,35.22782990761707,34.0,32.0,28.0,7.0,23.0,3.0,0.0,12.0,12.36931687685298,11.5,28.0,41.0,30.14962686336267,244.08605040026356,238.75719884434898,231.42385356743154,220.27482833950864
61,21,72,0,2.4023999999999948,1.0,94.08506789071261,10.04987562112089,18.0,28.0,29.017236257093817,23.194827009486403,52.15361924162119,34.23448553724738,33.5,32.0,28.0,7.0,22.0,2.0,0.0,11.045361017187261,11.40175425099138,11.0,28.0,40.0,29.154759474226502,243.18717071424635,239.67686580060246,231.42385356743154,220.22715545545242
62,21,73,0,2.435766666666661,1.0,93.13431161500041,11.045361017187261,18.027756377319946,28.0,28.071337695236398,23.08679276123039,51.15662224971465,33.13608305156178,33.5,32.0,27.0,6.5,21.5,1.5,1.5,12.0,12.165525060596439,11.5,27.0,39.0,30.14962686336267,243.18717071424635,239.75404063331237,233.4823333787805,221.32555207205516
63,21,74,0,2.4691333333333283,1.0,92.0869154657707,10.04987562112089,18.0,27.0,28.0178514522438,22.090722034374522,51.088159097779204,33.13608305156178,32.5,30.0,26.0,6.0,23.0,2.0,2.0,12.041594578792296,13.152946437965905,12.0,27.0,38.0,31.144823004794873,242.90944814889355,238.53720883753127,231.36551169091732,219.22819161777528
64,21,75,0,2.502499999999995,1.0,91.08786966440702,11.045361017187261,18.0,27.018512172212592,27.018512172212592,22.090722034374522,52.08646657242167,34.132096331752024,33.5,31.0,27.0,7.0,23.0,2.0,1.0,12.0,12.165525060596439,11.5,27.0,38.0,28.160255680657446,242.66849816158668,239.40969069776602,233.21449354617735,221.11083193728885
65,21,76,0,2.535866666666662,1.4142135623730951,91.08786966440702,11.045361017187261,20.0,27.0,27.018512172212592,24.020824298928627,56.00892785976178,36.013886210738214,35.5,32.0,28.0,6.0,26.0,4.0,3.0,13.0,13.152946437965905,12.5,29.0,39.0,28.160255680657446,242.5963726027246,239.35329536064467,232.17450333746814,221.11083193728885
66,21,77,0,2.5692333333333286,2.23606797749979,89.05054744357274,11.0,20.024984394500787,26.0,27.018512172212592,24.08318915758459,57.0350769263968,37.013511046643494,36.0,34.0,31.0,8.5,24.5,1.5,0.5,13.0,13.341664064126334,12.5,27.0,37.0,29.154759474226502,243.6657546722559,238.3547775900454,231.21634890292685,219.14607000811125
67,21,78,0,2.602599999999996,2.0,88.02272433866155,12.0,21.0,26.0,27.0,24.020824298928627,59.00847396772772,38.01315561749642,37.0,35.0,33.0,10.0,25.0,1.0,0.0,12.041594578792296,13.341664064126334,12.5,28.0,37.0,30.066592756745816,242.46443038103547,239.30106560565082,232.17450333746814,220.08180297334897
68,21,79,0,2.635966666666662,2.23606797749979,87.02298546935747,13.0,21.0,26.0,26.0,24.08318915758459,60.00833275470999,39.01281840626232,38.0,37.0,35.0,12.0,24.0,0.0,2.0,13.0,13.152946437965905,12.5,28.0,37.0,29.068883707497267,243.5939243905726,239.35329536064467,232.2154172315008,220.11133546457802
69,21,80,0,2.669333333333329,2.23606797749979,86.00581375697809,12.041594578792296,21.0,26.0,27.018512172212592,24.0,59.0,38.0,37.0,37.0,36.0,12.5,22.5,0.5,2.5,13.038404810405298,13.152946437965905,12.5,28.0,38.0,30.066592756745816,242.46443038103547,239.25300416086733,231.1384866265244,220.05681084665386
70,21,81,0,2.702699999999996,1.0,87.0,13.0,20.0,26.019223662515376,27.018512172212592,23.021728866442675,57.0087712549569,37.013511046643494,36.5,35.0,35.0,12.0,22.0,1.0,1.0,13.0,13.038404810405298,13.0,29.0,38.0,31.016124838541646,243.52617929085162,240.25195108468944,231.10603626906848,219.03652663425797
71,21,82,0,2.7360666666666624,0.0,87.02298546935747,13.0,20.0,24.0,25.019992006393608,23.021728866442675,56.00892785976178,36.013886210738214,36.0,35.0,33.0,11.0,22.0,0.0,0.0,14.0,14.035668847618199,13.5,29.0,37.0,29.0,243.34748817277733,240.20824298928628,232.07757323791543,220.02045359466015
72,21,83,0,2.769433333333329,1.0,89.0,13.0,20.0,27.0,28.0,24.08318915758459,57.0087712549569,37.013511046643494,37.0,36.0,36.0,12.0,21.0,1.0,1.0,14.0,13.152946437965905,13.5,29.0,37.0,32.0624390837628,245.39967400141344,241.25090673404733,232.13789005675054,220.02045359466015
73,21,84,0,2.802799999999996,2.0,89.02246907382428,14.0,20.0,28.0178514522438,29.017236257093817,23.021728866442675,59.00847396772772,39.01281840626232,38.0,36.0,34.0,12.0,24.0,1.0,1.0,13.0,13.152946437965905,13.0,30.0,36.0,31.064449134018133,241.46635376383188,238.20999139414786,231.05410621756974,220.00227271553356
74,21,85,0,2.8361666666666627,6.082762530298219,91.00549433962765,13.038404810405298,21.0,28.0,29.0,24.020824298928627,64.00781202322104,43.01162633521314,40.0,35.0,34.0,10.5,29.5,6.5,0.5,14.0,13.152946437965905,13.5,29.0,37.0,30.01666203960727,241.29857024027308,239.13385373049965,231.03462943896528,219.0
75,21,86,0,2.869533333333329,8.0,93.00537618869137,12.0,23.0,28.0,29.017236257093817,24.08318915758459,67.02984409947557,44.04543109109048,40.0,35.0,34.0,10.5,32.5,6.5,0.5,14.0,14.142135623730951,13.5,31.0,37.0,32.01562118716424,242.46443038103547,239.2091135387613,231.05410621756974,219.0091322296858
76,21,87,0,2.9028999999999963,7.0,94.00531899844816,13.0,23.0,30.01666203960727,31.0,24.08318915758459,67.02984409947557,44.04543109109048,40.5,36.0,35.0,11.5,31.5,5.5,0.5,14.0,13.152946437965905,13.0,29.0,36.0,33.06055050963308,243.34748817277733,240.10206163213175,232.01939574095957,220.0
77,21,88,0,2.936266666666663,5.0990195135927845,95.00526301210897,12.0,21.0,29.0,30.0,25.079872407968907,63.00793600809346,42.01190307520001,39.5,36.0,35.0,10.5,27.5,4.5,0.5,14.0,14.142135623730951,13.5,31.0,37.0,34.0147027033899,242.20652344641752,239.0522955338434,231.00865784641059,219.0091322296858
78,21,89,0,2.96963333333333,3.1622776601683795,93.00537618869137,12.041594578792296,20.0,27.018512172212592,28.0,25.079872407968907,60.03332407921454,40.049968789001575,38.5,34.0,33.0,8.5,26.5,4.5,0.5,8.0,6.082762530298219,6.0,33.0,37.0,33.015148038438355,242.10121850168372,239.0083680543424,234.00854685246006,222.11033294288674
79,21,90,0,3.002999999999997,1.4142135623730951,93.00537618869137,12.0,19.0,26.0,28.0,24.020824298928627,56.0,37.0,36.5,33.0,34.0,9.5,22.5,1.5,0.5,5.0,7.0710678118654755,6.5,34.0,39.0,31.0,242.03305559365234,240.00208332429116,234.07691043757393,223.27113561766106
80,21,91,0,3.036366666666664,1.0,90.0499861188218,11.0,17.029386365926403,28.0178514522438,29.017236257093817,25.0,53.03772242470448,36.013886210738214,36.0,34.0,37.0,10.5,17.5,1.5,1.5,5.0,6.0,5.0,38.0,41.0,33.015148038438355,244.0184419260151,241.0082986123092,235.10423220350586,223.32263655975405
81,21,92,0,3.06973333333333,2.23606797749979,90.27181176868004,11.0,18.027756377319946,25.079872407968907,27.073972741361768,27.018512172212592,57.14017850864661,39.11521443121589,38.5,35.0,42.0,11.5,18.5,2.5,0.5,8.06225774829855,8.0,8.0,41.0,39.0,35.0,241.13274352522097,239.35329536064467,234.61670869739862,222.0923231451281
82,21,93,0,3.103099999999997,3.1622776601683795,87.69264507357501,12.041594578792296,21.213203435596427,25.179356624028344,26.1725046566048,28.0178514522438,64.28063471995279,43.104524124504614,41.5,34.0,45.0,11.5,24.5,0.5,0.5,11.045361017187261,11.0,11.0,43.0,38.0,35.05709628591621,240.67405344157896,238.3149177034455,231.08872754853275,217.83020910791964
83,21,94,0,3.136466666666664,10.198039027185569,87.29833904490967,12.041594578792296,22.20360331117452,25.317977802344327,27.459060435491963,28.071337695236398,72.44308110509934,50.24937810560445,45.0,33.0,48.0,12.5,31.5,5.5,0.5,13.152946437965905,13.0,12.5,46.0,36.0,36.22154055254967,239.83536019528063,238.89118861942146,232.13142829009604,217.29703173306348
84,21,95,0,3.1698333333333304,12.165525060596439,86.68333173107735,12.041594578792296,23.194827009486403,24.331050121192877,27.65863337187866,26.076809620810597,73.43704787094863,50.24937810560445,44.0,33.0,50.0,15.5,31.5,4.5,2.5,13.341664064126334,12.041594578792296,12.0,48.0,33.0,35.35533905932738,240.4100663449848,238.58122306669483,232.20680437919987,216.61486560252507
85,21,96,0,3.203199999999997,10.198039027185569,85.5102333057278,12.041594578792296,21.213203435596427,24.515301344262525,26.68332812825267,25.179356624028344,68.59300255857006,47.38143096192854,42.0,32.0,48.0,15.0,28.0,2.0,1.0,16.278820596099706,16.0312195418814,15.5,49.0,31.0,35.510561809129406,241.6278129686233,237.8949347926517,231.4173718630475,215.64090521049107
86,21,97,0,3.236566666666664,5.385164807134504,85.90692637965812,11.045361017187261,21.213203435596427,25.495097567963924,27.65863337187866,26.1725046566048,63.63961030678928,42.42640687119285,39.5,30.0,48.0,13.0,24.0,2.0,1.0,15.297058540778355,16.0312195418814,15.0,50.0,31.0,34.36568055487916,243.11519903124116,240.3518254559345,233.97649454592656,217.55459085020476
87,21,98,0,3.2699333333333307,4.47213595499958,84.92938243034621,11.045361017187261,19.235384061671343,24.515301344262525,25.96150997149434,25.179356624028344,59.682493245507096,40.44749683231337,38.0,29.0,47.0,13.0,21.0,3.0,1.0,17.26267650163207,17.029386365926403,17.0,49.0,30.0,35.510561809129406,243.24884377936928,240.3518254559345,232.79390026373113,216.8432613663611
88,21,99,0,3.303299999999997,2.8284271247461903,86.12200647918046,11.180339887498949,19.4164878389476,24.73863375370596,25.96150997149434,26.076809620810597,58.855755878248644,39.45883931389772,38.0,29.0,48.0,12.5,19.5,5.5,0.5,17.26267650163207,17.029386365926403,16.5,49.0,28.0,35.6931365951495,241.84705910967782,240.8692591427972,233.20591759215716,216.34232133357543
89,21,100,0,3.336666666666664,2.23606797749979,86.34813257969161,11.180339887498949,19.4164878389476,25.709920264364882,27.202941017470888,24.08318915758459,56.71860364994893,37.33630940518894,36.0,27.0,47.0,13.0,19.0,5.0,0.0,17.26267650163207,17.11724276862369,16.5,50.0,25.0,34.92849839314596,245.12241839538055,241.61539686038222,233.10512649875378,218.3048327454067
90,21,101,0,3.370033333333331,2.8284271247461903,85.86617494683223,10.198039027185569,19.4164878389476,24.73863375370596,26.248809496813376,24.020824298928627,55.731499172371095,36.345563690772494,35.0,24.0,46.0,11.0,20.0,4.0,1.0,17.26267650163207,17.11724276862369,17.0,49.0,22.0,34.92849839314596,242.99176940793694,240.60756430336932,233.1222855069845,218.28879952943075
91,21,102,0,3.4033999999999978,3.1622776601683795,89.56003573022959,10.198039027185569,17.72004514666935,25.96150997149434,26.570660511172846,24.08318915758459,53.36665625650534,35.6931365951495,34.5,21.0,46.0,9.5,18.5,4.5,2.5,16.492422502470642,16.1245154965971,16.0,48.0,19.0,31.78049716414141,242.6375898330677,240.6013300046365,233.2402195162747,217.88299612406655
92,21,103,0,3.4367666666666645,2.8284271247461903,86.97700845625813,9.486832980505138,17.08800749063506,26.248809496813376,26.92582403567252,24.08318915758459,52.630789467763066,35.6931365951495,34.0,20.0,46.0,9.0,18.0,5.0,3.0,15.524174696260024,15.132745950421556,14.5,48.0,17.0,32.01562118716424,242.099153240981,239.88538930080756,233.13729860320507,218.22007240398395
93,21,104,0,3.470133333333332,3.0,91.0823802938856,10.44030650891055,17.72004514666935,25.298221281347036,26.570660511172846,25.079872407968907,53.600373133029585,35.90264614203248,35.0,19.0,49.0,9.0,18.0,5.0,3.0,16.492422502470642,17.26267650163207,16.0,49.0,16.0,34.48187929913333,244.2723889431632,240.85265205099984,232.28000344411913,216.6217902243447
94,21,105,0,3.503499999999998,3.0,90.13878188659973,9.486832980505138,18.027756377319946,26.570660511172846,26.92582403567252,26.1725046566048,54.120236510939236,36.138621999185304,35.0,19.0,49.0,8.0,18.0,6.0,4.0,14.866068747318506,15.297058540778355,15.0,48.0,14.0,31.32091952673165,243.9938523815713,240.9336008115099,232.47580519271247,216.9469981354893
95,21,106,0,3.536866666666665,3.1622776601683795,89.19641248391103,11.40175425099138,18.973665961010276,24.351591323771842,26.0,24.186773244895647,54.120236510939236,35.17101079013795,34.5,18.0,48.0,9.0,19.0,5.0,4.0,16.76305461424021,16.278820596099706,15.5,49.0,15.0,31.32091952673165,243.29817097545143,241.37315509393335,233.69424468736923,219.57231155134292
96,21,107,0,3.570233333333332,3.0,90.82400563727631,10.44030650891055,18.027756377319946,24.351591323771842,27.313000567495326,25.179356624028344,54.120236510939236,36.138621999185304,35.0,17.0,49.0,8.0,19.0,5.0,4.0,15.811388300841896,15.524174696260024,15.0,49.0,13.0,33.52610922848042,243.29817097545143,242.33035303073365,233.0600780914655,220.51077071199947
97,21,108,0,3.6035999999999984,3.0,93.637599285757,10.44030650891055,17.08800749063506,25.632011235952593,27.313000567495326,25.317977802344327,53.45091205957107,36.40054944640259,35.0,16.0,48.0,7.0,19.0,5.0,6.0,16.492422502470642,16.278820596099706,15.5,49.0,13.0,33.52610922848042,244.5240274492468,241.66505746590673,233.0600780914655,218.6343980255623
98,21,109,0,3.636966666666665,3.0,94.2443632266673,10.44030650891055,17.08800749063506,26.570660511172846,26.92582403567252,23.345235059857504,51.54609587543949,34.48187929913333,33.0,14.0,45.0,6.5,19.5,3.5,6.5,15.811388300841896,15.297058540778355,15.0,50.0,13.0,33.52610922848042,244.53425117966603,242.86621831782205,234.0939982143925,220.79175709251467
99,21,110,0,3.670333333333332,4.0,94.2443632266673,10.44030650891055,16.76305461424021,25.632011235952593,27.313000567495326,24.186773244895647,52.20153254455275,35.4400902933387,34.0,16.0,47.0,7.5,18.5,4.5,5.5,16.492422502470642,16.278820596099706,15.5,49.0,13.0,32.57299494980466,243.28789530101986,241.91940806805889,233.4180798481557,219.33763926877666
100,21,111,0,3.703699999999999,3.0,94.86832980505137,10.198039027185569,16.15549442140351,27.202941017470888,27.85677655436824,23.345235059857504,50.28916384272063,34.20526275297414,33.0,16.0,46.0,8.0,17.0,5.0,4.0,15.524174696260024,16.492422502470642,15.0,49.0,12.0,32.28002478313795,244.92039523077696,242.5633937757303,234.64867355261143,219.92044015961773
101,21,112,0,3.7370666666666654,3.0,95.1892851112981,10.44030650891055,16.15549442140351,27.51363298439521,27.85677655436824,24.08318915758459,50.96076922496363,34.92849839314596,34.0,15.0,46.0,6.5,18.5,3.5,5.5,15.524174696260024,15.297058540778355,15.0,48.0,12.0,34.48187929913333,245.60130292814003,242.5633937757303,234.97446669797975,222.14409737825582
102,21,113,0,3.770433333333332,3.605551275463989,94.86832980505137,9.486832980505138,18.681541692269406,27.202941017470888,28.460498941515414,27.294688127912362,57.97413216254298,39.293765408777,37.0,18.0,48.0,6.0,23.0,2.0,5.0,15.524174696260024,15.297058540778355,14.5,49.0,12.0,33.52610922848042,245.88005205790893,242.26019070412704,234.64867355261143,221.79495034828903
103,21,114,0,3.803799999999999,8.54400374531753,89.5377015563835,9.486832980505138,18.681541692269406,25.632011235952593,27.85677655436824,27.65863337187866,64.28841264178172,45.60701700396552,40.0,22.0,53.0,10.5,24.5,0.5,1.5,15.811388300841896,16.492422502470642,15.0,48.0,12.0,33.52610922848042,246.16254792311523,243.1810025474852,233.75414434828744,220.05681084665386
104,21,115,0,3.8371666666666657,8.06225774829855,86.97700845625813,10.198039027185569,19.6468827043885,23.769728648009426,26.0,26.92582403567252,64.5600495662759,44.9221548904324,39.5,22.0,51.0,10.5,25.5,0.5,2.5,15.811388300841896,16.278820596099706,15.5,49.0,14.0,32.57299494980466,246.5623653358314,243.51591323771842,235.30405861353094,221.2080468699093
105,21,116,0,3.870533333333333,4.242640687119285,88.86506625215557,10.198039027185569,19.924858845171276,25.298221281347036,26.92582403567252,27.65863337187866,61.40032573203501,41.48493702538308,38.5,22.0,51.0,9.5,22.5,3.5,3.5,16.492422502470642,16.278820596099706,15.5,49.0,15.0,35.17101079013795,246.9817807045694,243.57750306627253,235.90676124265704,221.44976857066254
106,21,117,0,3.9038999999999993,2.23606797749979,87.93179174792243,11.180339887498949,19.6468827043885,23.769728648009426,26.570660511172846,25.495097567963924,57.723478758647246,38.07886552931954,36.5,21.0,47.0,9.0,22.0,3.0,3.0,16.492422502470642,16.278820596099706,15.5,48.0,17.0,35.17101079013795,247.63077353188558,243.1295950722577,235.34230388946224,220.41097976280582
107,21,118,0,3.937266666666666,4.47213595499958,87.64131445842195,11.40175425099138,18.681541692269406,23.08679276123039,25.298221281347036,26.476404589747453,60.876925020897694,42.20189569201838,39.0,23.0,48.0,9.5,23.5,1.5,3.5,16.492422502470642,17.26267650163207,16.5,48.0,18.0,33.95585369269929,248.11690792850052,244.5240274492468,237.25513693068902,222.3083444227859
108,21,119,0,3.970633333333333,5.0,88.88756943465155,11.40175425099138,21.587033144922902,25.0,26.248809496813376,26.476404589747453,64.03124237432849,42.44997055358225,39.0,24.0,50.0,11.0,25.0,2.0,2.0,16.492422502470642,16.1245154965971,15.5,48.0,19.0,32.984845004941285,247.14570601165622,243.55902775302746,235.72229423624742,221.9954954497951
109,21,120,0,4.004,2.8284271247461903,88.32326986700618,10.44030650891055,19.6468827043885,25.0,26.248809496813376,26.30589287593181,58.69412236331676,39.05124837953327,37.0,23.0,47.0,9.0,22.0,2.0,3.0,15.524174696260024,16.1245154965971,16.0,47.0,19.0,32.984845004941285,245.93698379869588,243.04114877937852,236.1228493814184,220.7351353998724
110,21,121,0,4.037366666666666,3.605551275463989,90.24965373894794,11.180339887498949,18.681541692269406,25.0,26.248809496813376,25.495097567963924,57.97413216254298,39.293765408777,37.0,24.0,48.0,11.0,20.0,4.0,2.0,16.492422502470642,18.110770276274835,17.0,46.0,20.0,34.92849839314596,244.0491753725056,242.53865671269807,234.61670869739862,221.0814329607984
111,21,122,0,4.070733333333333,6.708203932499369,92.44457799135652,11.180339887498949,20.8806130178211,26.92582403567252,28.160255680657446,25.495097567963924,64.03124237432849,43.174066289845804,39.0,23.0,48.0,10.5,26.5,0.5,2.5,16.492422502470642,17.11724276862369,16.5,46.0,20.0,32.7566787083184,243.0740627874558,240.6013300046365,234.61670869739862,220.78496325610584
112,21,123,0,4.1041,8.94427190999916,93.40770846134703,10.198039027185569,22.80350850198276,26.68332812825267,30.083217912982647,24.331050121192877,65.96969000988257,43.174066289845804,38.0,23.0,48.0,11.5,28.5,1.5,0.5,16.492422502470642,17.11724276862369,16.5,46.0,21.0,30.59411708155671,245.246814454337,241.82018112638985,234.2007685726074,220.42912693199145
113,21,124,0,4.137466666666667,11.704699910719626,95.33624704172071,10.44030650891055,18.973665961010276,27.65863337187866,29.832867780352597,23.345235059857504,64.28841264178172,45.35416188179427,38.5,23.0,48.0,12.5,26.5,2.5,1.5,17.46424919657298,17.029386365926403,16.5,46.0,21.0,31.78049716414141,244.49948875202173,241.10785968109792,233.2402195162747,219.4766502386985
114,21,125,0,4.170833333333333,10.770329614269007,95.0789145920377,9.219544457292887,19.6468827043885,27.65863337187866,29.832867780352597,21.37755832643195,60.876925020897694,41.23105625617661,35.0,22.0,46.0,13.0,25.0,1.0,2.0,15.297058540778355,16.1245154965971,15.5,46.0,21.0,32.7566787083184,244.59149617270018,242.05164738129753,235.3146829248018,221.44976857066254
115,21,126,0,4.2042,7.211102550927978,96.30160954002794,10.198039027185569,18.973665961010276,28.861739379323623,30.083217912982647,21.213203435596427,57.0087712549569,38.07886552931954,34.0,21.0,46.0,12.5,21.5,2.5,0.5,16.278820596099706,16.0312195418814,15.5,46.0,21.0,31.78049716414141,245.35892076710803,242.05164738129753,235.05318547086316,222.12158832495322
116,21,127,0,4.237566666666667,3.605551275463989,97.52948272189288,10.198039027185569,16.76305461424021,29.832867780352597,30.364452901377952,21.213203435596427,50.695167422546305,33.95585369269929,32.0,18.0,44.0,10.0,18.0,5.0,1.0,16.278820596099706,17.029386365926403,16.5,46.0,23.0,31.575306807693888,243.97130978867168,242.32416305436814,235.51008470976353,222.9484245290825
117,21,128,0,4.270933333333334,3.1622776601683795,98.49365461794989,10.44030650891055,16.492422502470642,30.083217912982647,31.04834939252005,20.223748416156685,48.76474136094644,32.28002478313795,30.5,17.0,43.0,10.0,17.0,5.0,2.0,16.278820596099706,17.029386365926403,16.5,48.0,23.0,33.734255586866,243.77243486497812,241.8780684559888,235.01702066020664,221.98423367437607
118,21,129,0,4.3043000000000005,5.0,97.98469268207153,11.180339887498949,17.46424919657298,28.861739379323623,30.805843601498726,21.095023109728988,54.12947441089743,36.6742416417845,34.0,20.0,44.0,11.0,21.0,3.0,2.0,17.26267650163207,18.110770276274835,17.5,48.0,24.0,32.7566787083184,244.36857408431223,241.66091947189145,234.30749027719963,222.4275162833951
119,21,130,0,4.337666666666667,10.198039027185569,96.317184344228,12.165525060596439,21.37755832643195,28.635642126552707,30.59411708155671,22.20360331117452,65.92419889539804,44.553338819890925,39.0,24.0,45.0,12.5,30.5,4.5,0.5,17.26267650163207,17.029386365926403,16.5,49.0,25.0,32.984845004941285,244.75293665245368,242.6375898330677,236.48467180770933,222.6858774148015
120,21,131,0,4.371033333333334,15.297058540778355,98.0612053770501,12.165525060596439,22.360679774997898,28.442925306655784,30.59411708155671,23.021728866442675,72.69112738154499,50.35871324805669,42.5,27.0,47.0,14.0,35.0,7.0,1.0,18.24828759089466,17.029386365926403,17.0,48.0,25.0,32.55764119219941,245.73359558676546,242.6375898330677,237.45736459415193,223.14121089570165
121,21,132,0,4.404400000000001,16.1245154965971,97.082439194738,12.165525060596439,22.360679774997898,29.427877939124322,32.55764119219941,23.021728866442675,73.55270219373317,51.24451190127583,43.0,29.0,49.0,16.0,34.0,7.0,3.0,17.26267650163207,17.029386365926403,17.0,47.0,24.0,32.55764119219941,243.57750306627253,241.66091947189145,235.28068344001383,222.4275162833951
122,21,133,0,4.437766666666668,16.1245154965971,97.29337079164233,12.165525060596439,20.223748416156685,28.442925306655784,31.575306807693888,24.020824298928627,72.44308110509934,52.23983154643591,44.0,29.0,50.0,15.5,32.5,7.5,2.5,17.26267650163207,17.11724276862369,17.0,48.0,25.0,32.55764119219941,246.3331078032346,243.61444948935193,237.22773868163057,224.36131573869858
123,21,134,0,4.471133333333334,8.06225774829855,95.90099061010788,12.165525060596439,21.213203435596427,28.442925306655784,30.59411708155671,24.08318915758459,65.49045732013177,44.28317965096906,40.0,27.0,46.0,12.5,28.5,3.5,0.5,17.26267650163207,17.029386365926403,16.5,47.0,26.0,32.55764119219941,246.14832926509982,242.42524621004307,236.48467180770933,225.07776433935007
124,21,135,0,4.504500000000001,5.385164807134504,98.0612053770501,12.041594578792296,18.24828759089466,29.427877939124322,30.59411708155671,24.08318915758459,59.53990258641679,41.30375285612676,38.5,27.0,47.0,13.0,22.0,1.0,0.0,17.26267650163207,17.029386365926403,16.5,46.0,25.0,33.54101966249684,247.13154391942766,243.19539469323837,237.00210969525145,225.5593048402127
125,21,136,0,4.537866666666668,3.1622776601683795,96.6902270139025,12.041594578792296,19.235384061671343,29.274562336608895,30.59411708155671,24.186773244895647,58.54912467321779,39.319206502675,37.5,28.0,46.0,13.0,21.0,2.0,1.0,16.278820596099706,17.029386365926403,16.5,45.0,25.0,31.400636936215164,246.7752013472991,243.77243486497812,236.34931774811622,225.08887133752305
126,21,137,0,4.571233333333335,5.385164807134504,96.6902270139025,12.041594578792296,19.235384061671343,28.442925306655784,29.614185789921695,24.08318915758459,60.530983801686226,41.30375285612676,38.5,28.0,46.0,13.0,23.0,1.0,0.0,16.278820596099706,17.029386365926403,16.5,45.0,26.0,33.37663853655727,245.5402207378661,242.42524621004307,235.51220775153035,224.58851261807672
127,21,138,0,4.604600000000001,9.219544457292887,96.5090669315583,12.041594578792296,20.396078054371138,28.284271247461902,30.4138126514911,24.08318915758459,65.62011886609167,45.27692569068709,40.5,29.0,46.0,13.5,27.5,3.5,0.5,17.26267650163207,17.029386365926403,16.5,45.0,26.0,33.37663853655727,246.14832926509982,243.402958075698,237.22773868163057,223.86156436512275
128,21,139,0,4.637966666666668,12.165525060596439,96.33794683301072,12.041594578792296,20.396078054371138,27.294688127912362,30.4138126514911,24.08318915758459,68.59300255857006,48.25971404805462,42.0,31.0,47.0,15.0,29.0,5.0,2.0,16.278820596099706,17.029386365926403,16.5,45.0,26.0,32.2490309931942,247.13154391942766,244.38085031360376,236.02754076590298,224.58851261807672
129,21,140,0,4.671333333333335,13.152946437965905,96.33794683301072,12.165525060596439,20.223748416156685,28.284271247461902,31.400636936215164,25.079872407968907,70.57619995437555,50.35871324805669,43.5,30.0,46.0,13.0,32.0,8.0,1.0,16.1245154965971,17.029386365926403,16.0,44.0,27.0,31.25699921617557,245.6175889467202,242.5963726027246,235.3720459187964,224.11604137142882
130,21,141,0,4.704700000000002,14.142135623730951,97.32420048477151,12.165525060596439,20.223748416156685,28.284271247461902,30.265491900843113,24.08318915758459,70.57619995437555,50.35871324805669,43.0,31.0,47.0,15.0,31.0,7.0,2.0,16.278820596099706,16.0312195418814,16.0,42.0,25.0,33.24154027718932,244.80604567698077,241.03319273494262,234.61031520374377,223.14345161801185
131,21,142,0,4.738066666666668,13.038404810405298,97.16480844420988,13.152946437965905,20.396078054371138,29.427877939124322,31.400636936215164,24.08318915758459,70.57619995437555,50.24937810560445,43.5,31.0,46.0,14.5,31.5,7.5,0.5,17.26267650163207,17.029386365926403,16.5,43.0,26.0,33.24154027718932,244.29695045169925,242.404620418011,236.34931774811622,224.8599564173221
132,21,143,0,4.771433333333335,13.038404810405298,97.16480844420988,12.165525060596439,20.396078054371138,27.294688127912362,30.4138126514911,24.08318915758459,69.58448102845921,49.25444142409901,42.5,31.0,46.0,14.5,30.5,6.5,1.5,16.278820596099706,17.029386365926403,16.5,43.0,26.0,33.24154027718932,245.44856895080892,243.57750306627253,237.32677893571133,225.08887133752305
133,21,144,0,4.804800000000002,11.180339887498949,96.5090669315583,12.165525060596439,20.223748416156685,27.459060435491963,30.4138126514911,25.079872407968907,68.59300255857006,48.373546489791295,42.5,31.0,48.0,14.5,28.5,4.5,1.5,17.26267650163207,17.029386365926403,16.5,43.0,26.0,33.37663853655727,245.6175889467202,242.5963726027246,236.34931774811622,224.6352599215003
134,21,145,0,4.838166666666669,11.180339887498949,97.16480844420988,13.152946437965905,20.396078054371138,28.284271247461902,31.25699921617557,24.08318915758459,68.73136110975832,48.373546489791295,42.5,31.0,46.0,14.5,29.5,5.5,1.5,17.26267650163207,16.1245154965971,16.0,43.0,25.0,32.38826948140329,245.6175889467202,242.5963726027246,236.34931774811622,225.08887133752305
135,21,146,0,4.871533333333336,11.180339887498949,96.33794683301072,12.041594578792296,21.37755832643195,28.284271247461902,31.25699921617557,24.186773244895647,68.73136110975832,47.38143096192854,41.5,30.0,46.0,14.0,30.0,5.0,1.0,16.278820596099706,16.0312195418814,16.0,43.0,25.0,33.24154027718932,246.60291969074495,243.57750306627253,237.11811402758752,224.6352599215003
136,21,147,0,4.904900000000002,10.198039027185569,96.33794683301072,12.165525060596439,22.20360331117452,27.294688127912362,30.265491900843113,24.08318915758459,68.59300255857006,46.389654018972806,41.0,30.0,46.0,14.0,30.0,5.0,1.0,16.278820596099706,16.0312195418814,16.0,43.0,25.0,31.400636936215164,245.96747752497686,242.99176940793694,237.53947040439405,225.32199182503248
137,21,148,0,4.938266666666669,10.198039027185569,97.49358953285082,12.165525060596439,20.223748416156685,27.294688127912362,29.274562336608895,25.079872407968907,67.60177512462228,47.38143096192854,42.0,30.0,47.0,13.5,28.5,4.5,0.5,16.1245154965971,16.1245154965971,16.0,44.0,25.0,32.38826948140329,246.14832926509982,242.99176940793694,236.56288804459587,225.08887133752305
138,21,149,0,4.971633333333336,8.54400374531753,95.524865872714,12.041594578792296,21.213203435596427,28.284271247461902,30.265491900843113,26.1725046566048,67.7421582177598,46.52956049652737,42.0,30.0,47.0,12.5,28.5,3.5,0.5,16.278820596099706,16.0312195418814,15.5,43.0,24.0,32.38826948140329,246.14832926509982,242.01239637671455,234.61031520374377,221.93918085818015
139,21,150,0,5.005000000000003,8.246211251235321,96.5090669315583,12.165525060596439,20.223748416156685,28.284271247461902,30.4138126514911,26.1725046566048,66.75327707311455,46.52956049652737,42.0,30.0,47.0,12.5,27.5,3.5,0.5,16.278820596099706,17.11724276862369,16.0,43.0,24.0,31.400636936215164,246.14832926509982,242.21684499637922,235.58650216003463,224.11604137142882
140,21,151,0,5.038366666666669,8.246211251235321,96.33794683301072,11.045361017187261,18.24828759089466,29.274562336608895,29.274562336608895,25.179356624028344,62.64982043070834,44.40720662234904,40.0,29.0,45.0,12.0,25.0,3.0,0.0,16.278820596099706,16.1245154965971,16.0,43.0,23.0,32.55764119219941,245.79056125083403,242.79209212822397,235.3720459187964,223.6604569431083
141,21,152,0,5.071733333333336,6.324555320336759,95.524865872714,11.045361017187261,20.396078054371138,27.459060435491963,29.427877939124322,25.179356624028344,62.80127387243033,42.42640687119285,39.0,28.0,45.0,11.5,25.5,1.5,0.5,15.297058540778355,14.142135623730951,14.5,43.0,23.0,32.55764119219941,245.79056125083403,242.01239637671455,235.80500418778223,222.40728405337808
142,21,153,0,5.105100000000003,5.385164807134504,93.94147114027967,12.165525060596439,20.223748416156685,26.476404589747453,28.635642126552707,24.186773244895647,61.814237842102365,41.593268686170845,38.5,27.0,46.0,12.5,24.5,0.5,0.5,15.297058540778355,16.1245154965971,15.5,44.0,24.0,32.38826948140329,246.14832926509982,242.99176940793694,236.56288804459587,224.11604137142882
143,21,154,0,5.13846666666667,5.385164807134504,90.80198235721508,12.041594578792296,19.235384061671343,27.294688127912362,28.442925306655784,25.317977802344327,61.814237842102365,42.579337712087536,39.5,30.0,48.0,14.0,22.0,2.0,2.0,14.142135623730951,15.132745950421556,15.0,43.0,23.0,32.55764119219941,246.95141222515818,243.57750306627253,235.16164653276266,222.91253890259293
144,21,155,0,5.171833333333336,5.0,91.78235124467012,13.038404810405298,21.213203435596427,26.476404589747453,29.614185789921695,24.515301344262525,63.150613615387776,41.97618372363071,39.0,30.0,48.0,15.0,23.0,3.0,1.0,16.278820596099706,17.029386365926403,16.0,44.0,23.0,32.55764119219941,245.73359558676546,241.4477169078225,234.61031520374377,222.91253890259293
145,21,156,0,5.205200000000003,6.324555320336759,88.64536084872124,12.165525060596439,20.223748416156685,24.515301344262525,25.495097567963924,25.495097567963924,64.13267497929586,43.93176527297759,40.0,32.0,49.0,15.5,22.5,1.5,2.5,16.1245154965971,16.0312195418814,15.5,43.0,22.0,34.36568055487916,244.55878638887626,241.4477169078225,232.8797973204202,219.9931817125249
146,21,157,0,5.23856666666667,5.385164807134504,89.62700485902673,13.152946437965905,21.37755832643195,24.515301344262525,25.495097567963924,24.515301344262525,64.32728814430156,42.95346318982906,39.5,32.0,49.0,16.5,22.5,2.5,2.5,16.1245154965971,16.1245154965971,16.0,44.0,25.0,34.36568055487916,245.3507693079441,242.01239637671455,233.63432966925043,221.93918085818015
147,21,158,0,5.271933333333337,3.605551275463989,85.90692637965812,13.152946437965905,22.20360331117452,23.53720459187964,25.709920264364882,24.515301344262525,63.150613615387776,41.0,38.5,32.0,50.0,17.0,21.0,5.0,3.0,16.278820596099706,17.11724276862369,16.0,43.0,24.0,31.25699921617557,245.16525039246488,242.01239637671455,234.39496581624786,220.5130381632796
148,21,159,0,5.305300000000004,1.4142135623730951,88.64536084872124,14.142135623730951,22.360679774997898,24.331050121192877,27.459060435491963,24.331050121192877,61.98386886924694,39.6232255123179,38.5,31.0,48.0,15.5,21.5,5.5,1.5,15.297058540778355,16.0312195418814,15.5,41.0,23.0,33.37663853655727,245.6175889467202,242.404620418011,233.77339455121918,223.00896842952304
149,21,160,0,5.33866666666667,3.1622776601683795,90.4267659490264,13.038404810405298,22.20360331117452,24.331050121192877,27.459060435491963,26.476404589747453,64.77653896280658,42.579337712087536,40.5,33.0,49.0,15.0,23.0,3.0,2.0,16.1245154965971,16.0312195418814,15.5,41.0,23.0,32.2490309931942,245.79056125083403,241.61539686038222,233.97649454592656,222.24535990656813
150,21,161,0,5.372033333333337,5.385164807134504,93.38094023943002,13.038404810405298,22.20360331117452,24.515301344262525,26.476404589747453,25.495097567963924,65.92419889539804,43.73785545725808,40.5,32.0,48.0,15.0,25.0,1.0,1.0,16.1245154965971,16.0312195418814,15.5,42.0,23.0,32.38826948140329,245.79056125083403,242.5963726027246,234.95531490051465,222.24535990656813
151,21,162,0,5.405400000000004,6.324555320336759,91.41115905621152,13.038404810405298,21.37755832643195,25.317977802344327,26.476404589747453,24.331050121192877,64.93843238021688,43.56604182158393,40.0,32.0,48.0,16.0,24.0,1.0,3.0,16.1245154965971,16.1245154965971,15.5,41.0,23.0,32.2490309931942,244.98367292536048,242.01239637671455,234.61031520374377,223.14345161801185
152,21,163,0,5.438766666666671,6.082762530298219,92.39588735436226,11.180339887498949,21.37755832643195,25.317977802344327,28.442925306655784,25.495097567963924,64.13267497929586,42.7551166528639,39.0,31.0,47.0,14.0,24.0,1.0,3.0,16.278820596099706,16.0312195418814,15.5,41.0,22.0,31.400636936215164,245.5402207378661,241.23847122712414,235.80500418778223,224.35017272112808
153,21,164,0,5.472133333333337,8.54400374531753,88.45903006477066,10.198039027185569,20.223748416156685,24.515301344262525,26.68332812825267,24.515301344262525,63.34824385884742,43.174066289845804,38.0,30.0,46.0,14.0,24.0,1.0,3.0,15.132745950421556,15.033296378372908,15.0,42.0,22.0,31.400636936215164,248.4854120466632,244.38085031360376,236.02754076590298,224.58851261807672
154,21,165,0,5.505500000000004,6.708203932499369,87.86353054595519,10.04987562112089,20.396078054371138,24.515301344262525,26.476404589747453,24.73863375370596,61.61168720299745,41.23105625617661,37.0,30.0,48.0,15.0,21.0,4.0,4.0,15.297058540778355,16.0312195418814,15.5,41.0,21.0,31.400636936215164,247.1113109511582,242.85386552410483,234.30749027719963,223.61797781037194
155,21,166,0,5.538866666666671,8.246211251235321,87.66413177577246,11.180339887498949,19.4164878389476,23.53720459187964,26.68332812825267,23.53720459187964,62.369864518050704,42.95346318982906,38.0,30.0,47.0,15.5,22.5,1.5,3.5,16.278820596099706,16.1245154965971,15.5,42.0,21.0,32.2490309931942,247.50353532828578,243.19539469323837,234.61031520374377,223.14345161801185
156,21,167,0,5.572233333333338,7.280109889280518,83.95236744726142,12.165525060596439,20.396078054371138,22.561028345356956,25.495097567963924,22.80350850198276,62.5859409132754,42.20189569201838,37.5,31.0,49.0,18.0,21.0,4.0,5.0,16.278820596099706,16.0312195418814,16.0,42.0,22.0,32.55764119219941,246.3331078032346,242.01239637671455,233.20591759215716,221.48814866714653
157,21,168,0,5.605600000000004,7.280109889280518,86.88498144098322,12.041594578792296,20.396078054371138,23.345235059857504,25.495097567963924,23.08679276123039,62.5859409132754,42.20189569201838,37.5,30.0,48.0,17.0,22.0,3.0,5.0,16.1245154965971,17.029386365926403,16.5,42.0,21.0,30.4138126514911,247.69537742961614,242.6375898330677,234.07904647789388,222.40728405337808
158,21,169,0,5.638966666666671,6.324555320336759,86.88498144098322,12.165525060596439,22.360679774997898,21.37755832643195,24.73863375370596,23.53720459187964,64.32728814430156,41.97618372363071,38.0,32.0,50.0,18.0,22.0,4.0,5.0,15.297058540778355,16.0312195418814,15.5,42.0,22.0,32.38826948140329,246.71440979399642,240.4703723954367,232.65854809140367,221.71152428324515
159,21,170,0,5.672333333333338,5.385164807134504,84.72307831990054,12.165525060596439,21.37755832643195,21.587033144922902,24.515301344262525,24.515301344262525,63.34824385884742,41.97618372363071,38.5,33.0,50.0,17.5,20.5,5.5,4.5,16.1245154965971,16.0312195418814,15.5,41.0,21.0,32.55764119219941,245.3507693079441,241.03319273494262,232.22833591101667,220.29298672449835
160,21,171,0,5.705700000000005,2.8284271247461903,85.5102333057278,14.142135623730951,23.345235059857504,22.561028345356956,24.515301344262525,23.345235059857504,63.150613615387776,39.81205847478876,38.0,33.0,49.0,18.0,21.0,6.0,3.0,14.560219778561036,16.0312195418814,15.5,42.0,22.0,32.7566787083184,245.96747752497686,241.81191037663964,232.44139046219803,220.73740054644117
161,21,172,0,5.739066666666671,3.605551275463989,84.72307831990054,13.152946437965905,23.194827009486403,22.360679774997898,24.515301344262525,24.331050121192877,63.953107821277925,40.792156108742276,38.5,33.0,50.0,17.5,21.5,5.5,3.5,15.297058540778355,15.033296378372908,15.0,42.0,21.0,31.575306807693888,245.16525039246488,240.8318915758459,233.4180798481557,221.48814866714653
162,21,173,0,5.772433333333338,3.605551275463989,85.90692637965812,14.142135623730951,22.20360331117452,23.345235059857504,24.515301344262525,23.345235059857504,62.96824596572466,40.792156108742276,38.5,33.0,51.0,19.0,20.0,6.0,4.0,14.317821063276353,14.035668847618199,14.0,42.0,21.0,31.575306807693888,245.3507693079441,241.03319273494262,233.63432966925043,222.17110523198104
163,21,174,0,5.805800000000005,5.0990195135927845,88.64536084872124,14.142135623730951,22.20360331117452,25.317977802344327,26.476404589747453,24.331050121192877,65.76473218982953,43.56604182158393,40.5,34.0,51.0,18.5,22.5,3.5,4.5,14.317821063276353,15.132745950421556,14.5,42.0,21.0,31.400636936215164,245.96747752497686,242.01239637671455,234.61031520374377,222.91253890259293
164,21,175,0,5.839166666666672,9.219544457292887,88.45903006477066,14.142135623730951,22.20360331117452,25.317977802344327,27.459060435491963,23.194827009486403,68.73136110975832,46.52956049652737,41.5,34.0,50.0,19.0,26.0,0.0,5.0,14.317821063276353,15.033296378372908,15.0,42.0,22.0,31.575306807693888,245.73359558676546,241.66091947189145,234.53997527074142,223.86156436512275
165,21,176,0,5.8725333333333385,13.152946437965905,88.64536084872124,12.165525060596439,22.360679774997898,25.317977802344327,27.459060435491963,24.08318915758459,71.7007670809734,49.36598018878993,42.5,34.0,51.0,18.5,28.5,2.5,5.5,15.297058540778355,15.132745950421556,15.0,43.0,21.0,31.575306807693888,245.5402207378661,241.23847122712414,235.05318547086316,223.37860237721964
166,21,177,0,5.905900000000005,15.297058540778355,90.4267659490264,13.152946437965905,22.360679774997898,26.30589287593181,29.274562336608895,23.08679276123039,73.824115301167,51.478150704935004,43.5,35.0,51.0,20.0,30.0,4.0,6.0,15.297058540778355,15.132745950421556,14.5,42.0,21.0,31.575306807693888,244.36857408431223,240.26027553467927,232.8797973204202,221.93918085818015
167,21,178,0,5.939266666666672,15.132745950421556,89.62700485902673,13.152946437965905,23.345235059857504,26.30589287593181,29.427877939124322,23.194827009486403,74.81310045707235,51.478150704935004,43.5,34.0,51.0,19.5,31.5,5.5,5.5,14.317821063276353,15.297058540778355,14.5,42.0,20.0,30.59411708155671,245.5402207378661,240.4703723954367,232.8797973204202,220.22715545545242
168,21,179,0,5.972633333333339,16.1245154965971,89.26925562588724,13.152946437965905,22.360679774997898,27.16615541441225,29.274562336608895,23.08679276123039,74.67261881037788,52.3450093132096,44.0,35.0,50.0,19.5,31.5,5.5,6.5,15.132745950421556,15.132745950421556,15.0,43.0,21.0,30.805843601498726,244.75293665245368,240.4703723954367,233.10512649875378,221.43622106602163
169,21,180,0,6.006000000000006,16.1245154965971,88.64536084872124,14.142135623730951,22.20360331117452,27.294688127912362,30.265491900843113,22.20360331117452,74.67261881037788,52.46903848937962,44.0,34.0,51.0,20.5,31.5,5.5,5.5,15.297058540778355,15.132745950421556,15.0,41.0,19.0,30.59411708155671,245.5402207378661,240.4703723954367,233.85465571589546,222.17110523198104
170,21,181,0,6.039366666666672,16.1245154965971,90.4267659490264,13.152946437965905,22.20360331117452,28.284271247461902,32.38826948140329,23.194827009486403,74.67261881037788,52.46903848937962,44.0,35.0,51.0,20.0,31.0,5.0,6.0,15.297058540778355,15.132745950421556,14.5,41.0,20.0,30.59411708155671,245.3507693079441,241.03319273494262,231.9051530259731,221.19900542271884
171,21,182,0,6.072733333333339,16.278820596099706,90.60905032059435,13.152946437965905,22.20360331117452,28.284271247461902,31.400636936215164,23.08679276123039,74.67261881037788,52.46903848937962,44.0,34.0,51.0,19.5,31.5,5.5,6.5,15.297058540778355,16.1245154965971,15.5,41.0,20.0,29.614185789921695,245.3507693079441,241.23847122712414,232.8797973204202,221.19900542271884
172,21,183,0,6.106100000000006,16.1245154965971,90.4267659490264,14.142135623730951,22.20360331117452,27.294688127912362,30.4138126514911,23.08679276123039,75.53806987208503,53.33854141237835,45.0,35.0,51.0,20.0,32.0,6.0,6.0,16.278820596099706,15.132745950421556,15.0,41.0,20.0,31.575306807693888,246.14832926509982,241.23847122712414,232.8797973204202,222.40728405337808
173,21,184,0,6.139466666666673,16.1245154965971,90.60905032059435,14.142135623730951,22.360679774997898,27.294688127912362,29.427877939124322,23.08679276123039,75.66372975210778,53.33854141237835,45.0,35.0,52.0,20.5,31.5,5.5,5.5,14.142135623730951,15.132745950421556,14.5,42.0,21.0,30.59411708155671,245.5402207378661,240.4703723954367,233.33452380648689,222.64770378335368
174,21,185,0,6.172833333333339,16.1245154965971,91.41115905621152,14.035668847618199,21.37755832643195,28.284271247461902,29.427877939124322,22.090722034374522,73.55270219373317,52.23983154643591,44.0,34.0,50.0,20.0,31.0,5.0,6.0,15.132745950421556,15.132745950421556,14.5,41.0,20.0,29.614185789921695,245.16525039246488,240.8318915758459,232.44139046219803,220.73740054644117
175,21,186,0,6.206200000000006,14.317821063276353,93.55746896961247,13.038404810405298,21.213203435596427,28.442925306655784,30.4138126514911,23.194827009486403,71.7007670809734,50.48762224545735,43.0,33.0,50.0,18.5,29.5,3.5,4.5,15.132745950421556,15.132745950421556,14.5,41.0,20.0,30.59411708155671,246.3331078032346,242.21684499637922,233.63432966925043,222.91253890259293
176,21,187,0,6.239566666666673,13.038404810405298,93.38094023943002,14.142135623730951,21.37755832643195,28.284271247461902,30.4138126514911,23.08679276123039,71.56814934033156,50.24937810560445,43.5,33.0,49.0,18.0,30.0,5.0,4.0,14.142135623730951,14.142135623730951,14.0,42.0,20.0,30.59411708155671,244.0,241.03319273494262,233.63432966925043,221.93918085818015
177,21,188,0,6.27293333333334,12.165525060596439,94.36630754670864,13.038404810405298,21.213203435596427,28.284271247461902,30.4138126514911,23.08679276123039,69.46221994724903,48.25971404805462,42.0,32.0,48.0,17.0,29.0,4.0,4.0,14.142135623730951,14.142135623730951,14.0,41.0,20.0,30.4138126514911,245.96747752497686,241.03319273494262,232.65854809140367,221.71152428324515
178,21,189,0,6.306300000000007,11.180339887498949,93.38094023943002,12.165525060596439,22.20360331117452,28.284271247461902,30.4138126514911,24.08318915758459,69.58448102845921,47.38143096192854,41.5,32.0,48.0,16.0,29.0,3.0,3.0,14.317821063276353,15.132745950421556,14.5,42.0,21.0,31.575306807693888,245.16525039246488,241.03319273494262,232.65854809140367,221.93918085818015
179,21,190,0,6.339666666666673,11.180339887498949,95.35197952848173,13.152946437965905,21.213203435596427,29.274562336608895,30.4138126514911,23.08679276123039,68.59300255857006,47.38143096192854,41.5,31.0,47.0,16.0,29.0,4.0,3.0,15.297058540778355,14.142135623730951,14.0,42.0,20.0,30.59411708155671,245.16525039246488,240.05416055548798,232.44139046219803,221.71152428324515
180,21,191,0,6.37303333333334,12.165525060596439,94.54099639838793,12.165525060596439,21.37755832643195,28.442925306655784,31.400636936215164,24.186773244895647,69.87131027825369,48.507731342539614,42.0,31.0,48.0,15.5,29.5,4.5,2.5,13.341664064126334,12.041594578792296,12.5,41.0,20.0,31.575306807693888,246.3331078032346,241.03319273494262,233.63432966925043,222.91253890259293
181,21,192,0,6.406400000000007,8.54400374531753,96.33794683301072,12.041594578792296,23.345235059857504,30.265491900843113,32.55764119219941,24.331050121192877,68.06614430096654,44.721359549995796,40.0,30.0,46.0,14.0,29.0,2.0,2.0,5.830951894845301,6.708203932499369,6.0,41.0,20.0,31.400636936215164,245.3507693079441,242.01239637671455,234.39496581624786,222.46348014898985
182,21,193,0,6.4397666666666735,10.44030650891055,97.49358953285082,11.180339887498949,21.213203435596427,29.427877939124322,31.400636936215164,24.186773244895647,66.91038783328041,45.70557952810576,40.0,29.0,46.0,13.5,28.5,3.5,1.5,4.47213595499958,6.708203932499369,5.5,39.0,20.0,30.59411708155671,245.16525039246488,242.21684499637922,234.61031520374377,223.6604569431083
183,21,194,0,6.47313333333334,12.36931687685298,98.47842403288143,10.198039027185569,21.37755832643195,30.265491900843113,32.55764119219941,24.186773244895647,68.06614430096654,46.69047011971501,40.0,29.0,46.0,13.5,29.5,4.5,2.5,5.385164807134504,6.708203932499369,5.5,41.0,19.0,32.55764119219941,246.14832926509982,242.01239637671455,234.39496581624786,222.6858774148015
184,21,195,0,6.506500000000007,8.246211251235321,97.86214794290998,12.165525060596439,23.345235059857504,29.427877939124322,31.400636936215164,24.331050121192877,68.06614430096654,44.721359549995796,40.0,29.0,48.0,14.5,28.5,1.5,1.5,9.219544457292887,9.486832980505138,8.5,41.0,19.0,31.575306807693888,247.315587862957,242.01239637671455,233.4180798481557,222.24535990656813
185,21,196,0,6.539866666666674,9.219544457292887,97.082439194738,12.165525060596439,22.360679774997898,28.442925306655784,30.59411708155671,25.317977802344327,69.05070600652827,46.69047011971501,41.5,30.0,50.0,15.0,28.0,2.0,2.0,10.198039027185569,10.198039027185569,9.5,40.0,17.0,31.575306807693888,246.71440979399642,242.6375898330677,232.8797973204202,222.17110523198104
186,21,197,0,6.573233333333341,2.23606797749979,94.14881836751856,13.152946437965905,19.4164878389476,26.476404589747453,28.635642126552707,28.442925306655784,63.150613615387776,43.73785545725808,42.0,29.0,49.0,11.0,23.0,1.0,2.0,11.40175425099138,11.40175425099138,11.0,42.0,20.0,30.805843601498726,245.15301344262525,241.12444919584576,233.33452380648689,222.40728405337808
187,21,198,0,6.606600000000007,2.0,94.36630754670864,14.142135623730951,18.439088914585774,27.459060435491963,28.635642126552707,26.476404589747453,59.43904440685432,41.0,40.0,28.0,49.0,12.5,19.5,3.5,2.5,12.36931687685298,12.165525060596439,11.5,41.0,19.0,33.54101966249684,245.93088459971838,242.6375898330677,233.85465571589546,221.93918085818015
188,21,199,0,6.639966666666674,2.23606797749979,93.17188417113823,14.142135623730951,20.396078054371138,26.476404589747453,27.65863337187866,27.459060435491963,64.13267497929586,43.73785545725808,42.0,29.0,49.0,12.0,24.0,2.0,2.0,12.36931687685298,12.165525060596439,12.0,42.0,20.0,31.575306807693888,245.15301344262525,240.9024698918631,233.10512649875378,221.93918085818015
189,21,200,0,6.673333333333341,9.219544457292887,93.17188417113823,13.152946437965905,22.360679774997898,28.442925306655784,31.400636936215164,25.317977802344327,70.03570517957252,47.67598976424087,42.5,30.0,50.0,15.0,29.0,2.0,1.0,12.36931687685298,12.36931687685298,11.5,42.0,20.0,30.59411708155671,244.95101551126504,241.8780684559888,233.10512649875378,222.40728405337808
190,21,201,0,6.706700000000008,12.36931687685298,94.14881836751856,13.152946437965905,23.345235059857504,28.442925306655784,30.4138126514911,25.495097567963924,74.33034373659252,50.99019513592785,44.0,32.0,52.0,17.0,31.0,3.0,3.0,13.341664064126334,12.36931687685298,12.0,42.0,20.0,32.55764119219941,243.77243486497812,240.68444071023785,233.10512649875378,221.19900542271884
191,21,202,0,6.740066666666674,16.278820596099706,96.1041102138717,12.041594578792296,21.37755832643195,28.442925306655784,31.400636936215164,25.495097567963924,75.13321502504735,53.75872022286245,45.0,32.0,52.0,17.0,32.0,6.0,4.0,12.36931687685298,13.152946437965905,12.5,42.0,20.0,31.575306807693888,243.97130978867168,240.68444071023785,232.13142829009604,220.9660607423683
192,21,203,0,6.773433333333341,11.40175425099138,95.12623192369179,12.165525060596439,23.345235059857504,29.614185789921695,30.59411708155671,26.30589287593181,73.16419889536138,49.8196748283246,43.5,33.0,53.0,17.0,29.0,2.0,4.0,13.341664064126334,13.152946437965905,12.5,41.0,19.0,32.7566787083184,244.1741182025646,241.12444919584576,232.36178687555318,221.43622106602163
193,21,204,0,6.806800000000008,9.219544457292887,92.9623579735368,11.180339887498949,19.4164878389476,26.68332812825267,28.635642126552707,26.30589287593181,66.09841147864296,46.69047011971501,41.5,31.0,50.0,14.5,24.5,0.5,1.5,13.341664064126334,13.152946437965905,13.0,42.0,19.0,30.59411708155671,243.97130978867168,239.92707225321615,233.33452380648689,221.43622106602163
194,21,205,0,6.840166666666675,5.385164807134504,93.94147114027967,13.152946437965905,19.4164878389476,28.442925306655784,30.59411708155671,24.331050121192877,62.16912416947821,42.7551166528639,39.5,30.0,49.0,15.5,21.5,2.5,1.5,13.341664064126334,13.152946437965905,13.0,42.0,19.0,30.59411708155671,244.75293665245368,240.68444071023785,231.9051530259731,221.19900542271884
195,21,206,0,6.8735333333333415,3.605551275463989,93.39164844888434,13.152946437965905,20.396078054371138,28.635642126552707,29.832867780352597,25.495097567963924,62.369864518050704,41.97618372363071,39.5,30.0,51.0,15.5,20.5,4.5,1.5,12.36931687685298,13.152946437965905,13.0,42.0,19.0,30.59411708155671,244.75293665245368,240.4703723954367,233.10512649875378,221.93918085818015
196,21,207,0,6.906900000000008,4.47213595499958,92.41753080449618,12.165525060596439,21.37755832643195,27.65863337187866,29.614185789921695,25.495097567963924,63.34824385884742,41.97618372363071,39.0,31.0,52.0,16.5,20.5,5.5,2.5,13.152946437965905,13.152946437965905,13.0,42.0,18.0,30.59411708155671,244.38085031360376,240.14995315427402,233.10512649875378,221.19900542271884
197,21,208,0,6.940266666666675,4.47213595499958,89.49860334105779,13.152946437965905,22.360679774997898,25.709920264364882,27.65863337187866,25.709920264364882,65.5133574166368,43.174066289845804,40.0,31.0,52.0,16.5,22.5,4.5,2.5,13.341664064126334,13.152946437965905,13.0,42.0,19.0,31.575306807693888,244.38085031360376,240.9024698918631,232.13142829009604,220.73740054644117
198,21,209,0,6.973633333333342,5.385164807134504,85.37564055396598,13.152946437965905,22.360679774997898,23.53720459187964,25.495097567963924,24.73863375370596,65.5133574166368,43.174066289845804,39.5,32.0,52.0,18.0,22.0,5.0,4.0,13.341664064126334,13.152946437965905,13.0,42.0,19.0,32.55764119219941,244.95101551126504,240.26027553467927,231.46490014686893,219.31712199461307
199,21,210,0,7.0070000000000086,3.1622776601683795,82.22530024268686,12.165525060596439,22.360679774997898,24.515301344262525,25.709920264364882,25.96150997149434,63.56099432828282,41.23105625617661,38.5,33.0,52.0,17.5,19.5,7.5,4.5,13.341664064126334,13.341664064126334,13.0,42.0,19.0,31.575306807693888,245.15301344262525,239.28226010300054,231.46490014686893,220.29298672449835
200,21,211,0,7.040366666666675,2.8284271247461903,89.26925562588724,13.152946437965905,21.37755832643195,22.561028345356956,24.73863375370596,25.0,61.84658438426491,40.52159917870962,38.0,30.0,50.0,16.0,20.0,5.0,2.0,13.152946437965905,13.152946437965905,13.0,41.0,19.0,31.575306807693888,245.35892076710803,240.4703723954367,232.65854809140367,219.76350925483513
201,21,212,0,7.073733333333342,2.23606797749979,86.58521813797087,14.142135623730951,21.37755832643195,22.80350850198276,25.0,25.0,61.84658438426491,40.52159917870962,38.5,30.0,51.0,16.5,19.5,6.5,0.5,14.317821063276353,14.142135623730951,14.0,41.0,19.0,30.4138126514911,244.1741182025646,240.4703723954367,231.9051530259731,220.9660607423683
202,21,213,0,7.107100000000009,2.8284271247461903,84.64632301523794,15.132745950421556,22.360679774997898,22.561028345356956,24.515301344262525,23.08679276123039,62.81719509815764,40.52159917870962,38.0,31.0,52.0,19.5,19.5,7.5,3.5,14.142135623730951,14.142135623730951,14.0,41.0,19.0,31.575306807693888,245.56872765073325,239.92707225321615,231.9051530259731,219.02054698132775
203,21,214,0,7.140466666666676,4.47213595499958,87.86353054595519,14.142135623730951,21.37755832643195,24.331050121192877,26.68332812825267,23.769728648009426,63.56099432828282,42.20189569201838,39.0,32.0,50.0,18.0,21.0,5.0,4.0,14.142135623730951,13.152946437965905,13.0,40.0,19.0,31.400636936215164,246.33716731342025,240.68444071023785,231.9051530259731,218.56349191939628
204,21,215,0,7.173833333333342,5.830951894845301,90.24411338142782,13.152946437965905,22.360679774997898,26.476404589747453,28.442925306655784,22.561028345356956,63.56099432828282,41.23105625617661,37.5,31.0,51.0,19.0,21.0,5.0,5.0,14.142135623730951,13.152946437965905,13.0,41.0,19.0,31.400636936215164,246.33716731342025,240.9024698918631,232.13142829009604,220.22715545545242
205,21,216,0,7.207200000000009,3.605551275463989,95.12623192369179,12.165525060596439,21.37755832643195,27.459060435491963,29.614185789921695,24.515301344262525,61.39218191268331,40.024992192379,37.5,30.0,50.0,16.0,20.0,5.0,3.0,13.341664064126334,13.038404810405298,13.0,41.0,18.0,30.59411708155671,245.78242410717655,241.3503677229434,232.59621665022843,222.17110523198104
206,21,217,0,7.240566666666676,4.47213595499958,97.082439194738,12.165525060596439,19.4164878389476,28.442925306655784,29.614185789921695,23.769728648009426,59.665735560705194,40.26164427839479,37.0,29.0,49.0,16.0,19.0,5.0,3.0,13.152946437965905,14.142135623730951,13.5,42.0,18.0,31.575306807693888,245.78242410717655,240.3767875648562,233.33452380648689,223.37860237721964
207,21,218,0,7.273933333333343,3.605551275463989,98.71676655968832,11.180339887498949,20.615528128088304,30.59411708155671,31.575306807693888,24.515301344262525,59.665735560705194,39.05124837953327,36.5,27.0,50.0,14.5,19.5,5.5,1.5,8.246211251235321,8.54400374531753,8.0,42.0,16.0,31.78049716414141,245.246814454337,241.0808992848666,233.32380932943812,223.3942702935776
208,21,219,0,7.3073000000000095,5.0,98.71676655968832,12.165525060596439,19.4164878389476,28.635642126552707,30.805843601498726,23.769728648009426,59.90826320300064,40.52159917870962,37.0,27.0,50.0,15.5,19.5,4.5,2.5,6.324555320336759,6.708203932499369,5.5,42.0,17.0,32.01562118716424,245.20399670478457,239.88538930080756,231.89652865017192,222.4275162833951
209,21,220,0,7.340666666666676,5.830951894845301,97.01546268507923,11.180339887498949,20.615528128088304,29.614185789921695,31.78049716414141,24.73863375370596,62.0966987850401,41.48493702538308,37.5,28.0,52.0,16.0,20.0,5.0,3.0,7.280109889280518,8.54400374531753,7.5,43.0,16.0,32.7566787083184,243.02263269086689,238.66503723838562,230.93072554339753,221.02036105300343
210,21,221,0,7.374033333333343,5.830951894845301,93.14504817756014,11.180339887498949,20.396078054371138,28.635642126552707,31.04834939252005,23.769728648009426,60.876925020897694,40.52159917870962,36.5,27.0,51.0,16.0,20.0,5.0,3.0,9.486832980505138,10.44030650891055,9.5,42.0,14.0,30.805843601498726,245.446531855718,239.43683927081898,231.7282891664287,220.8800579500105
211,21,222,0,7.40740000000001,2.8284271247461903,92.44457799135652,12.165525060596439,21.587033144922902,27.892651361962706,29.120439557122072,23.08679276123039,59.20304046246274,37.64306044943742,35.0,25.0,50.0,15.5,19.5,6.5,1.5,11.40175425099138,11.40175425099138,10.5,43.0,13.0,29.832867780352597,246.19707553096563,240.66574330386118,232.0021551624036,221.56263222845138
212,21,223,0,7.440766666666676,2.8284271247461903,87.28115489611719,13.341664064126334,21.587033144922902,26.68332812825267,28.160255680657446,22.135943621178654,59.481089431852205,37.94733192202055,35.0,26.0,53.0,18.5,17.5,8.5,4.5,12.36931687685298,12.36931687685298,11.5,44.0,12.0,29.410882339705484,245.60130292814003,239.5600133578223,230.9328906847182,219.24643668712156
213,21,224,0,7.474133333333343,4.242640687119285,84.75848040166836,14.317821063276353,21.587033144922902,24.041630560342615,26.248809496813376,20.248456731316587,59.77457653551382,38.27531841800928,34.5,27.0,55.0,22.0,16.0,11.0,6.0,13.341664064126334,13.341664064126334,12.5,46.0,13.0,31.04834939252005,246.5623653358314,240.52026941611388,232.28000344411913,221.16283593768642
214,21,225,0,7.50750000000001,5.0,83.81527307120105,15.297058540778355,23.769728648009426,23.08679276123039,25.0,18.384776310850235,61.98386886924694,38.27531841800928,34.0,27.0,55.0,24.0,18.0,10.0,7.0,13.341664064126334,13.341664064126334,12.5,46.0,12.0,29.120439557122072,246.84002916869053,241.0850472343733,231.89006015782564,220.49263026232873
215,21,226,0,7.540866666666677,6.708203932499369,82.54089895318563,14.317821063276353,23.769728648009426,22.135943621178654,25.0,18.384776310850235,62.93647591023825,39.21734310225516,34.0,27.0,54.0,23.5,19.5,8.5,6.5,14.317821063276353,14.317821063276353,13.5,46.0,13.0,31.04834939252005,246.73872821265817,241.66505746590673,232.18096390531244,219.82947936980608
216,21,227,0,7.574233333333344,2.8284271247461903,79.37883848986453,16.278820596099706,25.709920264364882,21.18962010041709,23.40939982143925,19.313207915827967,63.60031446463138,37.94733192202055,35.0,29.0,55.0,24.0,19.0,11.0,6.0,13.341664064126334,14.142135623730951,13.5,45.0,13.0,32.01562118716424,246.28844877500853,240.52026941611388,232.28000344411913,220.8800579500105
217,21,228,0,7.60760000000001,3.1622776601683795,81.27115109311545,15.297058540778355,23.53720459187964,22.80350850198276,25.298221281347036,21.18962010041709,61.68468205316454,38.27531841800928,35.5,30.0,56.0,23.0,16.0,12.0,6.0,13.341664064126334,13.341664064126334,13.0,44.0,12.0,31.04834939252005,247.68124676688785,241.89667215569543,232.96351645697658,220.60145058453264
218,21,229,0,7.640966666666677,2.23606797749979,82.86132994346639,14.142135623730951,21.840329667841555,24.041630560342615,25.0,22.135943621178654,59.481089431852205,37.64306044943742,35.5,30.0,55.0,21.5,14.5,12.5,5.5,13.341664064126334,14.317821063276353,13.5,44.0,12.0,29.120439557122072,247.94555854057964,240.24362634625712,232.28000344411913,221.56263222845138
219,21,230,0,7.674333333333344,3.0,87.36131867136622,14.317821063276353,22.561028345356956,25.0,25.96150997149434,23.769728648009426,61.40032573203501,38.897300677553446,37.0,30.0,54.0,19.0,17.0,10.0,2.0,14.317821063276353,15.132745950421556,14.5,43.0,12.0,32.984845004941285,245.48930730278255,239.43683927081898,231.4584195919431,221.28940327092033
220,21,231,0,7.707700000000011,3.1622776601683795,88.88756943465155,15.297058540778355,22.561028345356956,25.96150997149434,27.892651361962706,22.561028345356956,62.0966987850401,39.56008088970496,37.5,30.0,56.0,21.0,17.0,10.0,4.0,15.297058540778355,15.297058540778355,14.5,44.0,13.0,29.832867780352597,246.28844877500853,240.52026941611388,231.0411218809327,219.92044015961773
221,21,232,0,7.741066666666677,3.605551275463989,86.68333173107735,14.317821063276353,22.80350850198276,24.73863375370596,26.92582403567252,24.041630560342615,64.5600495662759,41.7612260356422,38.5,31.0,56.0,20.5,18.5,8.5,4.5,15.297058540778355,15.297058540778355,14.5,44.0,13.0,32.01562118716424,244.36448187083164,239.5600133578223,231.32012450281968,219.24643668712156
222,21,233,0,7.774433333333344,3.605551275463989,86.40023148117139,14.317821063276353,23.53720459187964,24.73863375370596,26.92582403567252,24.73863375370596,65.25335240430181,41.7612260356422,39.0,32.0,56.0,20.0,19.0,9.0,4.0,14.317821063276353,14.317821063276353,13.5,44.0,14.0,32.28002478313795,245.3263133053607,239.5600133578223,231.32012450281968,218.96118377465902
223,21,234,0,7.807800000000011,3.605551275463989,85.72630868059116,15.297058540778355,22.561028345356956,23.769728648009426,26.92582403567252,24.73863375370596,65.25335240430181,42.720018726587654,40.0,33.0,58.0,21.5,17.5,9.5,4.5,15.524174696260024,15.297058540778355,14.5,43.0,12.0,32.984845004941285,246.19707553096563,239.70189819857498,231.4584195919431,219.09358730916796
224,21,235,0,7.841166666666678,2.23606797749979,88.32326986700618,15.132745950421556,21.840329667841555,24.73863375370596,27.202941017470888,23.769728648009426,62.0966987850401,40.26164427839479,38.5,31.0,55.0,20.0,17.0,10.0,3.0,15.297058540778355,15.132745950421556,14.5,44.0,14.0,31.04834939252005,245.75190741884384,239.97083156083784,230.2281477143922,218.82641522448793
225,21,236,0,7.874533333333344,2.0,89.56003573022959,14.317821063276353,21.587033144922902,25.0,27.202941017470888,24.73863375370596,61.1310068623117,39.56008088970496,38.0,30.0,55.0,18.5,16.5,9.5,1.5,16.278820596099706,15.132745950421556,14.5,43.0,13.0,32.984845004941285,245.48930730278255,239.43683927081898,230.2281477143922,219.09358730916796
226,21,237,0,7.907900000000011,3.0,91.76055797563569,13.341664064126334,20.615528128088304,25.96150997149434,26.92582403567252,24.515301344262525,59.20304046246274,38.600518131237564,37.0,28.0,54.0,17.0,16.0,9.0,1.0,14.317821063276353,15.132745950421556,14.0,44.0,14.0,32.01562118716424,245.0550958458118,239.28226010300054,230.76611536358627,218.96118377465902
227,21,238,0,7.941266666666678,2.23606797749979,92.44457799135652,15.297058540778355,20.615528128088304,25.0,27.202941017470888,24.73863375370596,60.166435825965294,39.56008088970496,38.5,29.0,54.0,17.5,16.5,8.5,0.5,15.297058540778355,15.297058540778355,14.5,43.0,13.0,32.01562118716424,245.75190741884384,239.97083156083784,230.76611536358627,219.92044015961773
228,21,239,0,7.974633333333345,3.0,94.64142856064674,14.317821063276353,22.360679774997898,25.709920264364882,28.861739379323623,25.709920264364882,63.06346010171025,40.80441152620633,39.0,28.0,54.0,16.0,20.0,8.0,1.0,14.317821063276353,14.317821063276353,13.5,44.0,14.0,32.28002478313795,245.60130292814003,241.0850472343733,232.18096390531244,222.03603311174518
229,21,240,0,8.008000000000012,5.0,95.33624704172071,13.341664064126334,21.587033144922902,25.96150997149434,27.892651361962706,25.709920264364882,65.25335240430181,43.68065933568311,40.0,28.0,53.0,15.5,22.5,3.5,0.5,14.317821063276353,14.142135623730951,14.0,46.0,16.0,32.984845004941285,244.787663087828,240.24362634625712,231.0411218809327,220.8800579500105
230,21,241,0,8.041366666666677,5.0,96.04686356149273,13.341664064126334,20.615528128088304,25.709920264364882,27.892651361962706,25.495097567963924,64.03124237432849,43.41658669218482,40.0,29.0,53.0,16.0,21.0,4.0,1.0,14.317821063276353,14.317821063276353,13.5,45.0,15.0,32.984845004941285,246.01829200285087,240.52026941611388,232.28000344411913,219.92044015961773
231,21,242,0,8.074733333333343,2.23606797749979,96.04686356149273,13.152946437965905,18.681541692269406,25.709920264364882,28.160255680657446,26.476404589747453,59.665735560705194,41.0,39.5,28.0,52.0,14.0,18.0,5.0,1.0,14.317821063276353,14.142135623730951,13.5,44.0,14.0,32.984845004941285,245.75190741884384,239.97083156083784,231.7282891664287,220.60145058453264
232,21,243,0,8.10810000000001,2.0,96.30160954002794,13.152946437965905,18.439088914585774,26.92582403567252,29.120439557122072,25.709920264364882,57.723478758647246,39.293765408777,38.0,26.0,51.0,13.5,17.5,5.5,1.5,15.297058540778355,15.132745950421556,14.5,45.0,15.0,32.01562118716424,244.72433471152803,240.14162487998618,230.93072554339753,220.75552088226468
233,21,244,0,8.141466666666675,2.0,94.83142938920619,14.317821063276353,19.4164878389476,24.73863375370596,26.92582403567252,25.495097567963924,59.665735560705194,40.26164427839479,39.0,28.0,51.0,14.5,18.5,4.5,1.5,15.297058540778355,15.297058540778355,14.5,45.0,15.0,31.04834939252005,244.97550897997945,240.66574330386118,231.7282891664287,220.60145058453264
234,21,245,0,8.174833333333341,5.830951894845301,96.04686356149273,14.142135623730951,20.396078054371138,26.476404589747453,29.832867780352597,25.709920264364882,65.73431371817918,45.35416188179427,41.5,28.0,52.0,15.0,24.0,1.0,0.0,14.317821063276353,14.142135623730951,13.5,45.0,15.0,31.04834939252005,246.45486402179202,241.20530674095875,232.96351645697658,222.80035906613796
235,21,246,0,8.208200000000007,8.54400374531753,94.83142938920619,12.165525060596439,21.587033144922902,26.68332812825267,29.832867780352597,26.68332812825267,68.8839603971781,47.29693436154187,42.0,30.0,53.0,15.5,25.5,0.5,2.5,15.297058540778355,15.132745950421556,14.5,45.0,15.0,32.984845004941285,245.2305038122297,240.9336008115099,232.0021551624036,220.60145058453264
236,21,247,0,8.241566666666673,9.486832980505138,95.0789145920377,12.165525060596439,20.615528128088304,26.68332812825267,28.635642126552707,25.709920264364882,67.91170738539859,47.29693436154187,41.5,29.0,53.0,16.0,25.0,0.0,2.0,14.317821063276353,14.317821063276353,13.5,44.0,14.0,32.01562118716424,246.9109151090733,242.33241632105268,232.42202993692314,220.05681084665386
237,21,248,0,8.274933333333339,6.324555320336759,96.04686356149273,12.36931687685298,21.587033144922902,26.68332812825267,29.832867780352597,26.68332812825267,66.94027188471824,45.35416188179427,41.0,29.0,53.0,15.0,24.0,2.0,2.0,14.317821063276353,15.132745950421556,14.5,45.0,15.0,32.28002478313795,244.97550897997945,240.66574330386118,231.4584195919431,221.28940327092033
238,21,249,0,8.308300000000004,4.242640687119285,96.04686356149273,13.152946437965905,20.396078054371138,26.92582403567252,28.861739379323623,25.709920264364882,62.81719509815764,42.44997055358225,39.5,28.0,52.0,15.0,21.0,4.0,0.0,14.560219778561036,14.317821063276353,13.5,45.0,16.0,32.01562118716424,244.5240274492468,239.70189819857498,231.7282891664287,220.32702966272657
239,21,250,0,8.34166666666667,3.605551275463989,96.04686356149273,13.152946437965905,19.6468827043885,27.65863337187866,28.861739379323623,24.73863375370596,60.876925020897694,41.23105625617661,38.5,26.0,50.0,14.0,21.0,4.0,0.0,15.297058540778355,15.297058540778355,14.5,44.0,15.0,31.32091952673165,245.20399670478457,239.88538930080756,230.93072554339753,220.75552088226468
240,21,251,0,8.375033333333336,4.242640687119285,95.0789145920377,12.165525060596439,20.396078054371138,27.65863337187866,29.120439557122072,24.73863375370596,60.876925020897694,40.52159917870962,37.5,26.0,50.0,14.0,21.0,4.0,0.0,14.142135623730951,15.132745950421556,14.5,43.0,14.0,31.04834939252005,245.446531855718,240.85265205099984,232.15727427758966,221.98423367437607
241,21,252,0,8.408400000000002,2.8284271247461903,94.59386872308374,12.36931687685298,19.4164878389476,27.65863337187866,29.120439557122072,24.515301344262525,58.69412236331676,39.293765408777,37.0,26.0,48.0,13.0,20.0,4.0,0.0,14.317821063276353,14.317821063276353,14.0,43.0,15.0,31.04834939252005,245.446531855718,241.10785968109792,232.15727427758966,220.05681084665386
242,21,253,0,8.441766666666668,2.23606797749979,94.83142938920619,12.36931687685298,20.396078054371138,28.635642126552707,30.805843601498726,24.515301344262525,58.69412236331676,38.3275357934736,36.5,26.0,49.0,13.5,19.5,6.5,0.5,15.297058540778355,15.132745950421556,14.5,44.0,16.0,29.832867780352597,246.9088900789115,242.53865671269807,234.54210709380095,223.14121089570165
243,21,254,0,8.475133333333334,3.605551275463989,95.0789145920377,12.165525060596439,20.396078054371138,26.68332812825267,28.861739379323623,24.515301344262525,59.665735560705194,39.293765408777,37.0,27.0,51.0,15.0,19.0,6.0,1.0,14.317821063276353,15.132745950421556,14.5,43.0,15.0,30.805843601498726,245.20399670478457,239.88538930080756,231.89652865017192,220.4948979001555
244,21,255,0,8.5085,2.23606797749979,94.83142938920619,13.152946437965905,19.6468827043885,25.709920264364882,27.892651361962706,22.561028345356956,56.753854494650845,37.107950630558946,35.5,25.0,48.0,14.5,18.5,5.5,0.5,15.297058540778355,15.132745950421556,14.5,44.0,16.0,31.04834939252005,245.20399670478457,240.6013300046365,232.606964642076,221.46105752479374
245,21,256,0,8.541866666666666,2.0,94.59386872308374,13.152946437965905,18.439088914585774,26.68332812825267,29.120439557122072,24.515301344262525,56.515484603779164,38.07886552931954,37.0,26.0,48.0,13.0,18.0,5.0,1.0,14.317821063276353,15.132745950421556,14.5,44.0,17.0,29.832867780352597,245.20399670478457,240.35390573069537,231.38712150852302,220.9547464980103
246,21,257,0,8.575233333333331,2.0,92.64987857520376,13.152946437965905,19.6468827043885,25.495097567963924,27.892651361962706,23.53720459187964,56.753854494650845,37.107950630558946,36.0,26.0,48.0,14.0,18.0,5.0,0.0,14.142135623730951,15.297058540778355,14.5,43.0,16.0,30.805843601498726,243.9938523815713,240.35390573069537,230.41918322917473,220.238507078122
247,21,258,0,8.608599999999997,2.0,94.36630754670864,13.152946437965905,19.4164878389476,25.495097567963924,26.68332812825267,23.53720459187964,56.515484603779164,37.107950630558946,36.0,26.0,47.0,13.5,18.5,5.5,0.5,15.297058540778355,15.297058540778355,14.5,42.0,14.0,31.04834939252005,244.7304639802736,240.8422720371156,231.8641843838759,220.70795182774907
248,21,259,0,8.641966666666663,1.4142135623730951,94.59386872308374,12.36931687685298,19.6468827043885,25.709920264364882,28.861739379323623,23.769728648009426,57.0087712549569,37.36308338453881,35.5,25.0,47.0,13.0,19.0,6.0,0.0,15.524174696260024,16.1245154965971,15.0,44.0,16.0,32.01562118716424,246.1747346906258,241.82018112638985,232.86262044390037,222.9484245290825
249,21,260,0,8.67533333333333,2.8284271247461903,92.64987857520376,12.165525060596439,19.6468827043885,25.709920264364882,26.68332812825267,23.769728648009426,57.97413216254298,38.3275357934736,36.0,26.0,48.0,14.0,19.0,6.0,1.0,14.317821063276353,14.142135623730951,14.0,43.0,15.0,31.04834939252005,244.96530366564158,240.35390573069537,231.38712150852302,221.20578654275752
250,21,261,0,8.708699999999995,2.8284271247461903,91.67878707749138,12.36931687685298,20.615528128088304,25.709920264364882,26.92582403567252,23.53720459187964,58.9406481131655,38.3275357934736,36.0,26.0,48.0,14.0,20.0,5.0,1.0,14.317821063276353,16.1245154965971,15.0,44.0,15.0,31.04834939252005,246.4163143949686,242.0743687382041,233.1222855069845,222.9484245290825
251,21,262,0,8.74206666666666,2.8284271247461903,93.62157870918435,13.341664064126334,21.587033144922902,24.73863375370596,26.68332812825267,22.561028345356956,59.90826320300064,38.3275357934736,36.0,26.0,48.0,15.0,21.0,5.0,1.0,15.297058540778355,15.132745950421556,15.0,44.0,16.0,32.01562118716424,245.69289774024807,241.10785968109792,231.4584195919431,220.32702966272657
252,21,263,0,8.775433333333327,2.8284271247461903,92.41753080449618,12.36931687685298,21.587033144922902,27.65863337187866,28.861739379323623,24.331050121192877,60.63827174318213,39.05124837953327,37.0,27.0,48.0,13.5,21.5,4.5,0.5,16.492422502470642,16.0312195418814,15.0,45.0,16.0,31.04834939252005,243.7580767892625,240.35390573069537,231.38712150852302,220.238507078122
253,21,264,0,8.808799999999993,4.47213595499958,95.56673061269805,11.40175425099138,21.587033144922902,25.709920264364882,27.892651361962706,25.495097567963924,62.81719509815764,41.23105625617661,38.0,27.0,49.0,13.0,23.0,3.0,0.0,14.317821063276353,15.132745950421556,14.5,46.0,17.0,32.28002478313795,244.7304639802736,241.32343441945292,232.606964642076,220.75552088226468
254,21,265,0,8.842166666666659,7.615773105863909,96.54014708917737,11.180339887498949,20.396078054371138,27.65863337187866,29.832867780352597,25.709920264364882,64.76109943476871,44.384682042344295,39.5,28.0,50.0,14.0,24.0,1.0,2.0,16.492422502470642,16.1245154965971,15.5,46.0,18.0,30.805843601498726,244.96530366564158,241.82018112638985,232.606964642076,221.72054483064937
255,21,266,0,8.875533333333324,8.246211251235321,96.317184344228,11.40175425099138,20.615528128088304,27.65863337187866,28.635642126552707,24.515301344262525,64.76109943476871,44.14748010928823,39.0,28.0,49.0,14.5,24.5,0.5,1.5,15.524174696260024,15.132745950421556,15.0,45.0,18.0,31.04834939252005,245.70307283385773,241.32343441945292,232.606964642076,221.46105752479374
256,21,267,0,8.90889999999999,9.486832980505138,94.14881836751856,12.165525060596439,20.615528128088304,26.476404589747453,29.614185789921695,24.515301344262525,66.70832032063167,46.09772228646444,40.5,30.0,50.0,16.0,25.0,0.0,3.0,15.297058540778355,16.1245154965971,15.0,46.0,19.0,32.984845004941285,245.0244885720609,241.81397809059757,233.0772404161333,222.89235069871734
257,21,268,0,8.942266666666656,9.486832980505138,96.1041102138717,11.180339887498949,20.615528128088304,27.459060435491963,29.614185789921695,25.495097567963924,66.70832032063167,46.09772228646444,40.5,29.0,49.0,14.0,26.0,1.0,2.0,14.317821063276353,15.132745950421556,14.5,44.0,18.0,31.78049716414141,245.0244885720609,241.81397809059757,232.83470531688354,221.6776939613005
258,21,269,0,8.975633333333322,8.54400374531753,97.082439194738,12.165525060596439,20.396078054371138,27.65863337187866,30.59411708155671,25.709920264364882,66.70832032063167,46.32493928760188,41.0,30.0,50.0,15.0,25.0,0.0,2.0,14.142135623730951,15.132745950421556,14.0,43.0,18.0,31.78049716414141,244.80604567698077,240.14995315427402,231.1579546543878,220.22715545545242
259,21,270,0,9.008999999999988,6.708203932499369,96.88137075826292,12.165525060596439,20.396078054371138,27.65863337187866,29.614185789921695,26.30589287593181,65.30696746902278,44.91102314577124,41.0,30.0,49.0,13.5,24.5,0.5,0.5,15.297058540778355,15.132745950421556,14.5,44.0,19.0,31.78049716414141,245.35892076710803,241.12444919584576,232.13142829009604,219.9931817125249
260,21,271,0,9.042366666666654,4.47213595499958,95.90099061010788,11.180339887498949,20.396078054371138,27.459060435491963,29.427877939124322,26.30589287593181,62.16912416947821,41.773197148410844,39.0,29.0,48.0,12.5,22.5,1.5,0.5,14.142135623730951,14.142135623730951,13.5,43.0,18.0,28.635642126552707,245.15301344262525,240.68444071023785,232.65854809140367,221.93918085818015
261,21,272,0,9.07573333333332,2.8284271247461903,96.88137075826292,13.152946437965905,19.4164878389476,28.284271247461902,29.427877939124322,26.30589287593181,61.18823416311342,41.773197148410844,40.0,30.0,49.0,13.5,20.5,3.5,0.5,14.317821063276353,15.132745950421556,14.5,43.0,19.0,29.614185789921695,244.95101551126504,240.4703723954367,232.65854809140367,220.29298672449835
262,21,273,0,9.109099999999986,2.8284271247461903,96.6902270139025,13.152946437965905,20.396078054371138,27.459060435491963,28.442925306655784,26.1725046566048,61.98386886924694,41.593268686170845,40.0,30.0,48.0,13.0,22.0,3.0,1.0,13.152946437965905,13.152946437965905,13.0,42.0,19.0,29.614185789921695,244.95101551126504,240.4703723954367,231.68297304722245,220.5130381632796
263,21,274,0,9.142466666666651,4.123105625617661,95.70788891204319,13.152946437965905,21.37755832643195,28.442925306655784,30.4138126514911,26.30589287593181,64.93843238021688,43.56604182158393,41.0,31.0,49.0,14.0,24.0,1.0,0.0,7.615773105863909,7.615773105863909,7.0,40.0,18.0,31.575306807693888,245.93088459971838,241.66091947189145,233.85465571589546,222.91253890259293
264,21,275,0,9.175833333333316,6.324555320336759,96.5090669315583,12.165525060596439,21.37755832643195,28.442925306655784,30.265491900843113,26.30589287593181,66.09841147864296,44.721359549995796,41.0,32.0,49.0,14.5,24.5,0.5,1.5,4.47213595499958,6.708203932499369,5.0,42.0,21.0,31.400636936215164,246.71440979399642,242.21684499637922,233.4180798481557,223.6604569431083
265,21,276,0,9.209199999999983,4.47213595499958,98.3107318658548,12.165525060596439,21.213203435596427,28.284271247461902,29.274562336608895,26.30589287593181,63.953107821277925,42.7551166528639,40.0,31.0,47.0,13.0,24.0,1.0,1.0,4.47213595499958,5.385164807134504,4.5,42.0,21.0,31.400636936215164,245.5402207378661,242.21684499637922,234.61031520374377,223.6604569431083
266,21,277,0,9.242566666666647,4.47213595499958,97.67292357659824,10.04987562112089,19.4164878389476,29.274562336608895,31.400636936215164,25.317977802344327,59.033888572581766,39.6232255123179,37.0,28.0,46.0,12.0,21.0,3.0,2.0,5.385164807134504,5.830951894845301,4.5,40.0,20.0,31.575306807693888,246.95141222515818,240.63457773146402,233.77339455121918,223.22186272854188
267,21,278,0,9.275933333333317,4.47213595499958,95.70788891204319,9.219544457292887,18.439088914585774,30.4138126514911,31.400636936215164,25.317977802344327,57.271284253105414,38.8329756778952,36.0,28.0,46.0,12.0,19.0,4.0,2.0,7.280109889280518,8.54400374531753,7.0,40.0,19.0,30.4138126514911,246.95141222515818,242.404620418011,233.77339455121918,223.98660674245681
268,21,279,0,9.30929999999998,4.47213595499958,94.54099639838793,11.180339887498949,19.4164878389476,28.284271247461902,30.265491900843113,23.345235059857504,58.249463516842795,38.8329756778952,36.0,29.0,46.0,14.5,19.5,4.5,3.5,8.246211251235321,8.246211251235321,8.0,40.0,20.0,31.400636936215164,247.315587862957,242.01239637671455,234.39496581624786,223.22186272854188
269,21,280,0,9.342666666666648,5.385164807134504,91.41115905621152,11.180339887498949,20.396078054371138,29.274562336608895,30.265491900843113,23.53720459187964,60.41522986797286,40.024992192379,36.5,30.0,46.0,15.0,21.0,4.0,4.0,9.219544457292887,10.44030650891055,9.5,41.0,22.0,29.427877939124322,247.759964481754,241.2343259156955,232.20680437919987,221.21934815924217
270,21,281,0,9.376033333333313,6.082762530298219,89.26925562588724,12.165525060596439,20.223748416156685,26.30589287593181,27.294688127912362,22.561028345356956,61.0,40.792156108742276,37.0,31.0,46.0,16.5,21.5,3.5,4.5,10.198039027185569,9.219544457292887,8.5,41.0,23.0,30.265491900843113,247.25695136840946,242.8373941550189,234.96808293893875,222.9910312097776
271,21,282,0,9.409399999999978,6.324555320336759,90.2551937563706,11.045361017187261,21.213203435596427,26.30589287593181,27.294688127912362,22.360679774997898,60.8276253029822,39.6232255123179,36.0,31.0,46.0,16.5,21.5,4.5,4.5,7.0710678118654755,7.280109889280518,6.5,40.0,23.0,31.25699921617557,248.766959220874,243.14810301542556,234.43762496664223,222.27235545609355
272,21,283,0,9.442766666666644,2.23606797749979,90.2551937563706,13.038404810405298,21.213203435596427,26.30589287593181,27.459060435491963,22.360679774997898,57.87054518492115,36.6742416417845,35.5,31.0,46.0,16.5,18.5,6.5,3.5,6.082762530298219,6.324555320336759,6.0,39.0,25.0,30.14962686336267,247.212459232944,241.69609016283238,233.78836583542818,222.76669409945464
273,21,284,0,9.47613333333331,1.4142135623730951,93.90420650854784,13.038404810405298,20.223748416156685,26.30589287593181,27.294688127912362,23.194827009486403,57.55866572463264,37.33630940518894,36.5,29.0,42.0,12.5,21.5,3.5,0.5,5.385164807134504,6.708203932499369,6.0,38.0,26.0,30.14962686336267,246.82990094394967,243.38652386687312,235.76471322061747,226.0486673263083
274,21,285,0,9.509499999999976,2.23606797749979,95.63472172804185,13.038404810405298,21.213203435596427,28.071337695236398,29.154759474226502,25.317977802344327,61.66036003787198,40.44749683231337,39.0,32.0,43.0,12.5,23.5,1.5,0.5,4.123105625617661,6.082762530298219,5.5,37.0,28.0,34.058772731852805,244.49539872971025,240.87548650703334,233.3452377915607,223.75432956704995
275,21,286,0,9.542866666666642,4.123105625617661,97.32933781753577,13.038404810405298,23.08679276123039,29.068883707497267,31.064449134018133,25.179356624028344,65.37583651472461,42.2965719651132,40.0,36.0,44.0,15.0,25.0,1.0,3.0,4.123105625617661,5.0990195135927845,5.0,37.0,30.0,33.06055050963308,243.9938523815713,240.4100663449848,232.69078194032525,222.03603311174518
276,21,287,0,9.576233333333308,8.246211251235321,96.18731725128839,13.0,21.095023109728988,29.017236257093817,30.01666203960727,25.079872407968907,67.26812023536856,46.17358552246078,42.0,39.0,45.0,17.0,25.0,1.0,5.0,7.0710678118654755,8.06225774829855,7.5,35.0,29.0,34.0147027033899,245.58908770545975,241.91320757660174,234.13244115243833,223.51733713517615
277,21,288,0,9.609599999999974,7.0710678118654755,97.04638066409278,13.038404810405298,21.02379604162864,30.0,32.01562118716424,25.0,66.06814663663572,45.044422518220834,41.5,40.0,43.0,16.5,24.5,1.5,5.5,9.0,9.055385138137417,8.5,34.0,32.0,33.015148038438355,246.24581214713075,241.53053637169774,234.69128658729537,222.81157959136684
278,21,289,0,9.64296666666664,6.0,96.0,13.0,21.02379604162864,29.0,31.016124838541646,26.0,66.007575322837,45.0,42.0,42.0,42.0,16.0,24.0,1.0,5.0,11.0,11.045361017187261,10.5,32.0,33.0,32.0,247.0323865407125,242.1672975444868,234.30749027719963,223.37860237721964
279,21,290,0,9.676333333333304,6.0,97.02061636580135,13.038404810405298,21.02379604162864,29.017236257093817,31.016124838541646,26.019223662515376,66.007575322837,45.044422518220834,42.0,43.0,41.0,16.0,24.0,2.0,5.0,12.0,12.0,11.5,31.0,35.0,33.015148038438355,245.0081631293129,241.0082986123092,234.01922997907673,223.0560467685196
280,21,291,0,9.709699999999971,5.0,94.19129471453293,14.035668847618199,21.0,29.017236257093817,30.01666203960727,25.019992006393608,65.03076195155643,44.04543109109048,41.5,45.0,39.0,17.0,23.0,1.0,5.0,13.038404810405298,12.041594578792296,11.5,28.0,36.0,34.132096331752024,245.20399670478457,240.0749882849107,233.05364189387817,222.00900882621858
281,21,292,0,9.743066666666635,5.0990195135927845,94.53041838477179,14.035668847618199,23.021728866442675,27.073972741361768,30.066592756745816,23.08679276123039,65.19202405202648,42.190046219457976,39.5,45.0,35.0,17.0,25.0,2.0,5.0,12.165525060596439,12.041594578792296,12.0,25.0,39.0,33.24154027718932,243.9938523815713,239.67686580060246,232.48440807933767,223.32263655975405
282,21,293,0,9.776433333333305,6.082762530298219,94.76286192385707,14.035668847618199,21.095023109728988,28.284271247461902,29.274562336608895,24.186773244895647,65.37583651472461,44.28317965096906,41.0,47.0,35.0,17.0,24.0,3.0,6.0,13.152946437965905,13.341664064126334,13.0,23.0,41.0,33.54101966249684,245.8373446000424,241.40422531513403,234.13244115243833,224.72205054244233
283,21,294,0,9.809799999999967,6.082762530298219,95.35197952848173,14.142135623730951,21.095023109728988,26.476404589747453,29.427877939124322,23.345235059857504,64.6297145282261,43.56604182158393,40.0,48.0,32.0,17.0,24.0,4.0,7.0,14.142135623730951,13.341664064126334,13.0,20.0,42.0,32.55764119219941,245.2835094334717,241.54916683772686,234.92339176846565,223.40322289528413
284,21,295,0,9.843166666666637,6.082762530298219,94.14881836751856,13.152946437965905,21.37755832643195,26.68332812825267,28.635642126552707,24.515301344262525,65.11528238439882,43.73785545725808,40.0,50.0,30.0,16.0,24.0,4.0,7.0,13.341664064126334,12.36931687685298,12.0,19.0,45.0,34.20526275297414,245.73359558676546,242.8373941550189,235.25518060183074,224.7420743875076
285,21,296,0,9.8765333333333,5.385164807134504,96.04686356149273,13.152946437965905,21.37755832643195,26.68332812825267,29.120439557122072,23.53720459187964,63.34824385884742,41.97618372363071,38.5,50.0,26.0,15.0,24.0,5.0,6.0,10.770329614269007,9.486832980505138,9.0,18.0,47.0,35.4400902933387,245.78242410717655,241.23847122712414,234.3608329051593,225.75429121059915
286,21,297,0,9.909899999999968,6.324555320336759,95.60334722173695,14.317821063276353,20.615528128088304,26.92582403567252,29.120439557122072,23.53720459187964,64.76109943476871,44.14748010928823,40.0,52.0,26.0,16.0,24.0,6.0,6.0,8.54400374531753,7.615773105863909,7.5,16.0,48.0,32.57299494980466,247.63077353188558,243.9938523815713,237.00210969525145,228.1074308302998
287,21,298,0,9.943266666666633,5.385164807134504,96.46242791885346,14.317821063276353,19.6468827043885,26.92582403567252,29.410882339705484,24.73863375370596,64.03124237432849,44.384682042344295,40.5,55.0,26.0,16.5,21.5,5.5,7.5,8.06225774829855,8.06225774829855,7.0,13.0,49.0,33.83784863137726,246.28844877500853,242.59431155738173,235.51008470976353,227.50164834567684
288,21,299,0,9.976633333333298,5.385164807134504,98.03060746521976,14.317821063276353,18.973665961010276,25.298221281347036,28.460498941515414,25.0,63.60031446463138,44.64302857109943,40.5,55.0,24.0,15.5,21.5,6.5,6.5,8.06225774829855,8.06225774829855,7.0,13.0,50.0,33.83784863137726,246.73872821265817,243.9610624669437,236.81216184985095,228.74002710500844
289,21,300,0,10.009999999999964,5.385164807134504,97.40636529508737,14.317821063276353,18.681541692269406,28.460498941515414,29.732137494637012,24.698178070456937,62.93647591023825,44.27188724235731,39.5,55.0,23.0,16.0,21.0,6.0,8.0,7.0710678118654755,6.708203932499369,5.5,11.0,51.0,33.24154027718932,247.8003228407905,243.1295950722577,236.01906702637396,227.98464860599717
290,21,301,0,10.04336666666663,5.385164807134504,97.40636529508737,14.560219778561036,19.924858845171276,27.51363298439521,29.732137494637012,24.041630560342615,63.89053137985315,43.965895873961216,39.5,54.0,22.0,15.0,23.0,7.0,7.0,6.4031242374328485,6.4031242374328485,5.0,12.0,52.0,31.38470965295043,245.78242410717655,243.00205760445732,236.81216184985095,228.0350850198276
291,21,302,0,10.076733333333296,6.708203932499369,97.73944955850733,14.317821063276353,18.973665961010276,26.570660511172846,30.083217912982647,23.40939982143925,63.245553203367585,44.27188724235731,39.0,54.0,21.0,15.5,22.5,6.5,7.5,6.4031242374328485,5.830951894845301,4.5,11.0,53.0,30.870698080866262,246.37572932413616,243.87086746883074,236.68122020980033,229.2640399190418
292,21,303,0,10.110099999999962,7.615773105863909,95.85927185202274,13.601470508735444,17.72004514666935,28.460498941515414,30.675723300355934,23.08679276123039,61.98386886924694,44.27188724235731,38.5,54.0,21.0,15.5,21.5,7.5,8.5,6.4031242374328485,6.4031242374328485,5.0,12.0,54.0,31.78049716414141,244.44426767670376,241.306858584666,235.72229423624742,228.0350850198276
293,21,304,0,10.143466666666628,7.280109889280518,96.20810776644555,13.601470508735444,18.027756377319946,26.570660511172846,28.792360097775937,24.351591323771842,63.245553203367585,45.221676218380054,39.5,56.0,22.0,16.0,21.0,7.0,9.0,10.295630140987,9.848857801796104,8.5,10.0,52.0,30.463092423455635,243.4953798329652,239.70815588961506,233.13729860320507,225.41073621280776
294,21,305,0,10.176833333333294,10.198039027185569,95.85927185202274,12.36931687685298,17.08800749063506,24.351591323771842,27.313000567495326,23.40939982143925,62.93647591023825,45.880278987817846,39.0,55.0,22.0,16.5,21.5,8.5,9.5,11.180339887498949,11.180339887498949,10.0,10.0,52.0,30.870698080866262,242.2973379961076,238.75719884434898,233.0772404161333,227.2003521124032
295,21,306,0,10.21019999999996,10.198039027185569,97.14422267947796,11.704699910719626,17.08800749063506,27.51363298439521,29.154759474226502,23.08679276123039,61.98386886924694,44.9221548904324,38.0,54.0,20.0,15.0,22.0,9.0,9.0,9.433981132056603,9.848857801796104,8.5,8.0,53.0,30.463092423455635,244.51789300580847,241.29857024027308,234.98297810692586,229.12005586591496
296,21,307,0,10.243566666666624,8.246211251235321,98.08159868191383,14.560219778561036,18.027756377319946,26.570660511172846,29.154759474226502,23.40939982143925,64.19501538281614,46.17358552246078,40.0,56.0,22.0,17.0,22.0,8.0,9.0,7.810249675906654,8.06225774829855,7.0,8.0,55.0,31.78049716414141,246.4000811688178,242.24367896810023,235.5949914577982,227.48406537601704
297,21,308,0,10.276933333333291,11.40175425099138,93.98404119849285,11.704699910719626,18.027756377319946,25.632011235952593,29.154759474226502,25.0,66.09841147864296,48.08326112068523,40.5,57.0,24.0,16.5,22.5,8.5,10.5,7.810249675906654,8.06225774829855,7.0,7.0,54.0,34.438350715445125,245.20399670478457,241.0186714758838,233.69424468736923,225.85836269662454
298,21,309,0,10.310299999999955,10.198039027185569,95.2732911156112,13.601470508735444,18.027756377319946,26.570660511172846,29.154759474226502,23.40939982143925,65.14598989960932,47.12748667179272,40.0,56.0,22.0,17.0,23.0,9.0,10.0,8.94427190999916,9.433981132056603,8.0,6.0,53.0,34.438350715445125,245.9044529893674,241.96074061715052,234.64441182350797,225.5681715136247
299,21,310,0,10.343666666666625,11.180339887498949,94.57801012920498,13.601470508735444,19.924858845171276,25.632011235952593,28.792360097775937,22.47220505424423,67.05221845696084,47.12748667179272,39.5,55.0,23.0,18.0,25.0,10.0,11.0,10.295630140987,10.295630140987,9.5,7.0,54.0,33.61547262794322,247.2973918180295,242.87033577610913,234.0939982143925,225.14217730136662
300,21,311,0,10.377033333333287,14.142135623730951,93.637599285757,12.649110640673518,18.027756377319946,25.298221281347036,29.154759474226502,23.08679276123039,67.72001181334805,49.72926703662542,41.0,56.0,24.0,18.0,25.0,11.0,11.0,11.180339887498949,12.083045973594572,10.5,8.0,54.0,31.78049716414141,248.2438317461282,242.5633937757303,235.72229423624742,225.84286572747877
301,21,312,0,10.410399999999957,13.341664064126334,95.51963149007642,12.36931687685298,18.027756377319946,27.51363298439521,30.083217912982647,23.40939982143925,67.05221845696084,49.040799340956916,40.5,56.0,24.0,18.0,24.0,10.0,11.0,12.083045973594572,12.529964086141668,11.0,7.0,53.0,32.69556544854363,245.3935614477283,240.35390573069537,232.28000344411913,222.4275162833951
302,21,313,0,10.44376666666662,13.152946437965905,95.51963149007642,12.649110640673518,17.72004514666935,26.570660511172846,28.792360097775937,24.351591323771842,67.72001181334805,50.0,41.5,57.0,25.0,18.0,24.0,10.0,12.0,13.92838827718412,13.0,12.0,8.0,55.0,33.1058907144937,245.40578640284747,240.6595105122588,232.84758963751375,221.72054483064937
303,21,314,0,10.477133333333288,12.165525060596439,95.85927185202274,13.341664064126334,18.027756377319946,26.570660511172846,28.792360097775937,23.40939982143925,66.76076692189807,48.76474136094644,41.0,56.0,23.0,17.5,24.5,10.5,10.5,13.416407864998739,13.92838827718412,12.5,7.0,54.0,33.1058907144937,244.4606307772276,240.96887765850593,232.18096390531244,222.25210910135362
304,21,315,0,10.510499999999952,13.152946437965905,96.79876032264049,13.601470508735444,18.973665961010276,27.51363298439521,30.083217912982647,22.47220505424423,68.00735254367721,49.040799340956916,40.5,57.0,24.0,19.5,24.5,9.5,12.5,13.0,13.416407864998739,12.5,8.0,55.0,31.304951684997057,244.78970566590417,240.33310217279683,233.43093196918014,222.25210910135362
305,21,316,0,10.543866666666618,14.317821063276353,96.79876032264049,12.36931687685298,18.973665961010276,26.570660511172846,29.732137494637012,23.40939982143925,68.96375859826666,50.0,41.0,57.0,24.0,18.5,25.5,11.5,12.5,13.0,13.0,12.0,6.0,54.0,33.1058907144937,245.3935614477283,241.00622398602076,232.0021551624036,222.4275162833951
306,21,317,0,10.577233333333284,13.152946437965905,97.40636529508737,12.36931687685298,18.973665961010276,26.570660511172846,29.732137494637012,24.166091947189145,68.30812543175226,49.33558553417604,40.5,56.0,24.0,18.0,25.0,10.0,12.0,13.92838827718412,14.317821063276353,12.5,7.0,54.0,33.1058907144937,244.13111231467406,239.75404063331237,232.0021551624036,221.46105752479374
307,21,318,0,10.61059999999995,14.142135623730951,97.40636529508737,13.601470508735444,19.313207915827967,26.92582403567252,30.083217912982647,23.40939982143925,70.21395872616783,50.96076922496363,42.0,56.0,24.0,18.0,27.0,12.0,11.0,13.92838827718412,13.92838827718412,12.5,7.0,55.0,33.1058907144937,245.3935614477283,240.05207768315609,231.60310878742538,221.72054483064937
308,21,319,0,10.643966666666616,15.132745950421556,96.46242791885346,13.601470508735444,18.973665961010276,25.632011235952593,29.154759474226502,23.40939982143925,70.8801805866774,51.92301994298868,42.5,56.0,24.0,18.0,28.0,13.0,11.0,14.317821063276353,14.317821063276353,12.5,9.0,56.0,33.1058907144937,244.44426767670376,239.40133667128927,231.89006015782564,221.28940327092033
309,21,320,0,10.677333333333282,14.142135623730951,96.79876032264049,13.601470508735444,19.924858845171276,26.92582403567252,29.732137494637012,23.769728648009426,71.16881339463234,51.24451190127583,42.0,56.0,23.0,17.5,28.5,12.5,11.5,14.866068747318506,13.92838827718412,13.0,7.0,54.0,32.202484376209235,244.76110802167898,239.40133667128927,232.84758963751375,223.21514285549716
310,21,321,0,10.710699999999948,17.11724276862369,96.46242791885346,12.649110640673518,19.924858845171276,26.92582403567252,29.732137494637012,23.769728648009426,73.08214556237385,53.16013544000805,42.5,56.0,24.0,18.0,30.0,14.0,12.0,14.866068747318506,15.231546211727817,13.5,7.0,54.0,34.0147027033899,245.08161905781512,239.70815588961506,231.22499864850255,220.32702966272657
311,21,322,0,10.744066666666614,18.24828759089466,93.98404119849285,12.36931687685298,18.973665961010276,26.570660511172846,29.154759474226502,23.769728648009426,73.08214556237385,54.120236510939236,43.0,58.0,25.0,19.5,28.5,13.5,13.5,14.866068747318506,14.317821063276353,13.0,7.0,54.0,33.54101966249684,246.9757073074192,241.91940806805889,232.18096390531244,222.52415599210798
312,21,323,0,10.77743333333328,17.26267650163207,95.85927185202274,12.649110640673518,19.924858845171276,27.51363298439521,30.675723300355934,23.769728648009426,73.37574531137656,53.45091205957107,42.5,57.0,24.0,18.5,29.5,13.5,12.5,15.231546211727817,13.92838827718412,13.0,8.0,55.0,32.202484376209235,243.81345327934633,239.0983061420553,231.32012450281968,221.46105752479374
313,21,324,0,10.810799999999944,17.11724276862369,96.46242791885346,12.649110640673518,18.973665961010276,25.632011235952593,28.792360097775937,22.135943621178654,70.60453243241541,51.66236541235796,41.5,56.0,24.0,19.0,28.0,13.0,13.0,13.92838827718412,15.231546211727817,13.5,8.0,55.0,34.438350715445125,244.78970566590417,239.38462774372127,232.47580519271247,221.56263222845138
314,21,325,0,10.844166666666611,10.44030650891055,93.40770846134703,12.36931687685298,18.973665961010276,26.92582403567252,28.792360097775937,23.40939982143925,65.14598989960932,46.17358552246078,39.0,56.0,22.0,17.0,23.0,8.0,11.0,13.92838827718412,13.92838827718412,13.0,7.0,54.0,33.61547262794322,243.2385660210979,240.97302753627844,231.82105167564055,223.0807028857494
315,21,326,0,10.877533333333275,6.324555320336759,90.47651629014017,13.601470508735444,19.924858845171276,26.248809496813376,29.732137494637012,22.80350850198276,62.6418390534633,42.720018726587654,38.0,56.0,25.0,18.5,19.5,3.5,10.5,13.0,13.92838827718412,12.5,7.0,54.0,34.0147027033899,243.51591323771842,240.01874926763534,232.84758963751375,222.25210910135362
316,21,327,0,10.910899999999945,5.385164807134504,89.88882021697692,13.601470508735444,19.924858845171276,25.632011235952593,26.570660511172846,21.840329667841555,60.728905802755904,40.80441152620633,36.5,55.0,23.0,18.0,19.0,3.0,11.0,13.92838827718412,14.866068747318506,13.5,9.0,55.0,33.1058907144937,243.18922673506736,240.35390573069537,232.56181973832247,223.6515146382872
317,21,328,0,10.944266666666609,5.830951894845301,90.24965373894794,14.317821063276353,18.973665961010276,25.298221281347036,27.85677655436824,23.08679276123039,61.98386886924694,43.01162633521314,38.5,59.0,26.0,20.5,16.5,0.5,12.5,13.92838827718412,13.0,12.0,6.0,54.0,33.54101966249684,243.8462630429263,240.33310217279683,231.52105735764079,222.52415599210798
318,21,329,0,10.977633333333277,1.4142135623730951,89.88882021697692,14.560219778561036,20.248456731316587,25.632011235952593,27.85677655436824,25.0,61.032778078668514,40.80441152620633,38.5,57.0,25.0,17.0,17.0,1.0,9.0,13.92838827718412,14.317821063276353,12.5,7.0,54.0,32.64965543462902,243.8462630429263,239.06902768865731,231.22499864850255,221.56263222845138
319,21,330,0,11.01099999999994,2.0,90.82400563727631,15.297058540778355,19.924858845171276,25.298221281347036,27.85677655436824,24.041630560342615,59.77457653551382,39.84971769034255,38.0,56.0,24.0,17.0,17.0,1.0,8.0,14.866068747318506,13.92838827718412,12.5,9.0,55.0,34.0147027033899,242.90327292978165,239.06902768865731,230.9328906847182,221.72054483064937
320,21,331,0,11.044366666666606,2.23606797749979,94.57801012920498,14.560219778561036,20.8806130178211,26.248809496813376,28.792360097775937,25.0,62.6418390534633,41.7612260356422,39.0,55.0,23.0,15.0,21.0,4.0,7.0,13.92838827718412,14.866068747318506,13.5,9.0,54.0,32.69556544854363,242.86621831782205,238.79907872519107,231.32012450281968,221.92341021172146
321,21,332,0,11.077733333333272,7.280109889280518,96.46242791885346,14.560219778561036,19.924858845171276,25.632011235952593,28.792360097775937,23.40939982143925,65.14598989960932,45.221676218380054,39.5,55.0,23.0,17.0,23.0,7.0,9.0,14.866068747318506,14.317821063276353,12.5,11.0,55.0,32.31098884280702,242.87033577610913,240.12704970494266,232.15727427758966,221.43622106602163
322,21,333,0,11.111099999999938,11.180339887498949,97.082439194738,13.601470508735444,21.587033144922902,26.570660511172846,28.792360097775937,22.135943621178654,68.41052550594829,46.84015371452148,39.5,55.0,24.0,18.5,26.5,8.5,10.5,14.866068747318506,14.866068747318506,13.5,11.0,55.0,31.38470965295043,243.21389762922678,239.5600133578223,232.606964642076,223.14345161801185
323,21,334,0,11.144466666666604,15.132745950421556,98.03060746521976,12.36931687685298,20.615528128088304,27.202941017470888,30.675723300355934,21.540659228538015,69.3757882838098,48.76474136094644,39.5,53.0,22.0,17.5,29.5,12.5,10.5,13.92838827718412,14.866068747318506,13.5,10.0,54.0,31.38470965295043,244.1679749680535,241.48084810187328,234.29255216502295,224.8599564173221
324,21,335,0,11.17783333333327,16.1245154965971,95.81753492967766,13.341664064126334,20.8806130178211,26.248809496813376,29.410882339705484,20.615528128088304,70.60453243241541,49.72926703662542,40.0,53.0,23.0,19.0,30.0,13.0,11.0,13.92838827718412,13.92838827718412,13.0,10.0,53.0,31.38470965295043,244.24577785501228,240.40174708183798,233.5679772571574,223.98660674245681
325,21,336,0,11.211199999999936,18.24828759089466,96.76776322722355,10.44030650891055,19.6468827043885,28.160255680657446,30.364452901377952,20.615528128088304,68.6804193347711,49.040799340956916,38.0,52.0,22.0,18.0,29.0,13.0,13.0,14.866068747318506,14.866068747318506,13.5,11.0,54.0,30.083217912982647,243.6801181877586,238.91839611047115,231.1579546543878,219.86586820150143
326,21,337,0,11.244566666666602,17.11724276862369,97.71898484941399,10.770329614269007,19.924858845171276,27.202941017470888,30.364452901377952,22.135943621178654,69.6419413859206,49.72926703662542,39.5,53.0,23.0,17.0,29.0,13.0,12.0,13.601470508735444,13.92838827718412,13.0,13.0,55.0,31.016124838541646,243.6801181877586,239.88538930080756,234.30749027719963,223.98660674245681
327,21,338,0,11.277933333333268,10.04987562112089,94.25497334358543,13.341664064126334,22.561028345356956,26.92582403567252,29.120439557122072,20.615528128088304,66.21933252457322,43.68065933568311,37.0,51.0,23.0,18.0,27.0,8.0,10.0,14.560219778561036,14.866068747318506,13.5,12.0,54.0,30.463092423455635,244.92039523077696,242.0743687382041,233.33452380648689,224.5551157288562
328,21,339,0,11.311299999999934,11.045361017187261,90.75791976461338,11.704699910719626,19.6468827043885,27.202941017470888,28.792360097775937,21.18962010041709,63.324560795950255,43.68065933568311,36.5,54.0,25.0,19.5,21.5,4.5,13.5,13.92838827718412,14.317821063276353,13.0,11.0,53.0,29.154759474226502,246.01829200285087,239.63305281200255,233.10512649875378,222.59604668547013
329,21,340,0,11.3446666666666,9.055385138137417,92.02716990106781,11.704699910719626,19.6468827043885,28.160255680657446,30.364452901377952,20.8806130178211,61.1310068623117,41.48493702538308,35.5,55.0,25.0,20.0,19.0,3.0,15.0,13.601470508735444,13.0,12.0,12.0,53.0,29.154759474226502,245.0550958458118,240.85265205099984,232.36178687555318,223.00896842952304
330,21,341,0,11.378033333333263,10.04987562112089,92.65527507918802,10.770329614269007,20.8806130178211,27.202941017470888,29.410882339705484,20.615528128088304,62.0966987850401,41.23105625617661,35.0,54.0,25.0,19.5,20.5,3.5,14.5,13.601470508735444,13.92838827718412,13.0,11.0,52.0,30.675723300355934,244.09219569662608,240.6013300046365,234.30749027719963,222.80035906613796
331,21,342,0,11.411399999999931,13.152946437965905,94.5568612000208,9.848857801796104,19.6468827043885,26.92582403567252,29.410882339705484,20.396078054371138,62.81719509815764,43.174066289845804,35.5,53.0,24.0,18.5,22.5,6.5,13.5,13.601470508735444,13.92838827718412,12.5,13.0,55.0,31.016124838541646,243.1295950722577,240.6013300046365,232.13142829009604,223.5754906066405
332,21,343,0,11.444766666666595,13.152946437965905,94.86832980505137,11.704699910719626,20.615528128088304,26.92582403567252,29.410882339705484,19.924858845171276,65.25335240430181,44.64302857109943,36.5,53.0,23.0,19.0,25.0,8.0,12.0,13.92838827718412,14.866068747318506,14.0,13.0,56.0,30.463092423455635,243.1295950722577,240.6013300046365,233.10512649875378,223.5754906066405
