,video_id,frame_seq,gap,time_seconds,m1,m3,m4,m5,m6,m7,m8,m9,m10,m11,m12,m13,m14,m15,m16,m17,e1,e2,e3,b1,b2,b3,m_0_16,m_1_15,m_2_14,m_3_13
0,43,193,1,6.4397666666666735,4.0,38.05259518088089,5.0,7.0,10.0,11.0,11.045361017187261,27.018512172212592,20.024984394500787,18.0,18.0,16.0,6.0,10.0,2.0,2.0,5.0,5.0,4.5,15.0,16.0,15.0,100.04498987955368,99.02019995940222,96.04686356149273,89.02246907382428
1,43,194,0,6.47313333333334,3.0,39.20459156782532,4.123105625617661,7.0,11.045361017187261,11.045361017187261,11.0,25.019992006393608,18.027756377319946,16.5,18.0,14.0,5.0,9.0,2.0,2.0,5.0,5.0,4.5,14.0,16.0,15.033296378372908,101.1236866416568,101.24228365658294,98.2496819333274,91.26883367283708
2,43,195,0,6.506500000000007,2.23606797749979,38.118237105091836,4.0,7.0,10.04987562112089,11.045361017187261,11.0,24.020824298928627,17.029386365926403,16.0,18.0,15.0,5.5,7.5,0.5,2.5,3.0,3.0,3.0,15.0,17.0,17.029386365926403,100.07996802557443,99.12618221237011,97.18538984847466,90.19977827023745
3,43,196,0,6.539866666666674,2.23606797749979,38.3275357934736,5.0,6.0,10.04987562112089,11.180339887498949,11.0,24.020824298928627,18.027756377319946,17.0,19.0,14.0,5.5,7.5,1.5,1.5,3.0,2.0,2.0,15.0,17.0,16.0,97.04638066409278,97.082439194738,94.13288479590966,89.1403387922662
4,43,197,0,6.573233333333341,2.0,40.19950248448356,4.123105625617661,7.0,10.198039027185569,11.180339887498949,12.041594578792296,25.0,18.0,17.0,18.0,14.0,4.0,9.0,3.0,1.0,2.0,2.0,2.0,14.0,16.0,16.0,96.04686356149273,95.13148795220224,93.1933474020544,88.20430828479978
5,43,198,0,6.606600000000007,1.0,36.22154055254967,4.0,7.0710678118654755,9.219544457292887,11.180339887498949,12.0,24.020824298928627,17.0,16.5,18.0,14.0,4.0,8.0,2.0,1.0,2.0,3.0,2.5,15.0,17.0,17.029386365926403,97.04638066409278,97.082439194738,94.13288479590966,89.20201791439474
6,43,199,0,6.639966666666674,0.0,37.33630940518894,4.123105625617661,6.082762530298219,11.180339887498949,11.180339887498949,13.0,23.08679276123039,17.029386365926403,17.0,20.0,15.0,4.5,5.5,0.5,2.5,2.0,2.0,2.0,16.0,17.0,16.0312195418814,97.082439194738,95.13148795220224,93.26306878931231,88.2779700718135
7,43,200,0,6.673333333333341,3.1622776601683795,38.3275357934736,4.0,6.0,10.198039027185569,12.165525060596439,12.0,25.019992006393608,19.026297590440446,17.5,18.0,13.0,3.5,9.5,3.5,0.5,3.0,2.0,2.0,15.0,17.0,17.029386365926403,96.04686356149273,95.13148795220224,92.19544457292888,88.20430828479978
8,43,201,0,6.706700000000008,1.4142135623730951,38.47076812334269,4.0,6.082762530298219,12.165525060596439,13.038404810405298,12.041594578792296,23.194827009486403,17.11724276862369,16.5,20.0,14.0,5.0,6.0,0.0,3.0,4.123105625617661,3.0,3.0,14.0,16.0,17.0,94.08506789071261,94.26027795418386,91.35097153287424,87.46427842267951
9,43,202,0,6.740066666666674,2.23606797749979,36.49657518178932,3.0,5.0990195135927845,11.180339887498949,11.180339887498949,13.038404810405298,23.194827009486403,18.110770276274835,17.0,20.0,14.0,4.0,6.0,1.0,3.0,3.0,3.0,3.0,14.0,17.0,16.0312195418814,95.13148795220224,94.19129471453293,92.26592003551474,87.36704184073076
10,43,203,0,6.773433333333341,2.23606797749979,38.2099463490856,3.0,5.0,10.198039027185569,11.180339887498949,13.038404810405298,23.08679276123039,18.110770276274835,17.0,19.0,15.0,4.0,6.0,1.0,2.0,3.0,3.1622776601683795,3.0,14.0,16.0,15.0,95.08417323613851,93.13431161500041,91.19758768739445,87.20665112249179
11,43,204,0,6.806800000000008,1.0,38.47076812334269,3.0,6.082762530298219,12.165525060596439,11.180339887498949,13.038404810405298,22.20360331117452,16.1245154965971,16.0,20.0,14.0,4.0,5.0,0.0,2.0,2.23606797749979,2.23606797749979,2.5,14.0,16.0,17.029386365926403,93.1933474020544,93.34345183246653,90.44888059008801,87.46427842267951
12,43,205,0,6.840166666666675,1.0,37.656340767525464,3.0,4.123105625617661,12.165525060596439,12.165525060596439,13.038404810405298,20.223748416156685,16.1245154965971,16.0,21.0,14.0,4.5,2.5,1.5,3.5,2.23606797749979,1.0,1.0,14.0,17.0,17.029386365926403,94.13288479590966,92.26592003551474,90.27181176868004,87.36704184073076
13,43,206,0,6.8735333333333415,0.0,37.33630940518894,5.0990195135927845,6.082762530298219,10.198039027185569,11.180339887498949,12.0,23.08679276123039,17.029386365926403,17.0,18.0,13.0,3.5,7.5,1.5,0.5,6.0,7.0710678118654755,6.5,13.0,17.0,17.0,95.25754563287887,93.34345183246653,91.35097153287424,87.36704184073076
14,43,207,0,6.906900000000008,1.0,36.49657518178932,4.0,6.082762530298219,11.180339887498949,11.180339887498949,11.0,21.095023109728988,15.033296378372908,15.0,18.0,12.0,4.0,6.0,1.0,2.0,3.0,3.1622776601683795,2.5,15.0,19.0,17.11724276862369,99.18165152889924,96.33275663033837,93.53608929178085,88.45903006477066
15,43,208,0,6.940266666666675,0.0,36.49657518178932,3.0,5.0990195135927845,10.198039027185569,11.180339887498949,13.0,21.02379604162864,16.0,16.0,18.0,12.0,2.0,6.0,1.0,1.0,3.1622776601683795,2.23606797749979,2.5,14.0,18.0,19.1049731745428,96.18731725128839,95.33624704172071,92.43916918709297,88.56635930193812
16,43,209,0,6.973633333333342,1.0,37.33630940518894,3.0,6.082762530298219,12.165525060596439,12.36931687685298,11.0,20.09975124224178,14.035668847618199,14.0,16.0,11.0,2.5,6.5,1.5,0.5,4.0,3.1622776601683795,3.0,14.0,18.0,17.029386365926403,96.18731725128839,95.33624704172071,93.43446901438462,87.5728268357257
17,43,210,0,7.0070000000000086,1.0,38.3275357934736,3.1622776601683795,6.0,11.180339887498949,12.165525060596439,12.0,21.095023109728988,15.132745950421556,15.0,17.0,12.0,2.5,6.5,0.5,1.5,2.0,3.1622776601683795,2.5,14.0,18.0,18.110770276274835,98.32598842625484,96.51942809610924,93.53608929178085,87.5728268357257
18,43,211,0,7.040366666666675,1.4142135623730951,34.713109915419565,3.1622776601683795,5.0990195135927845,11.180339887498949,11.180339887498949,12.041594578792296,21.37755832643195,16.278820596099706,15.5,20.0,13.0,4.5,4.5,0.5,2.5,4.123105625617661,4.123105625617661,3.5,15.0,19.0,15.033296378372908,97.25224933131366,95.42536350467836,92.5418824100742,88.56635930193812
19,43,212,0,7.073733333333342,1.4142135623730951,35.6931365951495,2.0,5.0990195135927845,12.165525060596439,11.180339887498949,13.152946437965905,21.37755832643195,16.278820596099706,15.5,21.0,14.0,4.5,3.5,0.5,3.5,4.0,4.0,3.5,13.0,18.0,17.11724276862369,97.25224933131366,95.33624704172071,91.54780172128658,87.69264507357501
20,43,213,0,7.107100000000009,1.0,36.6742416417845,3.0,5.0990195135927845,11.180339887498949,11.40175425099138,12.165525060596439,21.213203435596427,16.1245154965971,15.5,21.0,14.0,5.5,3.5,1.5,3.5,4.0,4.123105625617661,4.0,13.0,18.0,16.1245154965971,95.25754563287887,93.43446901438462,91.6624241442479,88.81441324469807
21,43,214,0,7.140466666666676,0.0,37.33630940518894,3.0,5.0990195135927845,10.198039027185569,11.40175425099138,13.038404810405298,21.095023109728988,16.0312195418814,16.0,19.0,14.0,3.5,4.5,0.5,1.5,4.123105625617661,4.123105625617661,3.5,13.0,18.0,17.11724276862369,97.18538984847466,95.33624704172071,93.43446901438462,88.56635930193812
22,43,215,0,7.173833333333342,1.0,37.48332962798263,3.0,4.0,12.041594578792296,12.36931687685298,13.038404810405298,20.09975124224178,16.1245154965971,16.0,20.0,14.0,4.0,3.0,1.0,2.0,3.1622776601683795,3.0,3.5,14.0,18.0,18.110770276274835,96.33275663033837,93.43446901438462,90.55385138137417,87.5728268357257
23,43,216,0,7.207200000000009,1.0,38.47076812334269,3.0,5.0990195135927845,13.152946437965905,12.165525060596439,12.041594578792296,20.223748416156685,15.132745950421556,15.0,20.0,14.0,5.0,3.0,1.0,3.0,3.0,3.1622776601683795,3.0,13.0,17.0,15.033296378372908,96.42095207992918,94.64142856064674,91.7877987534291,87.82368700982668
24,43,217,0,7.240566666666676,4.123105625617661,39.45883931389772,2.23606797749979,4.0,13.152946437965905,13.152946437965905,12.041594578792296,22.20360331117452,18.24828759089466,16.0,20.0,14.0,5.0,5.0,1.0,4.0,3.0,3.0,3.0,14.0,17.0,17.029386365926403,96.51942809610924,93.64827814754524,90.6697303403953,86.70063436907483
25,43,218,0,7.273933333333343,4.123105625617661,38.3275357934736,3.0,4.123105625617661,12.165525060596439,12.165525060596439,11.045361017187261,22.20360331117452,18.110770276274835,16.0,20.0,15.0,6.5,4.5,0.5,4.5,4.123105625617661,4.0,4.0,14.0,18.0,15.033296378372908,96.25487000666512,94.42986815621421,91.44397191723465,87.5728268357257
26,43,219,0,7.3073000000000095,4.123105625617661,40.311288741492746,4.0,5.0990195135927845,12.165525060596439,12.165525060596439,10.04987562112089,23.194827009486403,18.110770276274835,16.0,20.0,15.0,7.5,5.5,0.5,4.5,4.123105625617661,4.0,4.0,13.0,17.0,16.1245154965971,96.51942809610924,94.76286192385707,91.92388155425118,87.96590248499699
27,43,220,0,7.340666666666676,3.0,40.607881008493905,3.1622776601683795,3.1622776601683795,12.165525060596439,12.165525060596439,12.041594578792296,21.213203435596427,18.110770276274835,16.5,21.0,14.0,5.5,3.5,0.5,4.5,3.0,3.0,3.5,13.0,16.0,17.029386365926403,94.26027795418386,92.43916918709297,90.55385138137417,87.69264507357501
28,43,221,0,7.374033333333343,3.1622776601683795,40.311288741492746,3.1622776601683795,4.0,13.152946437965905,14.142135623730951,12.0,22.090722034374522,18.110770276274835,16.5,20.0,15.0,5.5,4.5,0.5,4.5,4.0,5.0990195135927845,4.5,13.0,16.0,16.0312195418814,95.13148795220224,94.26027795418386,90.35485598461214,87.36704184073076
29,43,222,0,7.40740000000001,4.123105625617661,39.319206502675,3.0,4.0,12.041594578792296,12.165525060596439,12.041594578792296,23.08679276123039,19.1049731745428,17.0,20.0,15.0,5.5,5.5,1.5,3.5,4.0,3.0,3.5,14.0,17.0,15.033296378372908,95.13148795220224,93.26306878931231,91.35097153287424,87.36704184073076
30,43,223,0,7.440766666666676,5.0990195135927845,42.1070065428546,3.0,5.0,12.165525060596439,13.152946437965905,12.0,25.019992006393608,20.024984394500787,17.5,17.0,14.0,3.5,9.5,4.5,2.5,4.123105625617661,3.1622776601683795,3.5,13.0,17.0,16.0312195418814,94.13288479590966,93.1933474020544,91.26883367283708,87.36704184073076
31,43,224,0,7.474133333333343,3.0,38.05259518088089,4.0,5.0,11.045361017187261,12.041594578792296,11.0,23.0,18.0,16.5,16.0,14.0,4.0,8.0,3.0,1.0,5.0,4.123105625617661,4.5,15.0,18.0,16.0,95.02105029939419,94.08506789071261,92.13576938409967,88.14193099768123
32,43,225,0,7.50750000000001,0.0,35.12833614050059,4.0,5.0990195135927845,10.04987562112089,11.045361017187261,12.0,21.02379604162864,16.0,16.0,17.0,14.0,3.5,5.5,0.5,0.5,5.0990195135927845,4.0,4.5,13.0,16.0,18.027756377319946,95.08417323613851,94.19129471453293,91.19758768739445,87.28115489611719
33,43,226,0,7.540866666666677,1.0,38.05259518088089,5.0,6.082762530298219,10.04987562112089,11.180339887498949,10.04987562112089,22.0,16.0312195418814,15.5,16.0,14.0,5.0,7.0,1.0,0.0,5.0,5.0990195135927845,4.5,15.0,17.0,18.027756377319946,96.04686356149273,95.08417323613851,92.0869154657707,87.14355971613737
34,43,227,0,7.574233333333344,0.0,37.12142238654117,4.0,6.082762530298219,10.04987562112089,11.045361017187261,11.045361017187261,21.0,15.033296378372908,15.0,16.0,13.0,3.5,6.5,1.5,0.5,5.0,5.0990195135927845,5.0,13.0,17.0,17.029386365926403,95.04735661763561,94.19129471453293,92.26592003551474,87.28115489611719
35,43,228,0,7.60760000000001,0.0,37.21558813185679,4.123105625617661,6.082762530298219,11.045361017187261,12.165525060596439,12.0,22.090722034374522,16.0312195418814,16.0,18.0,14.0,4.0,6.0,0.0,1.0,4.123105625617661,4.0,4.5,13.0,16.0,16.0312195418814,94.08506789071261,93.13431161500041,91.19758768739445,87.28115489611719
36,43,229,0,7.640966666666677,0.0,38.3275357934736,4.0,6.082762530298219,12.165525060596439,12.165525060596439,11.045361017187261,21.095023109728988,15.033296378372908,15.0,18.0,13.0,4.5,5.5,0.5,2.5,5.0,4.123105625617661,4.5,13.0,16.0,17.029386365926403,96.18731725128839,94.33981132056604,91.44397191723465,87.5728268357257
37,43,230,0,7.674333333333344,0.0,39.20459156782532,3.0,6.082762530298219,12.041594578792296,12.165525060596439,12.0,21.02379604162864,15.0,15.0,16.0,12.0,2.0,7.0,2.0,0.0,4.123105625617661,4.0,4.5,13.0,16.0,17.029386365926403,95.08417323613851,94.19129471453293,91.35097153287424,87.46427842267951
38,43,231,0,7.707700000000011,1.4142135623730951,36.345563690772494,3.0,6.082762530298219,12.041594578792296,11.180339887498949,11.0,21.095023109728988,15.033296378372908,14.5,17.0,12.0,3.5,6.5,0.5,1.5,5.0,4.123105625617661,4.5,14.0,17.0,15.033296378372908,95.13148795220224,93.26306878931231,91.35097153287424,86.46964785403026
39,43,232,0,7.741066666666677,1.0,38.3275357934736,3.0,6.082762530298219,12.041594578792296,12.165525060596439,11.0,20.09975124224178,14.035668847618199,14.0,18.0,13.0,4.5,4.5,1.5,2.5,4.0,4.123105625617661,4.5,14.0,17.0,17.11724276862369,96.13012014972206,94.26027795418386,90.35485598461214,86.46964785403026
40,43,233,0,7.774433333333344,1.4142135623730951,39.319206502675,3.0,5.0990195135927845,12.041594578792296,13.152946437965905,11.0,20.09975124224178,15.033296378372908,14.5,17.0,12.0,3.5,5.5,0.5,1.5,5.0,4.123105625617661,4.5,13.0,16.0,16.0312195418814,94.13288479590966,93.1933474020544,90.27181176868004,86.46964785403026
41,43,234,0,7.807800000000011,1.0,39.11521443121589,4.0,6.0,11.045361017187261,12.165525060596439,11.045361017187261,21.0,15.0,15.0,16.0,13.0,3.5,6.5,1.5,0.5,4.0,4.123105625617661,4.5,13.0,16.0,17.029386365926403,94.08506789071261,93.13431161500041,91.19758768739445,87.20665112249179
42,43,235,0,7.841166666666678,1.0,39.20459156782532,3.0,6.0,12.165525060596439,12.165525060596439,12.0,21.02379604162864,15.033296378372908,15.0,17.0,13.0,3.0,6.0,1.0,2.0,5.0,5.0,4.5,14.0,16.0,15.033296378372908,94.13288479590966,93.26306878931231,90.35485598461214,86.46964785403026
43,43,236,0,7.874533333333344,2.0,39.20459156782532,3.0,5.0990195135927845,12.041594578792296,12.041594578792296,12.041594578792296,22.090722034374522,17.029386365926403,16.0,18.0,14.0,4.0,6.0,1.0,2.0,5.0990195135927845,4.123105625617661,4.0,13.0,17.0,15.033296378372908,96.13012014972206,93.34345183246653,91.35097153287424,86.46964785403026
44,43,237,0,7.907900000000011,3.0,42.1070065428546,4.0,6.082762530298219,12.165525060596439,12.041594578792296,11.045361017187261,24.08318915758459,18.027756377319946,16.5,16.0,13.0,3.5,9.5,3.5,1.5,5.0,6.0,6.0,14.0,17.0,16.0312195418814,97.18538984847466,95.33624704172071,92.34717104492157,87.46427842267951
45,43,238,0,7.941266666666678,2.0,38.2099463490856,3.0,6.082762530298219,11.180339887498949,11.180339887498949,12.0,23.021728866442675,17.0,16.0,18.0,14.0,4.0,7.0,2.0,2.0,5.0,4.123105625617661,4.5,13.0,16.0,16.0,94.08506789071261,92.19544457292888,91.26883367283708,87.28115489611719
46,43,239,0,7.974633333333345,2.0,41.10960958218893,4.0,6.082762530298219,12.165525060596439,12.041594578792296,12.0,24.020824298928627,18.0,17.0,18.0,15.0,4.5,7.5,1.5,2.5,4.0,4.123105625617661,4.0,14.0,17.0,18.027756377319946,95.04735661763561,93.13431161500041,91.19758768739445,88.2779700718135
47,43,240,0,8.008000000000012,2.0,38.2099463490856,4.0,5.0,11.180339887498949,11.180339887498949,11.0,22.0,17.0,16.0,18.0,14.0,5.0,6.0,1.0,2.0,5.0,5.0990195135927845,4.5,14.0,17.0,19.026297590440446,95.04735661763561,94.13288479590966,91.13725912051558,88.20430828479978
48,43,241,0,8.041366666666677,1.4142135623730951,39.20459156782532,4.0,5.0,11.180339887498949,12.041594578792296,12.0,22.02271554554524,17.029386365926403,16.5,18.0,14.0,4.0,6.0,1.0,1.0,4.0,4.123105625617661,4.5,13.0,16.0,17.029386365926403,96.08329719571451,94.13288479590966,92.19544457292888,88.2779700718135
49,43,242,0,8.074733333333343,3.0,39.20459156782532,3.0,5.0990195135927845,11.045361017187261,11.045361017187261,12.041594578792296,23.08679276123039,18.027756377319946,16.5,18.0,14.0,4.0,7.0,2.0,2.0,5.0,4.0,4.5,15.0,18.0,17.0,93.13431161500041,92.26592003551474,89.27485648266257,86.28441342444185
50,43,243,0,8.10810000000001,1.4142135623730951,39.319206502675,4.0,5.0,11.180339887498949,12.165525060596439,12.041594578792296,22.090722034374522,17.11724276862369,16.5,20.0,15.0,5.5,4.5,0.5,3.5,5.0990195135927845,4.0,4.0,14.0,17.0,17.029386365926403,95.13148795220224,93.1933474020544,91.26883367283708,87.36704184073076
51,43,244,0,8.141466666666675,0.0,38.3275357934736,4.0,5.0990195135927845,11.180339887498949,12.165525060596439,12.041594578792296,21.095023109728988,16.0312195418814,16.0,19.0,14.0,4.5,4.5,0.5,2.5,5.0990195135927845,4.123105625617661,4.5,15.0,17.0,17.029386365926403,95.08417323613851,93.1933474020544,90.27181176868004,87.36704184073076
52,43,245,0,8.174833333333341,2.0,39.319206502675,3.0,5.0990195135927845,10.198039027185569,11.180339887498949,12.0,22.02271554554524,17.0,16.0,19.0,14.0,4.5,5.5,1.5,2.5,5.0990195135927845,4.0,4.5,14.0,17.0,17.0,95.08417323613851,94.19129471453293,91.19758768739445,87.28115489611719
53,43,246,0,8.208200000000007,2.23606797749979,38.2099463490856,4.0,5.0,11.180339887498949,12.165525060596439,11.045361017187261,22.090722034374522,17.11724276862369,16.0,19.0,15.0,6.0,5.0,0.0,3.0,5.0990195135927845,5.0990195135927845,5.0,14.0,18.0,17.029386365926403,95.13148795220224,93.1933474020544,91.26883367283708,87.36704184073076
54,43,247,0,8.241566666666673,1.4142135623730951,38.3275357934736,3.0,5.0990195135927845,12.165525060596439,12.041594578792296,13.038404810405298,22.20360331117452,17.11724276862369,16.5,20.0,15.0,4.5,4.5,0.5,3.5,4.0,4.123105625617661,4.0,14.0,17.0,17.029386365926403,94.26027795418386,93.26306878931231,91.35097153287424,87.46427842267951
55,43,248,0,8.274933333333339,4.123105625617661,38.3275357934736,3.0,5.0990195135927845,12.165525060596439,12.041594578792296,11.045361017187261,23.194827009486403,18.110770276274835,16.0,20.0,15.0,6.5,5.5,0.5,4.5,5.0990195135927845,5.0990195135927845,5.0,14.0,17.0,17.029386365926403,98.18350166906862,95.42536350467836,92.5418824100742,87.69264507357501
56,43,249,0,8.308300000000004,3.0,43.104524124504614,4.0,6.082762530298219,12.165525060596439,12.041594578792296,11.045361017187261,24.08318915758459,18.027756377319946,16.5,16.0,13.0,3.5,9.5,3.5,1.5,5.0,5.0990195135927845,5.0,12.0,16.0,18.027756377319946,94.19129471453293,93.26306878931231,91.35097153287424,87.46427842267951
57,43,250,0,8.34166666666667,6.0,40.311288741492746,2.23606797749979,5.0990195135927845,12.165525060596439,13.038404810405298,12.0,25.079872407968907,20.024984394500787,17.0,20.0,15.0,5.5,7.5,2.5,4.5,5.0,4.123105625617661,4.5,14.0,18.0,16.0,97.25224933131366,95.42536350467836,91.54780172128658,87.69264507357501
58,43,251,0,8.375033333333336,5.0990195135927845,41.43669871020132,3.1622776601683795,6.0,13.152946437965905,14.142135623730951,12.0,26.076809620810597,20.09975124224178,17.5,21.0,15.0,6.0,8.0,3.0,4.0,6.0,6.082762530298219,6.0,14.0,17.0,16.0312195418814,95.25754563287887,93.34345183246653,91.35097153287424,87.46427842267951
59,43,252,0,8.408400000000002,5.0990195135927845,39.319206502675,3.0,6.082762530298219,12.165525060596439,13.152946437965905,11.045361017187261,25.179356624028344,19.1049731745428,16.5,19.0,14.0,5.5,8.5,2.5,3.5,4.0,4.123105625617661,4.5,14.0,17.0,15.033296378372908,95.1892851112981,93.34345183246653,90.44888059008801,87.5728268357257
60,43,253,0,8.441766666666668,5.0,41.19465984809196,3.1622776601683795,6.082762530298219,12.165525060596439,13.152946437965905,12.041594578792296,26.1725046566048,20.09975124224178,17.5,17.0,13.0,3.0,11.0,5.0,2.0,4.123105625617661,4.123105625617661,4.0,14.0,18.0,16.0312195418814,94.26027795418386,92.34717104492157,90.44888059008801,86.46964785403026
61,43,254,0,8.475133333333334,5.0990195135927845,38.3275357934736,2.0,5.0,12.165525060596439,13.038404810405298,12.041594578792296,24.08318915758459,19.1049731745428,16.5,19.0,14.0,4.5,7.5,2.5,3.5,4.0,4.123105625617661,4.5,13.0,18.0,15.033296378372908,97.25224933131366,94.33981132056604,92.43916918709297,87.5728268357257
62,43,255,0,8.5085,2.0,39.20459156782532,3.1622776601683795,6.082762530298219,13.152946437965905,13.038404810405298,11.045361017187261,22.20360331117452,16.1245154965971,15.0,16.0,12.0,3.0,8.0,2.0,2.0,4.0,4.0,4.5,14.0,17.0,16.0312195418814,94.13288479590966,93.26306878931231,90.27181176868004,86.37129152675674
63,43,256,0,8.541866666666666,1.0,40.311288741492746,4.0,6.082762530298219,12.165525060596439,13.038404810405298,11.045361017187261,21.213203435596427,15.132745950421556,15.0,18.0,13.0,4.5,5.5,0.5,2.5,4.0,5.0,4.5,13.0,16.0,16.0,96.13012014972206,93.26306878931231,91.35097153287424,87.46427842267951
64,43,257,0,8.575233333333331,1.0,38.3275357934736,2.0,5.0,12.165525060596439,12.165525060596439,12.041594578792296,19.1049731745428,14.142135623730951,14.0,17.0,12.0,2.5,4.5,0.5,1.5,4.0,4.123105625617661,4.5,13.0,16.0,17.11724276862369,95.08417323613851,93.13431161500041,91.19758768739445,87.28115489611719
65,43,258,0,8.608599999999997,0.0,38.2099463490856,3.0,5.0990195135927845,11.045361017187261,11.045361017187261,11.045361017187261,19.1049731745428,14.035668847618199,14.0,16.0,12.0,3.0,5.0,0.0,1.0,5.0,5.0990195135927845,5.0,14.0,17.0,16.0312195418814,94.13288479590966,93.1933474020544,91.19758768739445,87.28115489611719
66,43,259,0,8.641966666666663,1.0,38.47076812334269,3.0,5.0,12.165525060596439,12.165525060596439,12.0,20.024984394500787,15.033296378372908,15.0,19.0,13.0,4.0,4.0,0.0,3.0,4.0,5.0990195135927845,4.5,14.0,17.0,17.029386365926403,96.13012014972206,95.1892851112981,92.26592003551474,87.36704184073076
67,43,260,0,8.67533333333333,1.0,40.19950248448356,3.0,5.0,12.041594578792296,12.165525060596439,12.0,20.024984394500787,15.033296378372908,15.0,16.0,12.0,2.0,6.0,2.0,0.0,4.123105625617661,4.123105625617661,4.0,12.0,16.0,17.029386365926403,96.08329719571451,93.1933474020544,92.26592003551474,87.36704184073076
68,43,261,0,8.708699999999995,0.0,40.19950248448356,3.0,5.0990195135927845,12.165525060596439,12.165525060596439,12.0,20.024984394500787,15.0,15.0,17.0,13.0,3.0,5.0,1.0,2.0,4.123105625617661,5.0990195135927845,4.5,13.0,16.0,15.033296378372908,97.12878049270464,95.25754563287887,92.19544457292888,88.2779700718135
69,43,262,0,8.74206666666666,0.0,38.3275357934736,3.1622776601683795,5.0990195135927845,11.045361017187261,11.180339887498949,12.0,20.09975124224178,15.033296378372908,15.0,18.0,13.0,3.5,4.5,0.5,1.5,5.0,4.123105625617661,4.5,13.0,16.0,18.027756377319946,96.13012014972206,94.13288479590966,92.19544457292888,88.2779700718135
70,43,263,0,8.775433333333327,0.0,38.3275357934736,3.0,4.123105625617661,11.180339887498949,11.180339887498949,12.0,19.026297590440446,15.0,15.0,18.0,13.0,3.5,3.5,0.5,1.5,4.0,4.123105625617661,4.5,14.0,17.0,16.0312195418814,95.08417323613851,93.13431161500041,91.13725912051558,87.20665112249179
71,43,264,0,8.808799999999993,0.0,37.33630940518894,2.23606797749979,5.0990195135927845,11.180339887498949,12.165525060596439,12.0,19.1049731745428,14.035668847618199,14.0,17.0,12.0,2.5,4.5,0.5,1.5,5.0,5.0990195135927845,4.5,13.0,17.0,17.029386365926403,94.08506789071261,93.1933474020544,91.26883367283708,87.28115489611719
72,43,265,0,8.842166666666659,1.0,39.45883931389772,3.0,5.0990195135927845,11.180339887498949,12.165525060596439,11.0,19.1049731745428,14.035668847618199,14.0,18.0,12.0,4.0,4.0,1.0,2.0,4.0,4.123105625617661,4.0,13.0,16.0,17.0,95.13148795220224,93.26306878931231,90.35485598461214,86.37129152675674
73,43,266,0,8.875533333333324,1.0,39.20459156782532,3.0,4.123105625617661,12.041594578792296,11.180339887498949,11.045361017187261,18.24828759089466,14.142135623730951,14.0,17.0,13.0,4.0,3.0,1.0,2.0,4.0,4.123105625617661,4.5,14.0,17.0,17.029386365926403,96.13012014972206,93.1933474020544,91.26883367283708,86.28441342444185
74,43,267,0,8.90889999999999,1.0,39.319206502675,3.0,5.0990195135927845,12.041594578792296,12.165525060596439,11.045361017187261,19.235384061671343,14.142135623730951,14.0,17.0,12.0,3.5,4.5,0.5,1.5,5.0990195135927845,5.0990195135927845,5.0,13.0,16.0,16.0312195418814,95.25754563287887,94.42986815621421,91.44397191723465,87.46427842267951
75,43,268,0,8.942266666666656,1.0,40.44749683231337,2.0,5.0990195135927845,12.041594578792296,13.152946437965905,12.041594578792296,19.235384061671343,14.142135623730951,14.0,18.0,12.0,3.0,4.0,1.0,2.0,4.0,4.123105625617661,4.0,13.0,17.0,15.033296378372908,94.26027795418386,92.34717104492157,90.44888059008801,86.57944328765345
76,43,269,0,8.975633333333322,1.0,41.43669871020132,3.0,4.123105625617661,12.165525060596439,12.165525060596439,11.0,18.110770276274835,14.035668847618199,14.0,17.0,11.0,3.0,4.0,0.0,1.0,5.0990195135927845,5.0990195135927845,4.5,13.0,16.0,17.029386365926403,94.13288479590966,92.26592003551474,89.27485648266257,86.37129152675674
77,43,270,0,9.008999999999988,1.4142135623730951,40.311288741492746,2.0,5.0,11.180339887498949,11.045361017187261,12.041594578792296,18.110770276274835,13.152946437965905,13.5,17.0,12.0,2.5,3.5,0.5,1.5,5.0990195135927845,5.0,5.0,13.0,16.0,16.0312195418814,95.08417323613851,93.1933474020544,91.26883367283708,88.45903006477066
78,43,271,0,9.042366666666654,1.0,41.30375285612676,3.1622776601683795,4.123105625617661,11.180339887498949,12.165525060596439,11.0,17.11724276862369,13.038404810405298,13.5,17.0,12.0,3.5,2.5,0.5,1.5,5.0,4.123105625617661,4.5,12.0,16.0,17.029386365926403,94.19129471453293,93.1933474020544,91.35097153287424,87.36704184073076
79,43,272,0,9.07573333333332,1.4142135623730951,41.43669871020132,3.0,4.0,11.180339887498949,11.180339887498949,11.045361017187261,17.11724276862369,13.152946437965905,13.5,18.0,12.0,4.0,2.0,2.0,2.0,5.0,5.0990195135927845,5.0,14.0,18.0,16.0,95.1892851112981,94.26027795418386,91.35097153287424,87.46427842267951
80,43,273,0,9.109099999999986,2.0,41.43669871020132,3.0,5.0990195135927845,12.165525060596439,12.165525060596439,11.045361017187261,17.11724276862369,12.041594578792296,13.0,17.0,11.0,3.0,3.0,1.0,2.0,5.0,4.0,4.5,13.0,16.0,15.033296378372908,95.25754563287887,93.34345183246653,90.44888059008801,86.57944328765345
81,43,274,0,9.142466666666651,2.0,40.44749683231337,3.1622776601683795,4.123105625617661,12.165525060596439,12.165525060596439,11.0,16.1245154965971,12.041594578792296,13.0,17.0,11.0,3.0,2.0,1.0,2.0,5.0990195135927845,6.082762530298219,6.0,12.0,16.0,16.0312195418814,95.1892851112981,93.26306878931231,90.35485598461214,86.57944328765345
82,43,275,0,9.175833333333316,2.23606797749979,40.44749683231337,3.0,4.123105625617661,12.165525060596439,11.180339887498949,11.0,16.1245154965971,12.041594578792296,13.0,17.0,11.0,3.0,2.0,1.0,2.0,6.0,5.0990195135927845,5.0,12.0,16.0,17.029386365926403,95.1892851112981,93.26306878931231,90.44888059008801,86.57944328765345
83,43,276,0,9.209199999999983,1.0,41.43669871020132,2.23606797749979,4.123105625617661,12.165525060596439,12.165525060596439,11.0,16.1245154965971,12.041594578792296,12.5,17.0,11.0,3.0,2.0,1.0,2.0,4.0,5.0990195135927845,5.0,13.0,16.0,17.029386365926403,96.18731725128839,94.26027795418386,91.35097153287424,87.46427842267951
84,43,277,0,9.242566666666647,1.4142135623730951,40.607881008493905,4.0,4.0,11.045361017187261,12.165525060596439,10.04987562112089,17.11724276862369,13.152946437965905,13.5,18.0,11.0,4.5,2.5,1.5,1.5,4.123105625617661,4.123105625617661,4.5,13.0,16.0,17.0,97.18538984847466,95.33624704172071,92.43916918709297,88.56635930193812
85,43,278,0,9.275933333333317,2.23606797749979,39.45883931389772,4.0,5.0990195135927845,11.045361017187261,11.180339887498949,10.0,17.11724276862369,12.041594578792296,13.0,17.0,11.0,4.0,3.0,1.0,1.0,5.0,5.0990195135927845,5.0,14.0,17.0,16.0312195418814,96.08329719571451,94.19129471453293,92.34717104492157,87.46427842267951
86,43,279,0,9.30929999999998,2.23606797749979,39.45883931389772,3.0,4.123105625617661,12.041594578792296,11.180339887498949,11.045361017187261,16.278820596099706,12.165525060596439,13.0,17.0,11.0,3.0,2.0,2.0,1.0,4.0,4.123105625617661,4.0,13.0,16.0,17.029386365926403,95.25754563287887,94.42986815621421,91.54780172128658,86.70063436907483
87,43,280,0,9.342666666666648,1.4142135623730951,41.43669871020132,3.0,4.0,12.041594578792296,12.165525060596439,11.045361017187261,17.11724276862369,13.152946437965905,13.5,17.0,11.0,3.0,3.0,1.0,1.0,5.0,4.0,4.5,14.0,17.0,17.11724276862369,94.19129471453293,93.34345183246653,90.44888059008801,87.5728268357257
88,43,281,0,9.376033333333313,1.4142135623730951,40.311288741492746,3.0,3.0,12.165525060596439,12.165525060596439,11.045361017187261,16.1245154965971,13.152946437965905,13.5,17.0,12.0,3.5,1.5,1.5,1.5,4.123105625617661,4.0,4.0,13.0,17.0,16.0312195418814,95.08417323613851,94.26027795418386,92.34717104492157,87.46427842267951
89,43,282,0,9.409399999999978,1.0,41.43669871020132,4.123105625617661,5.0990195135927845,12.165525060596439,12.165525060596439,10.0,18.110770276274835,13.038404810405298,13.5,18.0,12.0,5.0,3.0,1.0,2.0,4.0,4.0,4.0,14.0,18.0,17.029386365926403,94.13288479590966,93.26306878931231,91.26883367283708,87.46427842267951
90,43,283,0,9.442766666666644,1.0,41.10960958218893,4.123105625617661,5.0990195135927845,12.041594578792296,12.165525060596439,10.0,19.026297590440446,14.0,14.0,14.0,11.0,2.5,6.5,1.5,0.5,5.0,5.0,5.5,13.0,16.0,18.027756377319946,95.04735661763561,94.13288479590966,91.13725912051558,86.37129152675674
91,43,284,0,9.47613333333331,1.0,39.45883931389772,3.0,5.0990195135927845,13.152946437965905,12.041594578792296,11.045361017187261,18.110770276274835,13.038404810405298,13.5,19.0,13.0,5.0,2.0,2.0,3.0,5.0,5.0990195135927845,4.5,13.0,16.0,16.0312195418814,96.18731725128839,94.33981132056604,91.44397191723465,85.37564055396598
92,43,285,0,9.509499999999976,0.0,39.319206502675,3.1622776601683795,5.0990195135927845,13.152946437965905,14.035668847618199,12.041594578792296,20.223748416156685,15.132745950421556,15.0,18.0,13.0,3.5,4.5,0.5,2.5,4.123105625617661,4.123105625617661,4.0,14.0,18.0,16.0312195418814,95.33624704172071,94.53041838477179,91.6624241442479,87.82368700982668
93,43,286,0,9.542866666666642,0.0,38.3275357934736,3.1622776601683795,6.082762530298219,12.165525060596439,12.165525060596439,11.045361017187261,20.223748416156685,14.142135623730951,14.0,18.0,13.0,4.5,4.5,0.5,2.5,4.0,4.0,4.0,14.0,18.0,17.029386365926403,94.26027795418386,93.43446901438462,90.55385138137417,86.57944328765345
94,43,287,0,9.576233333333308,2.23606797749979,39.45883931389772,3.0,6.082762530298219,12.041594578792296,13.152946437965905,12.041594578792296,23.194827009486403,17.11724276862369,16.0,20.0,14.0,5.0,6.0,1.0,3.0,5.0,5.0990195135927845,5.0,14.0,17.0,18.110770276274835,94.26027795418386,92.34717104492157,90.44888059008801,85.47514258543241
95,43,288,0,9.609599999999974,4.0,40.19950248448356,3.0,6.082762530298219,12.041594578792296,12.165525060596439,12.041594578792296,25.079872407968907,19.026297590440446,17.0,17.0,13.0,3.0,10.0,4.0,1.0,2.0,2.0,2.0,15.0,18.0,17.029386365926403,93.1933474020544,92.19544457292888,90.27181176868004,86.37129152675674
96,43,289,0,9.64296666666664,3.0,42.1070065428546,4.123105625617661,5.0990195135927845,12.041594578792296,13.038404810405298,11.0,23.08679276123039,18.027756377319946,16.5,16.0,13.0,3.5,8.5,3.5,0.5,3.0,2.0,2.5,14.0,17.0,16.0312195418814,93.04837451562494,92.13576938409967,90.13878188659973,86.20904824900923
97,43,290,0,9.676333333333304,5.0990195135927845,39.6232255123179,3.0,6.082762530298219,11.40175425099138,12.36931687685298,11.0,25.079872407968907,19.026297590440446,16.5,17.0,10.0,2.5,11.5,6.5,1.5,6.082762530298219,6.082762530298219,6.0,11.0,19.0,17.029386365926403,96.62815324738438,95.88534820294495,92.07062506576133,87.96590248499699
98,43,291,0,9.709699999999971,4.123105625617661,40.311288741492746,3.0,6.082762530298219,12.165525060596439,12.165525060596439,12.041594578792296,25.179356624028344,19.1049731745428,17.0,17.0,12.0,2.5,10.5,4.5,0.5,7.0,6.082762530298219,6.5,12.0,18.0,18.027756377319946,96.33275663033837,94.53041838477179,92.65527507918802,86.57944328765345
99,43,292,0,9.743066666666635,4.123105625617661,36.49657518178932,5.0,6.082762530298219,11.180339887498949,12.165525060596439,9.055385138137417,24.186773244895647,18.110770276274835,16.0,20.0,14.0,8.0,7.0,2.0,4.0,3.1622776601683795,3.0,3.0,14.0,18.0,17.11724276862369,97.25224933131366,94.42986815621421,91.6624241442479,86.83317338436964
100,43,293,0,9.776433333333305,5.0990195135927845,38.47076812334269,5.0,6.082762530298219,12.165525060596439,12.165525060596439,9.055385138137417,25.179356624028344,19.1049731745428,16.5,21.0,15.0,9.0,7.0,2.0,5.0,3.1622776601683795,3.0,3.0,13.0,17.0,18.110770276274835,96.42095207992918,94.53041838477179,91.6624241442479,86.70063436907483
101,43,294,0,9.809799999999967,5.0990195135927845,37.48332962798263,3.1622776601683795,5.0990195135927845,12.165525060596439,12.165525060596439,11.045361017187261,24.331050121192877,19.235384061671343,16.5,21.0,15.0,7.0,6.0,2.0,5.0,4.123105625617661,3.0,3.0,14.0,18.0,16.1245154965971,94.33981132056604,92.77930803794561,91.92388155425118,87.13208364316786
102,43,295,0,9.843166666666637,4.123105625617661,36.49657518178932,3.0,6.082762530298219,12.165525060596439,12.041594578792296,12.041594578792296,25.179356624028344,19.1049731745428,17.0,20.0,14.0,5.0,8.0,3.0,3.0,4.0,4.123105625617661,3.5,13.0,18.0,16.1245154965971,96.33275663033837,93.43446901438462,91.54780172128658,87.5728268357257
103,43,296,0,9.8765333333333,5.385164807134504,37.48332962798263,4.0,6.082762530298219,12.165525060596439,13.038404810405298,10.04987562112089,25.317977802344327,19.235384061671343,16.5,20.0,14.0,7.0,8.0,3.0,4.0,3.1622776601683795,3.1622776601683795,3.0,13.0,18.0,17.11724276862369,95.33624704172071,93.53608929178085,91.6624241442479,86.70063436907483
104,43,297,0,9.909899999999968,5.0990195135927845,39.45883931389772,3.0,5.0990195135927845,11.180339887498949,12.165525060596439,12.041594578792296,25.179356624028344,20.09975124224178,17.5,20.0,14.0,5.0,8.0,3.0,3.0,4.0,3.1622776601683795,3.0,13.0,18.0,17.11724276862369,95.33624704172071,93.53608929178085,92.5418824100742,87.69264507357501
105,43,298,0,9.943266666666633,3.1622776601683795,39.45883931389772,3.1622776601683795,5.0990195135927845,13.341664064126334,13.152946437965905,12.041594578792296,23.345235059857504,18.24828759089466,16.5,21.0,15.0,6.0,5.0,0.0,5.0,4.0,4.0,3.5,14.0,18.0,16.278820596099706,94.26027795418386,92.34717104492157,90.35485598461214,87.46427842267951
106,43,299,0,9.976633333333298,2.23606797749979,39.45883931389772,3.1622776601683795,5.0990195135927845,12.165525060596439,12.165525060596439,12.041594578792296,22.360679774997898,17.26267650163207,16.0,20.0,14.0,5.0,5.0,1.0,4.0,4.123105625617661,3.1622776601683795,3.0,14.0,18.0,17.11724276862369,94.33981132056604,92.5418824100742,90.55385138137417,86.83317338436964
107,43,300,0,10.009999999999964,2.23606797749979,40.44749683231337,3.1622776601683795,5.0990195135927845,13.152946437965905,13.038404810405298,12.041594578792296,22.360679774997898,17.26267650163207,16.0,20.0,14.0,5.0,5.0,0.0,3.0,3.0,3.1622776601683795,3.0,13.0,18.0,15.132745950421556,96.42095207992918,93.64827814754524,90.6697303403953,86.70063436907483
108,43,301,0,10.04336666666663,3.605551275463989,40.44749683231337,3.0,5.0990195135927845,13.152946437965905,14.035668847618199,11.045361017187261,22.360679774997898,17.26267650163207,15.5,20.0,14.0,6.0,5.0,0.0,4.0,3.1622776601683795,3.0,3.0,14.0,18.0,15.132745950421556,95.33624704172071,94.42986815621421,91.44397191723465,87.46427842267951
109,43,302,0,10.076733333333296,4.123105625617661,41.43669871020132,3.1622776601683795,5.0990195135927845,13.341664064126334,14.142135623730951,12.0,24.186773244895647,19.1049731745428,17.0,21.0,15.0,6.0,6.0,2.0,5.0,3.1622776601683795,3.1622776601683795,3.0,13.0,17.0,16.278820596099706,96.33275663033837,94.42986815621421,91.54780172128658,86.57944328765345
110,43,303,0,10.110099999999962,5.0990195135927845,40.44749683231337,3.0,4.123105625617661,13.341664064126334,13.152946437965905,12.041594578792296,24.186773244895647,20.09975124224178,17.5,21.0,15.0,6.0,6.0,2.0,5.0,3.1622776601683795,3.1622776601683795,3.0,13.0,17.0,15.132745950421556,95.33624704172071,93.53608929178085,89.67719888578144,85.70880934886448
111,43,304,0,10.143466666666628,5.0990195135927845,40.44749683231337,4.0,6.082762530298219,12.165525060596439,14.142135623730951,10.198039027185569,25.317977802344327,19.235384061671343,16.5,21.0,15.0,8.0,7.0,1.0,5.0,4.0,4.123105625617661,3.5,13.0,17.0,17.11724276862369,95.524865872714,93.64827814754524,90.55385138137417,87.69264507357501
112,43,305,0,10.176833333333294,3.1622776601683795,40.311288741492746,3.0,3.1622776601683795,13.152946437965905,14.142135623730951,11.045361017187261,20.223748416156685,17.11724276862369,15.5,19.0,14.0,5.5,3.5,0.5,4.5,3.0,3.0,3.0,13.0,17.0,16.0312195418814,96.33275663033837,94.53041838477179,90.55385138137417,86.46964785403026
113,43,306,0,10.21019999999996,4.123105625617661,40.311288741492746,2.0,5.0990195135927845,13.152946437965905,14.142135623730951,12.041594578792296,23.194827009486403,18.110770276274835,16.0,20.0,15.0,5.5,5.5,0.5,4.5,3.0,4.0,3.5,13.0,18.0,16.1245154965971,93.43446901438462,92.5418824100742,89.67719888578144,85.58621384311844
114,43,307,0,10.243566666666624,4.123105625617661,41.43669871020132,4.0,5.0990195135927845,13.152946437965905,14.035668847618199,10.04987562112089,23.194827009486403,18.110770276274835,16.0,20.0,14.0,7.0,6.0,1.0,5.0,3.1622776601683795,4.0,3.5,13.0,18.0,16.1245154965971,95.33624704172071,93.43446901438462,91.54780172128658,87.5728268357257
115,43,308,0,10.276933333333291,4.123105625617661,39.45883931389772,2.0,4.47213595499958,13.152946437965905,13.152946437965905,12.041594578792296,22.360679774997898,18.110770276274835,16.0,20.0,14.0,5.0,5.0,1.0,5.0,2.0,3.1622776601683795,3.0,12.0,17.0,16.1245154965971,94.53041838477179,91.6624241442479,89.67719888578144,84.71717653463199
116,43,309,0,10.310299999999955,4.123105625617661,40.311288741492746,3.1622776601683795,5.0990195135927845,13.152946437965905,13.038404810405298,10.04987562112089,22.360679774997898,17.26267650163207,15.0,19.0,14.0,6.5,5.5,0.5,4.5,3.0,2.23606797749979,2.5,13.0,17.0,17.11724276862369,96.51942809610924,94.64142856064674,91.7877987534291,86.83317338436964
117,43,310,0,10.343666666666625,3.0,38.3275357934736,4.123105625617661,5.0990195135927845,13.152946437965905,13.038404810405298,10.04987562112089,22.20360331117452,17.11724276862369,15.5,19.0,14.0,6.5,5.5,0.5,4.5,3.1622776601683795,3.1622776601683795,3.5,13.0,17.0,17.11724276862369,95.42536350467836,93.53608929178085,90.6697303403953,87.82368700982668
118,43,311,0,10.377033333333287,1.0,37.48332962798263,3.1622776601683795,6.082762530298219,11.180339887498949,12.165525060596439,11.045361017187261,20.396078054371138,14.317821063276353,14.0,19.0,13.0,5.0,4.0,1.0,4.0,3.0,3.1622776601683795,3.5,13.0,17.0,16.0312195418814,96.42095207992918,94.64142856064674,91.6624241442479,87.82368700982668
119,43,312,0,10.410399999999957,1.0,38.63935817272331,2.0,5.0990195135927845,12.165525060596439,13.341664064126334,12.041594578792296,19.235384061671343,14.142135623730951,14.0,19.0,12.0,3.5,3.5,0.5,2.5,4.123105625617661,3.0,3.0,13.0,17.0,17.029386365926403,96.18731725128839,94.33981132056604,91.35097153287424,86.37129152675674
120,43,313,0,10.44376666666662,1.4142135623730951,38.47076812334269,3.0,5.0990195135927845,12.165525060596439,13.152946437965905,11.0,18.110770276274835,13.038404810405298,13.5,18.0,12.0,4.0,3.0,2.0,3.0,3.1622776601683795,3.1622776601683795,3.5,13.0,17.0,15.033296378372908,96.13012014972206,94.26027795418386,91.44397191723465,88.45903006477066
121,43,314,0,10.477133333333288,0.0,36.345563690772494,2.0,4.123105625617661,11.180339887498949,11.180339887498949,13.038404810405298,19.1049731745428,15.033296378372908,15.0,18.0,13.0,2.5,3.5,0.5,1.5,3.1622776601683795,3.1622776601683795,3.5,13.0,17.0,17.029386365926403,97.18538984847466,95.25754563287887,92.34717104492157,87.28115489611719
122,43,315,0,10.510499999999952,1.0,39.45883931389772,3.0,5.0,13.152946437965905,12.041594578792296,12.041594578792296,20.09975124224178,15.132745950421556,15.0,20.0,14.0,5.0,3.0,1.0,3.0,3.0,3.0,3.5,13.0,16.0,16.0312195418814,93.26306878931231,92.34717104492157,90.44888059008801,86.57944328765345
123,43,316,0,10.543866666666618,3.1622776601683795,39.319206502675,4.123105625617661,5.0,13.038404810405298,12.041594578792296,11.0,23.08679276123039,18.110770276274835,16.5,19.0,14.0,5.5,6.5,1.5,2.5,3.0,3.1622776601683795,3.0,14.0,17.0,16.0312195418814,92.26592003551474,91.44397191723465,89.45389874119518,85.58621384311844
124,43,317,0,10.577233333333284,2.0,39.319206502675,2.0,4.123105625617661,13.152946437965905,13.152946437965905,12.041594578792296,20.09975124224178,16.0312195418814,15.0,19.0,14.0,4.5,3.5,0.5,3.5,4.123105625617661,3.0,3.0,13.0,16.0,16.0312195418814,97.18538984847466,93.26306878931231,90.35485598461214,85.47514258543241
125,43,318,0,10.61059999999995,1.4142135623730951,38.47076812334269,3.0,5.0990195135927845,12.165525060596439,13.038404810405298,12.041594578792296,21.213203435596427,16.1245154965971,15.5,20.0,14.0,5.0,4.0,1.0,3.0,3.1622776601683795,3.0,3.0,14.0,17.0,16.0312195418814,93.1933474020544,91.35097153287424,89.45389874119518,85.47514258543241
126,43,319,0,10.643966666666616,2.23606797749979,39.319206502675,3.0,5.0990195135927845,13.152946437965905,13.152946437965905,12.041594578792296,22.20360331117452,17.11724276862369,16.0,19.0,14.0,4.5,5.5,0.5,3.5,3.0,4.123105625617661,3.5,13.0,16.0,16.0312195418814,93.13431161500041,91.26883367283708,89.27485648266257,85.37564055396598
127,43,320,0,10.677333333333282,2.23606797749979,39.45883931389772,3.0,5.0990195135927845,12.165525060596439,13.038404810405298,12.041594578792296,22.20360331117452,17.11724276862369,16.0,20.0,14.0,5.0,5.0,0.0,4.0,3.0,3.0,3.0,14.0,17.0,16.0312195418814,93.13431161500041,91.26883367283708,89.35882720806042,85.47514258543241
128,43,321,0,10.710699999999948,4.123105625617661,39.45883931389772,3.0,5.0990195135927845,12.165525060596439,13.038404810405298,12.041594578792296,24.186773244895647,19.1049731745428,17.0,21.0,15.0,6.0,6.0,1.0,4.0,4.0,3.0,3.5,14.0,17.0,16.0312195418814,94.13288479590966,92.26592003551474,90.35485598461214,86.46964785403026
129,43,322,0,10.744066666666614,1.0,39.11521443121589,4.0,6.0,11.045361017187261,12.041594578792296,11.0,22.0,16.0,15.5,16.0,13.0,3.5,7.5,2.5,0.5,3.0,4.0,4.0,14.0,17.0,15.033296378372908,94.08506789071261,93.13431161500041,91.13725912051558,87.14355971613737
130,43,323,0,10.77743333333328,1.4142135623730951,38.3275357934736,4.0,5.0,12.041594578792296,12.165525060596439,11.0,21.02379604162864,16.0312195418814,15.5,18.0,13.0,4.5,5.5,0.5,1.5,3.0,3.0,3.5,14.0,17.0,17.029386365926403,95.13148795220224,93.13431161500041,91.13725912051558,87.20665112249179
131,43,324,0,10.810799999999944,1.4142135623730951,37.48332962798263,3.0,5.0990195135927845,12.165525060596439,11.180339887498949,12.041594578792296,19.235384061671343,14.142135623730951,14.5,19.0,13.0,4.0,3.0,2.0,3.0,4.0,3.1622776601683795,3.5,13.0,17.0,16.0312195418814,94.13288479590966,92.19544457292888,90.27181176868004,86.28441342444185
132,43,325,0,10.844166666666611,1.0,38.47076812334269,3.0,5.0990195135927845,13.152946437965905,13.152946437965905,12.041594578792296,20.223748416156685,15.132745950421556,15.0,20.0,14.0,5.0,3.0,2.0,3.0,4.0,4.123105625617661,4.0,14.0,16.0,15.0,95.25754563287887,94.33981132056604,91.54780172128658,86.57944328765345
133,43,326,0,10.877533333333275,1.0,39.6232255123179,2.0,5.0990195135927845,11.180339887498949,11.045361017187261,12.041594578792296,19.235384061671343,14.142135623730951,14.0,20.0,13.0,4.5,2.5,1.5,3.5,5.0,5.0,4.5,13.0,17.0,15.033296378372908,95.13148795220224,94.26027795418386,91.35097153287424,86.37129152675674
134,43,327,0,10.910899999999945,1.0,40.44749683231337,2.23606797749979,5.0990195135927845,12.165525060596439,12.041594578792296,12.0,20.09975124224178,15.033296378372908,14.5,20.0,14.0,5.0,3.0,1.0,4.0,3.1622776601683795,3.1622776601683795,3.5,13.0,17.0,15.033296378372908,95.13148795220224,93.34345183246653,91.44397191723465,86.46964785403026
135,43,328,0,10.944266666666609,1.4142135623730951,37.656340767525464,2.0,4.123105625617661,12.165525060596439,12.36931687685298,13.038404810405298,20.223748416156685,16.1245154965971,15.5,22.0,15.0,5.5,1.5,1.5,4.5,4.123105625617661,4.0,4.0,13.0,17.0,15.033296378372908,96.08329719571451,94.33981132056604,91.44397191723465,86.46964785403026
136,43,329,0,10.977633333333277,3.0,38.47076812334269,2.23606797749979,4.123105625617661,12.165525060596439,12.165525060596439,12.041594578792296,21.213203435596427,17.11724276862369,15.5,20.0,14.0,5.0,4.0,0.0,4.0,3.0,3.0,3.0,13.0,17.0,15.033296378372908,97.18538984847466,94.33981132056604,91.44397191723465,87.5728268357257
137,43,330,0,11.01099999999994,4.123105625617661,38.2099463490856,3.0,6.0,12.041594578792296,12.041594578792296,12.0,25.019992006393608,19.026297590440446,17.0,18.0,14.0,4.0,9.0,4.0,2.0,4.0,4.123105625617661,4.0,14.0,18.0,17.11724276862369,96.13012014972206,94.33981132056604,91.35097153287424,87.46427842267951
138,43,331,0,11.044366666666606,5.0990195135927845,39.20459156782532,3.0,5.0,12.165525060596439,13.152946437965905,12.041594578792296,25.079872407968907,20.09975124224178,17.5,19.0,15.0,5.0,8.0,3.0,3.0,4.0,4.123105625617661,4.0,13.0,17.0,17.029386365926403,97.082439194738,95.1892851112981,91.26883367283708,86.37129152675674
139,43,332,0,11.077733333333272,5.0990195135927845,37.48332962798263,2.0,5.0990195135927845,12.165525060596439,12.165525060596439,13.038404810405298,25.179356624028344,20.09975124224178,17.5,21.0,15.0,5.0,7.0,2.0,4.0,4.123105625617661,4.123105625617661,4.0,14.0,17.0,16.0312195418814,97.12878049270464,94.42986815621421,91.54780172128658,87.5728268357257
140,43,333,0,11.111099999999938,3.0,40.311288741492746,4.123105625617661,5.0990195135927845,12.041594578792296,12.165525060596439,11.0,23.08679276123039,18.027756377319946,16.5,18.0,13.0,4.5,7.5,3.5,1.5,6.0,6.082762530298219,5.5,12.0,16.0,15.033296378372908,94.19129471453293,92.26592003551474,90.27181176868004,87.46427842267951
141,43,334,0,11.144466666666604,3.0,41.10960958218893,5.0990195135927845,5.0,12.041594578792296,12.041594578792296,10.0,23.021728866442675,18.027756377319946,16.5,16.0,13.0,4.5,8.5,3.5,0.5,5.0990195135927845,5.0990195135927845,5.0,13.0,16.0,16.0,94.08506789071261,93.13431161500041,91.26883367283708,87.36704184073076
142,43,335,0,11.17783333333327,2.0,38.118237105091836,4.0,5.0990195135927845,10.198039027185569,11.045361017187261,11.0,22.02271554554524,17.0,16.0,17.0,14.0,4.5,6.5,1.5,1.5,4.0,4.123105625617661,4.5,14.0,17.0,16.0312195418814,96.08329719571451,94.13288479590966,92.13576938409967,88.20430828479978
143,43,336,0,11.211199999999936,3.0,42.2965719651132,4.123105625617661,6.082762530298219,12.165525060596439,13.038404810405298,12.0,25.079872407968907,19.026297590440446,17.5,18.0,13.0,3.5,9.5,4.5,1.5,4.123105625617661,4.123105625617661,4.0,13.0,16.0,17.029386365926403,95.08417323613851,93.13431161500041,91.19758768739445,87.28115489611719
144,43,337,0,11.244566666666602,3.1622776601683795,42.1070065428546,3.0,4.0,12.165525060596439,12.041594578792296,12.0,22.02271554554524,18.027756377319946,16.5,18.0,15.0,4.5,5.5,2.5,2.5,5.0,4.0,4.5,13.0,15.0,17.0,95.04735661763561,93.08598175880189,90.13878188659973,87.14355971613737
145,43,338,0,11.277933333333268,2.0,39.11521443121589,3.0,4.0,11.045361017187261,12.165525060596439,12.041594578792296,21.02379604162864,17.029386365926403,16.0,17.0,14.0,3.5,5.5,1.5,0.5,3.0,4.0,4.0,14.0,16.0,16.0312195418814,95.0,94.02127418834527,92.04890004774636,88.09086218218096
146,43,339,0,11.311299999999934,3.0,40.11234224026316,4.0,5.0990195135927845,11.045361017187261,11.045361017187261,11.0,23.021728866442675,18.0,16.5,17.0,14.0,4.5,7.5,2.5,0.5,4.0,3.0,3.5,14.0,16.0,16.0,95.02105029939419,94.04786015641186,91.08786966440702,87.14355971613737
147,43,340,0,11.3446666666666,1.4142135623730951,38.2099463490856,3.0,4.123105625617661,11.180339887498949,12.165525060596439,13.0,21.095023109728988,17.029386365926403,16.5,20.0,16.0,5.0,3.0,1.0,4.0,3.0,3.0,3.0,15.0,16.0,16.0,95.02105029939419,93.08598175880189,91.13725912051558,87.20665112249179
148,43,341,0,11.378033333333263,0.0,37.21558813185679,3.0,5.0990195135927845,11.045361017187261,11.180339887498949,13.0,21.02379604162864,16.0,16.0,19.0,15.0,4.0,4.0,0.0,2.0,4.0,3.0,3.5,15.0,16.0,15.0,94.04786015641186,92.13576938409967,90.27181176868004,86.37129152675674
149,43,342,0,11.411399999999931,1.0,38.3275357934736,4.0,6.0,11.045361017187261,12.165525060596439,12.041594578792296,22.090722034374522,16.1245154965971,16.0,20.0,15.0,5.5,4.5,1.5,2.5,4.0,3.0,3.5,15.0,16.0,16.0,95.04735661763561,93.08598175880189,90.13878188659973,86.28441342444185
150,43,343,0,11.444766666666595,0.0,37.21558813185679,3.0,6.082762530298219,11.045361017187261,11.180339887498949,12.041594578792296,21.095023109728988,15.033296378372908,15.0,19.0,15.0,5.0,4.0,2.0,3.0,4.123105625617661,3.1622776601683795,3.0,15.0,16.0,16.0,93.02150289046077,92.0869154657707,90.27181176868004,86.37129152675674
151,43,344,0,11.478133333333265,1.0,36.22154055254967,4.0,6.0,11.045361017187261,11.180339887498949,12.0,22.02271554554524,16.0312195418814,16.0,19.0,15.0,5.0,5.0,1.0,2.0,4.0,3.0,3.5,14.0,15.0,15.033296378372908,96.02083107326243,94.08506789071261,92.13576938409967,87.28115489611719
152,43,345,0,11.511499999999929,0.0,36.345563690772494,3.0,6.082762530298219,11.045361017187261,11.045361017187261,13.038404810405298,22.090722034374522,16.0312195418814,16.0,20.0,15.0,4.5,4.5,1.5,2.5,3.0,4.0,4.0,15.0,16.0,16.0,93.04837451562494,93.13431161500041,91.26883367283708,86.37129152675674
153,43,346,0,11.544866666666596,0.0,36.22154055254967,4.123105625617661,6.082762530298219,11.045361017187261,11.045361017187261,12.0,22.090722034374522,16.0312195418814,16.0,18.0,14.0,4.0,6.0,0.0,1.0,4.123105625617661,4.0,4.5,14.0,16.0,16.0312195418814,95.08417323613851,92.0869154657707,90.19977827023745,86.28441342444185
154,43,347,0,11.57823333333326,0.0,38.05259518088089,4.123105625617661,6.0,11.045361017187261,12.041594578792296,12.041594578792296,22.0,16.0,16.0,16.0,14.0,3.0,7.0,1.0,0.0,3.0,3.1622776601683795,3.0,15.0,17.0,16.0312195418814,94.04786015641186,93.13431161500041,91.19758768739445,87.28115489611719
155,43,348,0,11.611599999999926,1.0,38.2099463490856,3.1622776601683795,6.0,11.045361017187261,12.165525060596439,12.041594578792296,22.0,16.0,15.5,17.0,13.0,3.0,7.0,1.0,1.0,3.0,4.123105625617661,4.0,14.0,17.0,17.029386365926403,95.08417323613851,93.1933474020544,91.26883367283708,87.36704184073076
156,43,349,0,11.644966666666592,1.0,38.05259518088089,4.0,7.0,11.0,12.041594578792296,11.0,23.0,16.0,15.5,15.0,13.0,3.0,9.0,2.0,1.0,4.0,4.123105625617661,3.5,13.0,16.0,16.0312195418814,94.08506789071261,94.19129471453293,92.19544457292888,87.20665112249179
157,43,350,0,11.678333333333258,1.0,38.01315561749642,4.0,7.0710678118654755,11.045361017187261,11.045361017187261,12.0,24.020824298928627,17.0,16.5,15.0,14.0,2.5,9.5,2.5,0.5,3.0,3.1622776601683795,3.5,14.0,16.0,18.0,94.08506789071261,93.1933474020544,91.19758768739445,87.28115489611719
158,43,351,0,11.711699999999924,1.4142135623730951,39.11521443121589,3.0,6.0,12.041594578792296,12.165525060596439,12.0,22.02271554554524,16.0312195418814,15.5,15.0,12.0,1.5,8.5,2.5,0.5,4.0,3.1622776601683795,3.5,13.0,16.0,17.029386365926403,95.08417323613851,93.1933474020544,91.35097153287424,86.46964785403026
159,43,352,0,11.74506666666659,1.0,37.12142238654117,3.0,5.0,11.045361017187261,12.165525060596439,13.0,21.02379604162864,16.0312195418814,16.0,16.0,13.0,1.5,6.5,1.5,0.5,3.0,3.0,3.0,13.0,15.0,15.033296378372908,95.1892851112981,93.26306878931231,91.35097153287424,87.46427842267951
160,43,353,0,11.778433333333256,0.0,35.22782990761707,4.123105625617661,5.0990195135927845,11.180339887498949,11.180339887498949,12.041594578792296,21.213203435596427,16.1245154965971,16.0,18.0,14.0,4.0,5.0,0.0,2.0,4.0,3.0,3.5,14.0,17.0,17.029386365926403,95.1892851112981,94.33981132056604,92.34717104492157,87.36704184073076
161,43,354,0,11.811799999999922,0.0,40.19950248448356,4.0,6.0,12.041594578792296,12.165525060596439,12.041594578792296,22.02271554554524,16.0312195418814,16.0,17.0,13.0,3.0,7.0,1.0,0.0,5.0990195135927845,5.0990195135927845,5.0,14.0,16.0,16.0312195418814,94.19129471453293,93.26306878931231,91.35097153287424,87.36704184073076
162,43,355,0,11.845166666666588,1.0,40.311288741492746,4.0,5.0,13.038404810405298,12.165525060596439,12.041594578792296,21.095023109728988,16.1245154965971,16.0,19.0,14.0,4.5,4.5,0.5,1.5,5.0,5.0990195135927845,5.0,13.0,17.0,16.0312195418814,95.1892851112981,93.26306878931231,90.27181176868004,86.37129152675674
163,43,356,0,11.878533333333252,0.0,40.19950248448356,3.0,5.0990195135927845,12.041594578792296,13.152946437965905,13.0,21.02379604162864,16.0,16.0,18.0,14.0,3.0,5.0,0.0,1.0,5.0,6.082762530298219,6.0,12.0,15.0,17.029386365926403,94.19129471453293,93.26306878931231,90.27181176868004,85.37564055396598
164,43,357,0,11.91189999999992,0.0,38.3275357934736,3.1622776601683795,6.082762530298219,12.041594578792296,13.152946437965905,12.0,21.095023109728988,15.033296378372908,15.0,18.0,13.0,3.5,5.5,0.5,1.5,4.123105625617661,4.123105625617661,4.0,13.0,16.0,16.0312195418814,95.1892851112981,93.26306878931231,91.26883367283708,87.46427842267951
165,43,358,0,11.945266666666583,1.0,39.20459156782532,4.123105625617661,4.123105625617661,11.180339887498949,11.045361017187261,12.0,21.095023109728988,17.029386365926403,16.5,18.0,14.0,4.0,5.0,1.0,2.0,4.123105625617661,4.123105625617661,4.5,12.0,16.0,16.0312195418814,98.08159868191383,95.25754563287887,93.34345183246653,88.45903006477066
166,43,359,0,11.978633333333253,1.0,39.319206502675,3.0,5.0,12.165525060596439,12.165525060596439,12.165525060596439,20.223748416156685,15.297058540778355,15.0,19.0,14.0,4.5,3.5,1.5,3.5,4.123105625617661,4.0,4.5,13.0,17.0,15.033296378372908,96.08329719571451,94.19129471453293,92.26592003551474,87.46427842267951
167,43,360,0,12.011999999999915,1.4142135623730951,39.45883931389772,4.0,6.0,12.165525060596439,12.041594578792296,12.041594578792296,21.095023109728988,15.132745950421556,15.5,20.0,14.0,5.0,4.0,1.0,3.0,4.123105625617661,4.123105625617661,4.5,13.0,16.0,17.0,97.12878049270464,94.26027795418386,92.26592003551474,87.36704184073076
168,43,361,0,12.045366666666585,1.0,38.47076812334269,3.0,4.123105625617661,12.165525060596439,12.165525060596439,13.038404810405298,20.223748416156685,16.1245154965971,16.0,20.0,14.0,4.0,3.0,1.0,3.0,4.0,4.0,4.0,12.0,16.0,15.033296378372908,95.13148795220224,93.26306878931231,91.44397191723465,87.5728268357257
169,43,362,0,12.078733333333249,1.0,37.48332962798263,4.0,5.0990195135927845,11.045361017187261,12.041594578792296,12.0,21.095023109728988,16.0312195418814,16.0,20.0,14.0,5.0,4.0,1.0,2.0,4.123105625617661,4.123105625617661,4.0,13.0,16.0,15.033296378372908,96.13012014972206,94.26027795418386,91.44397191723465,88.56635930193812
170,43,363,0,12.112099999999916,1.0,39.20459156782532,3.0,5.0,11.045361017187261,12.165525060596439,13.038404810405298,21.095023109728988,16.1245154965971,16.0,18.0,14.0,3.0,5.0,0.0,1.0,4.0,4.123105625617661,4.0,13.0,17.0,16.0312195418814,95.1892851112981,93.34345183246653,91.26883367283708,86.37129152675674
171,43,364,0,12.14546666666658,0.0,38.2099463490856,5.0,6.082762530298219,11.180339887498949,11.180339887498949,11.045361017187261,22.090722034374522,16.0312195418814,16.0,18.0,14.0,5.0,6.0,0.0,1.0,4.0,4.123105625617661,4.0,13.0,16.0,17.029386365926403,95.1892851112981,93.26306878931231,91.35097153287424,87.46427842267951
172,43,365,0,12.178833333333246,1.4142135623730951,38.63935817272331,2.23606797749979,5.0990195135927845,12.165525060596439,13.152946437965905,12.0,20.223748416156685,15.132745950421556,14.5,19.0,12.0,3.5,4.5,0.5,2.5,4.0,4.0,3.5,14.0,17.0,16.0312195418814,95.13148795220224,94.26027795418386,91.35097153287424,87.46427842267951
173,43,366,0,12.212199999999912,0.0,40.44749683231337,3.1622776601683795,5.0990195135927845,12.165525060596439,12.165525060596439,12.041594578792296,20.223748416156685,15.132745950421556,15.0,19.0,13.0,4.0,4.0,1.0,3.0,5.0990195135927845,5.0990195135927845,4.5,13.0,17.0,17.029386365926403,95.25754563287887,93.43446901438462,90.6697303403953,86.70063436907483
174,43,367,0,12.245566666666578,1.0,39.45883931389772,3.0,5.0990195135927845,13.152946437965905,14.142135623730951,12.041594578792296,20.223748416156685,15.132745950421556,15.0,20.0,14.0,5.0,3.0,1.0,4.0,3.0,4.0,3.5,12.0,16.0,17.029386365926403,95.25754563287887,93.43446901438462,90.44888059008801,86.57944328765345
175,43,368,0,12.278933333333244,1.0,38.3275357934736,3.0,6.082762530298219,12.165525060596439,13.152946437965905,12.0,21.095023109728988,15.033296378372908,15.0,17.0,12.0,2.5,6.5,1.5,1.5,4.0,4.123105625617661,4.0,13.0,17.0,16.0312195418814,97.18538984847466,95.33624704172071,92.34717104492157,86.46964785403026
176,43,369,0,12.31229999999991,1.0,41.43669871020132,3.0,6.082762530298219,13.152946437965905,13.152946437965905,11.045361017187261,20.223748416156685,14.142135623730951,14.0,19.0,13.0,5.0,4.0,1.0,3.0,5.0,5.0,5.0,13.0,16.0,16.1245154965971,95.25754563287887,93.43446901438462,90.55385138137417,87.69264507357501
177,43,370,0,12.345666666666576,1.0,40.44749683231337,2.23606797749979,6.082762530298219,13.152946437965905,14.142135623730951,13.038404810405298,22.20360331117452,16.1245154965971,15.5,20.0,14.0,4.0,5.0,1.0,3.0,4.0,4.0,4.0,14.0,17.0,16.1245154965971,95.1892851112981,93.43446901438462,90.44888059008801,86.57944328765345
178,43,371,0,12.379033333333242,0.0,40.19950248448356,3.1622776601683795,6.082762530298219,13.038404810405298,13.341664064126334,12.0,21.095023109728988,15.033296378372908,15.0,16.0,12.0,2.0,7.0,1.0,0.0,4.123105625617661,4.123105625617661,4.0,13.0,18.0,16.1245154965971,94.19129471453293,93.34345183246653,91.44397191723465,86.57944328765345
179,43,372,0,12.412399999999908,0.0,38.118237105091836,5.0,6.0,11.045361017187261,12.165525060596439,10.04987562112089,21.02379604162864,15.033296378372908,15.0,15.0,12.0,3.5,7.5,2.5,0.5,4.0,4.0,4.0,14.0,18.0,17.11724276862369,95.13148795220224,93.26306878931231,91.35097153287424,87.46427842267951
180,43,373,0,12.445766666666572,0.0,42.190046219457976,3.0,6.082762530298219,13.152946437965905,13.152946437965905,11.0,20.024984394500787,14.0,14.0,15.0,11.0,2.0,7.0,2.0,0.0,4.0,4.123105625617661,4.0,13.0,18.0,16.0312195418814,92.26592003551474,93.34345183246653,90.55385138137417,87.5728268357257
181,43,374,0,12.47913333333324,1.0,38.47076812334269,3.0,5.0990195135927845,12.041594578792296,12.165525060596439,12.0,20.09975124224178,15.033296378372908,15.0,17.0,11.0,2.0,6.0,1.0,0.0,4.123105625617661,4.0,4.0,14.0,18.0,16.1245154965971,94.19129471453293,92.34717104492157,90.44888059008801,86.57944328765345
182,43,375,0,12.512499999999903,1.0,38.47076812334269,3.0,5.0990195135927845,12.165525060596439,12.165525060596439,11.045361017187261,19.235384061671343,14.142135623730951,14.0,18.0,12.0,4.0,4.0,1.0,3.0,4.123105625617661,4.0,4.0,14.0,17.0,16.0312195418814,97.32933781753577,96.51942809610924,92.65527507918802,87.5728268357257
183,43,376,0,12.545866666666573,1.0,38.63935817272331,2.0,5.0990195135927845,12.165525060596439,12.165525060596439,12.041594578792296,19.235384061671343,14.142135623730951,14.0,20.0,13.0,4.5,2.5,2.5,3.5,4.123105625617661,4.123105625617661,3.5,13.0,17.0,16.0312195418814,97.32933781753577,95.524865872714,92.65527507918802,87.82368700982668
184,43,377,0,12.579233333333235,0.0,38.47076812334269,3.0,5.385164807134504,12.165525060596439,13.152946437965905,11.180339887498949,19.4164878389476,14.142135623730951,14.0,19.0,13.0,5.0,3.0,2.0,4.0,5.0,4.0,4.5,13.0,17.0,16.0312195418814,97.32933781753577,94.53041838477179,91.6624241442479,86.70063436907483
185,43,378,0,12.612599999999905,1.0,37.48332962798263,3.1622776601683795,4.0,11.180339887498949,12.165525060596439,12.0,19.1049731745428,15.132745950421556,15.0,19.0,13.0,4.0,3.0,1.0,3.0,3.0,4.0,4.0,12.0,16.0,16.0312195418814,95.42536350467836,93.43446901438462,90.55385138137417,87.69264507357501
186,43,379,0,12.645966666666569,1.4142135623730951,38.47076812334269,3.0,4.123105625617661,12.165525060596439,13.152946437965905,11.045361017187261,17.26267650163207,13.152946437965905,13.5,19.0,13.0,5.0,1.0,2.0,4.0,5.0990195135927845,4.123105625617661,4.0,13.0,17.0,15.033296378372908,94.19129471453293,93.43446901438462,91.54780172128658,87.5728268357257
187,43,380,0,12.679333333333236,1.0,38.63935817272331,3.0,4.123105625617661,13.152946437965905,13.152946437965905,12.041594578792296,19.235384061671343,15.132745950421556,15.0,21.0,14.0,5.5,1.5,2.5,4.5,4.123105625617661,4.123105625617661,4.5,13.0,17.0,15.033296378372908,96.25487000666512,93.43446901438462,91.54780172128658,86.70063436907483
188,43,381,0,12.7126999999999,0.0,37.48332962798263,3.1622776601683795,6.082762530298219,11.180339887498949,12.165525060596439,11.045361017187261,20.223748416156685,14.142135623730951,14.0,20.0,14.0,6.0,3.0,2.0,4.0,5.0,4.123105625617661,4.0,13.0,18.0,15.0,96.33275663033837,94.53041838477179,92.65527507918802,88.68483523128404
189,43,382,0,12.746066666666566,1.0,37.48332962798263,3.1622776601683795,4.123105625617661,11.045361017187261,12.165525060596439,12.0,18.110770276274835,14.035668847618199,14.5,20.0,14.0,5.0,1.0,2.0,3.0,4.123105625617661,4.123105625617661,4.5,13.0,18.0,15.132745950421556,97.25224933131366,94.33981132056604,92.43916918709297,87.5728268357257
190,43,383,0,12.779433333333232,1.0,37.48332962798263,3.0,4.123105625617661,11.180339887498949,11.180339887498949,12.0,19.1049731745428,15.033296378372908,15.0,20.0,14.0,5.0,2.0,1.0,3.0,4.123105625617661,4.123105625617661,4.0,12.0,17.0,15.132745950421556,96.25487000666512,95.42536350467836,92.5418824100742,87.69264507357501
191,43,384,0,12.812799999999898,2.0,36.345563690772494,3.0,4.123105625617661,10.198039027185569,11.180339887498949,12.0,21.02379604162864,17.0,16.0,18.0,13.0,3.5,5.5,1.5,1.5,4.0,4.123105625617661,4.0,13.0,17.0,15.033296378372908,98.18350166906862,95.33624704172071,92.43916918709297,87.46427842267951
192,43,385,0,12.846166666666564,1.0,35.22782990761707,3.0,4.123105625617661,10.04987562112089,10.198039027185569,12.041594578792296,20.09975124224178,16.0312195418814,15.5,17.0,13.0,3.0,5.0,1.0,1.0,4.123105625617661,5.0990195135927845,4.5,13.0,17.0,17.029386365926403,97.25224933131366,95.25754563287887,92.34717104492157,88.36288813749809
193,43,386,0,12.87953333333323,1.0,37.33630940518894,3.1622776601683795,4.123105625617661,11.180339887498949,11.180339887498949,13.038404810405298,21.02379604162864,17.0,16.5,18.0,13.0,2.5,5.5,1.5,1.5,4.0,4.123105625617661,4.0,13.0,18.0,15.132745950421556,94.08506789071261,93.1933474020544,91.26883367283708,87.36704184073076
194,43,387,0,12.912899999999896,0.0,36.345563690772494,3.1622776601683795,4.123105625617661,10.198039027185569,10.198039027185569,12.0,19.1049731745428,15.033296378372908,15.0,18.0,13.0,3.5,3.5,0.5,1.5,4.123105625617661,3.1622776601683795,3.5,12.0,17.0,16.0312195418814,100.17983829094555,97.32933781753577,93.34345183246653,88.36288813749809
195,43,388,0,12.946266666666562,0.0,37.656340767525464,2.23606797749979,4.123105625617661,12.165525060596439,12.165525060596439,12.041594578792296,18.24828759089466,14.142135623730951,14.0,20.0,13.0,4.5,1.5,1.5,3.5,4.123105625617661,5.0990195135927845,4.5,12.0,17.0,15.033296378372908,98.41239759298622,95.63472172804185,91.7877987534291,87.82368700982668
196,43,389,0,12.979633333333227,1.0,37.656340767525464,3.0,5.0990195135927845,12.36931687685298,12.165525060596439,11.045361017187261,19.235384061671343,14.142135623730951,14.0,20.0,13.0,5.5,2.5,2.5,4.5,4.0,4.123105625617661,4.0,14.0,18.0,15.033296378372908,97.25224933131366,94.42986815621421,91.6624241442479,87.82368700982668
197,43,390,0,13.012999999999892,0.0,36.6742416417845,2.23606797749979,4.47213595499958,12.165525060596439,12.165525060596439,12.041594578792296,18.439088914585774,14.142135623730951,14.0,20.0,13.0,4.5,1.5,1.5,3.5,3.1622776601683795,4.123105625617661,4.0,13.0,17.0,16.0312195418814,95.33624704172071,93.53608929178085,91.6624241442479,87.82368700982668
198,43,391,0,13.04636666666656,0.0,38.63935817272331,2.23606797749979,5.0990195135927845,12.165525060596439,12.165525060596439,12.0,19.1049731745428,14.035668847618199,14.0,20.0,13.0,4.5,2.5,1.5,3.5,4.0,4.0,4.0,14.0,18.0,18.027756377319946,97.18538984847466,95.42536350467836,92.5418824100742,88.45903006477066
199,43,392,0,13.079733333333223,1.0,39.45883931389772,3.1622776601683795,5.0990195135927845,13.152946437965905,12.165525060596439,11.045361017187261,20.223748416156685,15.132745950421556,14.5,20.0,14.0,6.0,3.0,2.0,5.0,5.0,5.0990195135927845,5.0,15.0,19.0,18.027756377319946,95.25754563287887,93.43446901438462,90.55385138137417,86.70063436907483
200,43,393,0,13.113099999999893,1.0,38.63935817272331,4.123105625617661,5.385164807134504,12.165525060596439,12.165525060596439,10.0,20.223748416156685,15.033296378372908,14.5,20.0,13.0,6.5,3.5,1.5,3.5,5.0,5.0990195135927845,5.0,14.0,18.0,17.029386365926403,97.41663102366043,96.62815324738438,93.7709976485267,87.82368700982668
201,43,394,0,13.146466666666557,1.0,36.345563690772494,3.0,6.082762530298219,11.180339887498949,12.165525060596439,11.045361017187261,21.095023109728988,15.033296378372908,14.5,19.0,14.0,5.5,4.5,0.5,3.5,5.0990195135927845,4.0,4.0,14.0,18.0,16.1245154965971,96.18731725128839,95.42536350467836,92.5418824100742,87.5728268357257
202,43,395,0,13.179833333333224,1.4142135623730951,36.49657518178932,2.0,4.123105625617661,11.180339887498949,11.180339887498949,12.041594578792296,19.235384061671343,15.132745950421556,14.5,20.0,14.0,5.0,2.0,2.0,4.0,4.123105625617661,5.0990195135927845,4.5,15.0,19.0,15.132745950421556,96.25487000666512,94.42986815621421,92.5418824100742,88.56635930193812
203,43,396,0,13.213199999999889,0.0,36.49657518178932,3.0,5.0990195135927845,10.198039027185569,10.44030650891055,13.0,21.02379604162864,16.0,16.0,19.0,13.0,3.0,5.0,1.0,1.0,5.0990195135927845,4.0,4.5,15.0,19.0,17.029386365926403,98.18350166906862,96.33275663033837,93.43446901438462,88.45903006477066
204,43,397,0,13.246566666666554,1.0,36.49657518178932,3.1622776601683795,6.082762530298219,11.180339887498949,11.045361017187261,12.0,22.090722034374522,16.0312195418814,15.5,21.0,15.0,6.0,4.0,1.0,4.0,4.0,4.123105625617661,4.0,15.0,18.0,17.26267650163207,96.18731725128839,94.33981132056604,93.53608929178085,88.56635930193812
205,43,398,0,13.27993333333322,3.0,37.48332962798263,2.0,4.123105625617661,12.165525060596439,12.165525060596439,12.041594578792296,21.095023109728988,17.029386365926403,15.5,21.0,15.0,6.0,3.0,0.0,5.0,4.0,4.123105625617661,4.0,14.0,18.0,17.029386365926403,97.25224933131366,94.42986815621421,91.54780172128658,87.5728268357257
206,43,399,0,13.313299999999886,4.0,39.319206502675,2.23606797749979,4.123105625617661,13.152946437965905,13.152946437965905,12.0,22.090722034374522,18.027756377319946,16.0,20.0,15.0,5.5,4.5,0.5,5.5,4.123105625617661,4.123105625617661,3.5,14.0,17.0,17.029386365926403,95.1892851112981,93.26306878931231,90.27181176868004,86.37129152675674
207,43,400,0,13.346666666666552,3.1622776601683795,38.47076812334269,4.0,6.082762530298219,12.165525060596439,12.041594578792296,10.04987562112089,23.194827009486403,17.11724276862369,15.5,20.0,14.0,7.0,6.0,0.0,4.0,7.0710678118654755,6.082762530298219,6.5,14.0,17.0,17.029386365926403,95.25754563287887,93.43446901438462,90.55385138137417,86.70063436907483
208,43,401,0,13.380033333333218,2.23606797749979,39.45883931389772,3.0,6.082762530298219,12.041594578792296,13.152946437965905,11.045361017187261,22.20360331117452,16.1245154965971,15.0,20.0,14.0,6.0,5.0,0.0,4.0,6.0,5.0990195135927845,5.5,14.0,18.0,18.027756377319946,98.18350166906862,96.42095207992918,91.54780172128658,87.69264507357501
209,43,402,0,13.413399999999884,2.23606797749979,39.45883931389772,4.0,6.082762530298219,12.165525060596439,13.152946437965905,10.04987562112089,22.20360331117452,16.1245154965971,15.0,20.0,14.0,7.0,5.0,0.0,4.0,4.123105625617661,4.123105625617661,4.5,13.0,16.0,15.033296378372908,98.41239759298622,96.62815324738438,92.5418824100742,87.69264507357501
210,43,403,0,13.44676666666655,3.1622776601683795,38.3275357934736,3.0,4.123105625617661,11.180339887498949,12.165525060596439,11.045361017187261,21.213203435596427,17.11724276862369,15.5,20.0,15.0,6.5,3.5,0.5,4.5,4.0,4.123105625617661,4.0,14.0,17.0,17.11724276862369,97.25224933131366,94.33981132056604,92.43916918709297,87.5728268357257
211,43,404,0,13.480133333333216,3.1622776601683795,38.47076812334269,2.0,5.0990195135927845,12.165525060596439,12.165525060596439,12.041594578792296,22.20360331117452,17.11724276862369,15.5,20.0,14.0,5.0,5.0,0.0,4.0,5.0990195135927845,4.123105625617661,4.5,14.0,18.0,17.11724276862369,97.12878049270464,94.26027795418386,91.44397191723465,87.5728268357257
212,43,405,0,13.51349999999988,2.23606797749979,38.2099463490856,3.0,4.123105625617661,12.165525060596439,12.165525060596439,11.045361017187261,20.223748416156685,16.1245154965971,15.0,17.0,13.0,4.0,5.0,1.0,2.0,5.0990195135927845,5.0990195135927845,5.5,13.0,17.0,16.0312195418814,93.13431161500041,92.26592003551474,89.27485648266257,86.37129152675674
213,43,406,0,13.546866666666547,0.0,38.3275357934736,4.0,5.0990195135927845,11.045361017187261,11.180339887498949,11.045361017187261,20.09975124224178,15.033296378372908,15.0,18.0,13.0,4.5,4.5,0.5,1.5,5.0990195135927845,5.0990195135927845,5.0,13.0,17.0,16.0312195418814,95.13148795220224,93.26306878931231,91.26883367283708,87.28115489611719
214,43,407,0,13.580233333333211,0.0,39.45883931389772,4.123105625617661,5.0990195135927845,13.038404810405298,12.165525060596439,11.0,20.09975124224178,15.033296378372908,15.0,19.0,13.0,5.0,4.0,1.0,2.0,8.06225774829855,7.0710678118654755,7.5,14.0,18.0,15.033296378372908,98.32598842625484,95.524865872714,92.65527507918802,87.69264507357501
215,43,408,0,13.61359999999988,1.0,38.47076812334269,2.0,5.0990195135927845,12.165525060596439,12.165525060596439,12.0,19.1049731745428,14.035668847618199,14.0,20.0,14.0,5.0,2.0,2.0,4.0,8.06225774829855,8.246211251235321,8.0,12.0,17.0,16.0312195418814,96.33275663033837,94.53041838477179,91.6624241442479,86.70063436907483
216,43,409,0,13.646966666666543,1.4142135623730951,39.319206502675,2.0,5.0,13.152946437965905,13.152946437965905,12.041594578792296,20.09975124224178,15.132745950421556,14.5,19.0,14.0,4.5,3.5,1.5,3.5,5.0990195135927845,5.0,5.5,14.0,17.0,18.110770276274835,95.13148795220224,93.26306878931231,91.35097153287424,86.46964785403026
217,43,410,0,13.68033333333321,1.4142135623730951,40.311288741492746,2.0,4.123105625617661,12.165525060596439,12.165525060596439,12.041594578792296,19.235384061671343,15.132745950421556,14.5,19.0,14.0,4.5,2.5,1.5,3.5,7.0,7.0710678118654755,7.0,14.0,18.0,15.033296378372908,96.25487000666512,94.42986815621421,91.54780172128658,87.69264507357501
218,43,411,0,13.713699999999877,1.0,40.311288741492746,3.0,6.082762530298219,11.045361017187261,12.165525060596439,11.045361017187261,20.223748416156685,14.142135623730951,14.0,19.0,14.0,5.5,3.5,1.5,3.5,7.0710678118654755,7.0710678118654755,7.0,13.0,16.0,16.0312195418814,97.41663102366043,95.63472172804185,91.6624241442479,86.83317338436964
219,43,412,0,13.747066666666544,1.4142135623730951,38.47076812334269,3.0,5.0990195135927845,12.165525060596439,12.041594578792296,12.041594578792296,21.213203435596427,16.1245154965971,15.5,19.0,13.0,4.0,5.0,0.0,3.0,6.082762530298219,6.082762530298219,5.5,14.0,18.0,18.110770276274835,96.25487000666512,93.43446901438462,90.55385138137417,86.46964785403026
220,43,413,0,13.780433333333209,0.0,39.319206502675,4.123105625617661,6.082762530298219,12.165525060596439,13.152946437965905,11.045361017187261,21.213203435596427,15.132745950421556,15.0,19.0,14.0,5.5,4.5,1.5,3.5,5.0,5.0990195135927845,5.0,14.0,18.0,17.11724276862369,97.25224933131366,95.42536350467836,92.43916918709297,88.36288813749809
221,43,414,0,13.813799999999874,0.0,39.319206502675,5.0990195135927845,5.0990195135927845,12.041594578792296,13.152946437965905,9.055385138137417,19.235384061671343,14.142135623730951,14.0,19.0,14.0,7.5,2.5,1.5,3.5,6.082762530298219,6.082762530298219,6.0,14.0,18.0,15.132745950421556,96.51942809610924,94.76286192385707,92.07062506576133,86.14522621712709
222,43,415,0,13.84716666666654,1.0,39.319206502675,4.0,5.0990195135927845,12.165525060596439,13.152946437965905,11.045361017187261,20.223748416156685,15.132745950421556,15.0,19.0,14.0,5.5,3.5,1.5,3.5,5.0990195135927845,5.0990195135927845,5.0,14.0,17.0,16.0312195418814,97.32933781753577,94.53041838477179,91.6624241442479,86.57944328765345
223,43,416,0,13.880533333333206,1.4142135623730951,40.44749683231337,3.0,6.082762530298219,11.180339887498949,12.041594578792296,10.198039027185569,20.396078054371138,14.317821063276353,13.5,19.0,13.0,6.0,4.0,1.0,4.0,8.0,8.06225774829855,7.5,14.0,17.0,16.0312195418814,96.33275663033837,94.53041838477179,91.6624241442479,86.70063436907483
224,43,417,0,13.913899999999872,3.1622776601683795,40.311288741492746,3.0,5.0990195135927845,12.165525060596439,12.165525060596439,10.04987562112089,21.213203435596427,16.1245154965971,14.5,19.0,14.0,6.5,4.5,0.5,4.5,6.082762530298219,7.0710678118654755,7.0,13.0,18.0,16.0312195418814,97.62171889492625,95.88534820294495,92.07062506576133,88.11923740024082
225,43,418,0,13.947266666666538,4.0,38.3275357934736,4.123105625617661,6.082762530298219,11.180339887498949,12.165525060596439,9.055385138137417,23.194827009486403,17.11724276862369,15.0,19.0,14.0,7.5,6.5,0.5,4.5,4.123105625617661,5.0990195135927845,5.0,14.0,18.0,16.0312195418814,97.41663102366043,95.63472172804185,92.77930803794561,87.82368700982668
226,43,419,0,13.980633333333204,3.1622776601683795,38.47076812334269,5.0990195135927845,6.0,13.152946437965905,13.152946437965905,9.055385138137417,23.194827009486403,17.26267650163207,15.5,20.0,14.0,8.0,6.0,0.0,4.0,5.0990195135927845,4.123105625617661,4.5,14.0,17.0,17.029386365926403,97.41663102366043,95.75489543621255,91.92388155425118,87.96590248499699
227,43,420,0,14.01399999999987,4.123105625617661,40.44749683231337,4.0,6.082762530298219,12.165525060596439,13.038404810405298,9.055385138137417,23.194827009486403,17.11724276862369,15.0,20.0,14.0,8.0,6.0,1.0,5.0,4.0,4.123105625617661,4.0,13.0,17.0,17.11724276862369,97.41663102366043,94.64142856064674,91.7877987534291,87.82368700982668
228,43,421,0,14.047366666666536,3.1622776601683795,38.3275357934736,4.0,5.0990195135927845,12.165525060596439,13.152946437965905,9.219544457292887,21.37755832643195,16.278820596099706,14.5,19.0,14.0,7.5,4.5,0.5,4.5,5.0990195135927845,4.123105625617661,4.0,14.0,17.0,15.033296378372908,99.50376877284599,97.73944955850733,93.90420650854784,88.11923740024082
229,43,422,0,14.0807333333332,1.0,37.48332962798263,3.0,6.082762530298219,12.165525060596439,12.165525060596439,10.198039027185569,19.4164878389476,13.341664064126334,13.0,19.0,13.0,6.0,3.0,2.0,4.0,5.0,4.123105625617661,4.0,14.0,17.0,16.1245154965971,96.51942809610924,93.7709976485267,91.0823802938856,86.97700845625813
230,43,423,0,14.114099999999867,1.0,39.6232255123179,4.123105625617661,5.0990195135927845,11.180339887498949,12.165525060596439,10.04987562112089,18.24828759089466,13.152946437965905,13.5,19.0,12.0,5.5,2.5,1.5,3.5,5.0,4.123105625617661,4.0,14.0,18.0,16.0312195418814,99.50376877284599,96.74709297958259,92.91393867445294,87.96590248499699
231,43,424,0,14.147466666666531,1.4142135623730951,40.44749683231337,4.123105625617661,5.0990195135927845,11.180339887498949,11.180339887498949,9.055385138137417,17.46424919657298,12.36931687685298,12.5,18.0,12.0,6.0,2.0,2.0,3.0,6.082762530298219,5.0990195135927845,5.5,13.0,17.0,17.029386365926403,97.25224933131366,95.42536350467836,92.5418824100742,87.5728268357257
232,43,425,0,14.1808333333332,1.4142135623730951,37.48332962798263,4.0,4.123105625617661,11.180339887498949,12.165525060596439,10.04987562112089,17.26267650163207,13.152946437965905,13.5,18.0,12.0,5.0,2.0,2.0,3.0,4.0,4.123105625617661,4.5,13.0,17.0,17.029386365926403,97.25224933131366,95.42536350467836,92.43916918709297,89.45389874119518
233,43,426,0,14.214199999999863,2.23606797749979,41.593268686170845,3.0,4.123105625617661,13.152946437965905,13.152946437965905,11.045361017187261,16.278820596099706,12.165525060596439,13.0,18.0,11.0,3.5,1.5,1.5,2.5,5.0,4.123105625617661,4.5,14.0,18.0,15.033296378372908,95.1892851112981,93.34345183246653,90.35485598461214,87.46427842267951
234,43,427,0,14.24756666666653,1.0,38.47076812334269,3.0,4.123105625617661,12.165525060596439,11.045361017187261,10.198039027185569,17.46424919657298,13.341664064126334,13.0,18.0,12.0,5.0,2.0,2.0,3.0,4.123105625617661,5.0990195135927845,5.0,13.0,17.0,18.027756377319946,97.32933781753577,95.524865872714,91.6624241442479,87.69264507357501
235,43,428,0,14.280933333333197,1.0,40.607881008493905,4.123105625617661,5.0990195135927845,11.180339887498949,12.36931687685298,9.055385138137417,17.26267650163207,12.165525060596439,12.5,18.0,11.0,5.5,2.5,1.5,2.5,5.0990195135927845,5.0990195135927845,5.0,14.0,17.0,16.0312195418814,98.32598842625484,95.42536350467836,91.54780172128658,87.69264507357501
236,43,429,0,14.314299999999864,1.4142135623730951,39.45883931389772,4.0,5.0,12.165525060596439,13.152946437965905,9.055385138137417,17.11724276862369,12.165525060596439,12.5,17.0,11.0,5.0,3.0,1.0,2.0,5.0,4.123105625617661,4.5,13.0,17.0,16.0312195418814,98.2496819333274,95.33624704172071,92.5418824100742,88.56635930193812
237,43,430,0,14.347666666666528,1.0,40.19950248448356,4.0,5.0990195135927845,12.165525060596439,12.165525060596439,12.041594578792296,20.09975124224178,15.033296378372908,15.5,18.0,14.0,4.0,4.0,0.0,2.0,4.0,4.0,4.0,14.0,17.0,15.033296378372908,93.13431161500041,92.26592003551474,90.35485598461214,86.37129152675674
238,43,431,0,14.381033333333194,1.0,37.48332962798263,3.0,5.0,12.36931687685298,12.165525060596439,12.165525060596439,20.223748416156685,15.297058540778355,15.0,20.0,14.0,5.0,3.0,1.0,4.0,4.0,3.0,3.0,14.0,16.0,16.0,95.1892851112981,93.43446901438462,90.55385138137417,86.70063436907483
239,43,432,0,14.41439999999986,0.0,35.22782990761707,3.0,4.123105625617661,11.180339887498949,10.198039027185569,13.038404810405298,20.09975124224178,16.0312195418814,16.0,18.0,14.0,3.0,4.0,1.0,2.0,3.1622776601683795,3.0,3.0,14.0,16.0,16.0,99.18165152889924,96.33275663033837,93.34345183246653,88.45903006477066
240,43,433,0,14.447766666666526,1.0,36.87817782917155,3.0,4.123105625617661,11.180339887498949,11.40175425099138,12.041594578792296,19.235384061671343,15.132745950421556,15.0,21.0,13.0,5.0,2.0,2.0,4.0,3.1622776601683795,2.0,2.5,13.0,16.0,15.033296378372908,97.18538984847466,94.33981132056604,90.44888059008801,86.70063436907483
241,43,434,0,14.481133333333192,1.0,38.63935817272331,3.0,5.0990195135927845,13.152946437965905,13.152946437965905,11.180339887498949,19.4164878389476,14.317821063276353,14.0,20.0,13.0,5.5,2.5,1.5,3.5,4.123105625617661,3.1622776601683795,2.5,13.0,16.0,15.033296378372908,96.33275663033837,94.42986815621421,91.44397191723465,87.46427842267951
242,43,435,0,14.514499999999858,3.1622776601683795,38.63935817272331,3.0,5.0990195135927845,12.165525060596439,12.165525060596439,12.041594578792296,23.194827009486403,18.110770276274835,16.5,20.0,13.0,4.5,6.5,2.5,3.5,3.1622776601683795,3.1622776601683795,3.0,13.0,17.0,14.035668847618199,97.25224933131366,94.42986815621421,91.44397191723465,87.5728268357257
243,43,436,0,14.547866666666524,2.23606797749979,39.6232255123179,3.1622776601683795,5.0990195135927845,13.152946437965905,14.142135623730951,12.041594578792296,22.360679774997898,17.26267650163207,16.0,21.0,14.0,5.5,4.5,0.5,3.5,3.0,3.1622776601683795,3.0,13.0,17.0,15.033296378372908,95.42536350467836,93.64827814754524,90.6697303403953,86.97700845625813
244,43,437,0,14.58123333333319,1.4142135623730951,38.63935817272331,3.0,5.0990195135927845,12.165525060596439,11.180339887498949,12.041594578792296,21.213203435596427,16.1245154965971,15.5,20.0,13.0,4.5,4.5,0.5,2.5,2.23606797749979,2.23606797749979,1.5,14.0,18.0,16.0312195418814,98.41239759298622,95.42536350467836,91.6624241442479,88.68483523128404
245,43,438,0,14.614599999999855,0.0,39.6232255123179,2.23606797749979,5.0990195135927845,12.36931687685298,12.165525060596439,12.041594578792296,19.235384061671343,14.142135623730951,14.0,19.0,12.0,3.5,3.5,1.5,3.5,3.1622776601683795,3.0,3.0,13.0,18.0,15.033296378372908,97.41663102366043,94.53041838477179,91.54780172128658,87.5728268357257
246,43,439,0,14.64796666666652,0.0,42.2965719651132,5.0,6.082762530298219,12.041594578792296,12.165525060596439,10.04987562112089,21.095023109728988,15.033296378372908,15.0,16.0,11.0,3.5,7.5,1.5,0.5,3.1622776601683795,3.0,2.5,13.0,18.0,15.132745950421556,95.25754563287887,93.34345183246653,92.5418824100742,87.5728268357257
247,43,440,0,14.681333333333187,1.4142135623730951,39.319206502675,4.0,6.082762530298219,12.165525060596439,12.165525060596439,11.045361017187261,22.20360331117452,16.1245154965971,15.5,17.0,12.0,3.5,7.5,1.5,0.5,3.0,3.1622776601683795,2.5,13.0,19.0,16.1245154965971,93.43446901438462,93.53608929178085,91.44397191723465,86.57944328765345
248,43,441,0,14.714699999999851,1.4142135623730951,37.8549864614954,3.1622776601683795,5.0990195135927845,13.152946437965905,13.341664064126334,12.041594578792296,21.37755832643195,16.278820596099706,15.5,20.0,12.0,4.0,5.0,0.0,3.0,3.1622776601683795,3.1622776601683795,3.0,12.0,18.0,15.132745950421556,92.77930803794561,91.7877987534291,89.94442728707543,86.83317338436964
249,43,442,0,14.74806666666652,1.4142135623730951,38.8329756778952,2.23606797749979,6.082762530298219,13.152946437965905,12.36931687685298,12.165525060596439,21.587033144922902,15.524174696260024,14.5,20.0,12.0,4.0,5.0,0.0,3.0,4.0,3.0,3.0,11.0,17.0,15.132745950421556,93.90420650854784,92.07062506576133,90.09439494219383,85.98837130682264
250,43,443,0,14.781433333333185,1.0,39.81205847478876,3.0,6.082762530298219,12.36931687685298,12.36931687685298,12.165525060596439,21.37755832643195,15.297058540778355,15.0,20.0,12.0,4.0,5.0,0.0,3.0,3.1622776601683795,3.1622776601683795,3.0,12.0,18.0,16.278820596099706,92.77930803794561,91.92388155425118,89.10667763978185,86.97700845625813
251,43,444,0,14.81479999999985,1.0,39.319206502675,3.1622776601683795,6.082762530298219,12.165525060596439,12.165525060596439,12.041594578792296,22.20360331117452,16.1245154965971,15.5,16.0,11.0,1.5,8.5,2.5,0.5,3.0,3.0,3.0,12.0,18.0,15.132745950421556,94.42986815621421,93.43446901438462,90.44888059008801,87.36704184073076
252,43,445,0,14.848166666666517,1.0,39.6232255123179,3.1622776601683795,5.0990195135927845,11.180339887498949,12.36931687685298,12.041594578792296,20.396078054371138,15.297058540778355,15.0,18.0,11.0,2.5,5.5,0.5,1.5,2.23606797749979,3.1622776601683795,2.5,13.0,18.0,16.1245154965971,93.43446901438462,92.65527507918802,90.55385138137417,85.58621384311844
253,43,446,0,14.881533333333184,1.0,36.87817782917155,2.0,5.0990195135927845,12.36931687685298,12.36931687685298,12.165525060596439,19.4164878389476,14.317821063276353,14.0,19.0,11.0,3.0,4.0,0.0,3.0,3.1622776601683795,3.1622776601683795,3.0,12.0,18.0,14.142135623730951,94.53041838477179,92.77930803794561,90.79647570252934,88.81441324469807
254,43,447,0,14.914899999999848,1.0,36.87817782917155,4.123105625617661,6.082762530298219,11.40175425099138,11.40175425099138,10.04987562112089,20.396078054371138,14.317821063276353,14.0,18.0,10.0,4.0,6.0,0.0,2.0,3.1622776601683795,3.1622776601683795,3.5,12.0,17.0,16.278820596099706,95.25754563287887,93.43446901438462,91.44397191723465,87.36704184073076
255,43,448,0,14.948266666666514,1.0,36.87817782917155,3.1622776601683795,5.0990195135927845,12.165525060596439,12.36931687685298,11.045361017187261,19.4164878389476,14.317821063276353,14.0,19.0,11.0,4.0,4.0,0.0,2.0,3.0,3.1622776601683795,3.0,11.0,17.0,16.1245154965971,93.53608929178085,91.6624241442479,89.67719888578144,86.57944328765345
256,43,449,0,14.98163333333318,1.0,38.8329756778952,4.0,5.0990195135927845,12.165525060596439,12.36931687685298,11.40175425099138,20.615528128088304,15.524174696260024,15.0,20.0,12.0,5.0,4.0,1.0,3.0,3.1622776601683795,3.1622776601683795,2.5,13.0,18.0,16.1245154965971,94.42986815621421,92.5418824100742,90.6697303403953,87.5728268357257
257,43,450,0,15.014999999999846,1.0,37.656340767525464,4.123105625617661,5.0990195135927845,12.165525060596439,13.152946437965905,11.045361017187261,20.396078054371138,15.297058540778355,15.0,19.0,12.0,4.5,4.5,0.5,2.5,4.123105625617661,3.0,3.0,13.0,17.0,15.033296378372908,93.53608929178085,91.7877987534291,89.67719888578144,86.70063436907483
258,43,451,0,15.048366666666512,1.0,40.19950248448356,4.123105625617661,6.082762530298219,12.165525060596439,12.165525060596439,11.0,22.090722034374522,16.0312195418814,15.5,17.0,13.0,4.0,7.0,1.0,1.0,4.0,4.0,4.0,12.0,17.0,16.1245154965971,94.26027795418386,93.26306878931231,91.35097153287424,86.37129152675674
259,43,452,0,15.081733333333178,1.4142135623730951,40.607881008493905,4.0,5.0990195135927845,13.152946437965905,13.152946437965905,12.041594578792296,22.20360331117452,17.11724276862369,16.5,21.0,14.0,5.5,4.5,0.5,3.5,4.0,4.123105625617661,3.5,12.0,17.0,16.1245154965971,94.42986815621421,92.5418824100742,89.56003573022959,86.57944328765345
260,43,453,0,15.115099999999844,3.1622776601683795,38.2099463490856,4.0,5.0990195135927845,11.180339887498949,12.165525060596439,11.0,23.08679276123039,18.027756377319946,16.5,17.0,13.0,4.0,8.0,3.0,1.0,4.0,4.123105625617661,4.0,13.0,18.0,15.132745950421556,94.33981132056604,92.34717104492157,91.44397191723465,86.37129152675674
261,43,454,0,15.14846666666651,3.0,38.47076812334269,4.123105625617661,5.0990195135927845,12.165525060596439,12.165525060596439,12.0,24.08318915758459,19.026297590440446,17.5,20.0,14.0,5.0,7.0,2.0,3.0,3.1622776601683795,4.0,3.5,13.0,18.0,15.132745950421556,95.42536350467836,93.53608929178085,91.54780172128658,87.5728268357257
262,43,455,0,15.181833333333175,4.123105625617661,38.2099463490856,4.123105625617661,5.0990195135927845,12.165525060596439,13.152946437965905,12.0,25.179356624028344,20.09975124224178,18.0,19.0,15.0,5.0,8.0,3.0,3.0,3.1622776601683795,3.0,3.0,13.0,17.0,15.033296378372908,95.33624704172071,94.42986815621421,92.43916918709297,87.36704184073076
263,43,456,0,15.21519999999984,4.0,39.20459156782532,3.1622776601683795,5.0990195135927845,13.152946437965905,13.152946437965905,12.041594578792296,24.186773244895647,19.1049731745428,17.0,18.0,14.0,4.0,8.0,3.0,3.0,3.0,3.1622776601683795,3.0,13.0,17.0,16.1245154965971,94.33981132056604,92.34717104492157,90.35485598461214,86.37129152675674
264,43,457,0,15.248566666666507,3.1622776601683795,39.20459156782532,4.0,5.0990195135927845,12.165525060596439,12.165525060596439,11.045361017187261,23.194827009486403,18.110770276274835,16.5,18.0,14.0,5.0,7.0,2.0,2.0,2.23606797749979,2.0,2.0,13.0,18.0,17.26267650163207,93.26306878931231,93.43446901438462,90.44888059008801,87.36704184073076
265,43,458,0,15.281933333333171,3.1622776601683795,36.345563690772494,2.23606797749979,4.123105625617661,11.180339887498949,12.165525060596439,12.041594578792296,21.37755832643195,17.26267650163207,15.5,18.0,13.0,3.5,5.5,1.5,2.5,2.23606797749979,2.23606797749979,2.0,13.0,17.0,15.033296378372908,95.524865872714,93.53608929178085,91.54780172128658,87.5728268357257
266,43,459,0,15.31529999999984,3.1622776601683795,38.3275357934736,4.0,6.082762530298219,11.045361017187261,12.165525060596439,11.0,24.08318915758459,18.027756377319946,16.5,18.0,13.0,4.5,8.5,3.5,1.5,2.23606797749979,2.0,1.5,14.0,19.0,16.1245154965971,94.33981132056604,93.34345183246653,90.44888059008801,87.46427842267951
267,43,460,0,15.348666666666505,5.385164807134504,39.6232255123179,2.0,4.123105625617661,13.152946437965905,13.152946437965905,12.041594578792296,23.345235059857504,19.235384061671343,16.5,21.0,14.0,5.5,5.5,2.5,4.5,3.1622776601683795,2.23606797749979,2.5,12.0,18.0,15.132745950421556,96.51942809610924,94.64142856064674,90.79647570252934,87.69264507357501
268,43,461,0,15.38203333333317,5.0990195135927845,38.63935817272331,4.123105625617661,5.0990195135927845,13.341664064126334,13.152946437965905,10.04987562112089,24.331050121192877,19.235384061671343,16.5,21.0,14.0,7.5,6.5,1.5,5.5,3.0,4.0,3.5,12.0,17.0,17.11724276862369,96.51942809610924,94.76286192385707,91.7877987534291,87.96590248499699
269,43,462,0,15.415399999999837,5.0990195135927845,39.6232255123179,3.1622776601683795,4.123105625617661,13.341664064126334,13.341664064126334,12.041594578792296,24.331050121192877,20.223748416156685,17.5,22.0,15.0,6.5,5.5,1.5,5.5,3.1622776601683795,4.0,4.0,12.0,17.0,16.1245154965971,96.51942809610924,94.64142856064674,91.7877987534291,86.83317338436964
270,43,463,0,15.448766666666502,5.0990195135927845,39.81205847478876,3.1622776601683795,5.0990195135927845,12.36931687685298,12.36931687685298,11.045361017187261,24.331050121192877,19.235384061671343,16.5,21.0,13.0,6.0,7.0,3.0,5.0,3.1622776601683795,4.0,3.5,11.0,16.0,15.132745950421556,96.62815324738438,94.89467845985885,90.93404203047393,88.11923740024082
271,43,464,0,15.482133333333168,6.082762530298219,39.45883931389772,2.23606797749979,4.123105625617661,13.152946437965905,14.317821063276353,11.045361017187261,23.345235059857504,19.235384061671343,16.0,20.0,14.0,6.0,6.0,2.0,5.0,4.123105625617661,4.123105625617661,4.0,12.0,17.0,16.1245154965971,96.62815324738438,94.76286192385707,91.92388155425118,87.96590248499699
272,43,465,0,15.515499999999834,2.8284271247461903,36.6742416417845,3.0,5.0990195135927845,12.165525060596439,12.165525060596439,12.0,22.20360331117452,17.11724276862369,16.0,21.0,14.0,5.5,4.5,0.5,3.5,4.123105625617661,3.1622776601683795,3.5,12.0,17.0,16.1245154965971,95.33624704172071,93.53608929178085,90.55385138137417,86.57944328765345
273,43,466,0,15.5488666666665,1.4142135623730951,35.6931365951495,3.0,5.0990195135927845,11.180339887498949,11.180339887498949,12.041594578792296,21.213203435596427,16.1245154965971,15.5,21.0,14.0,5.5,3.5,1.5,3.5,4.0,4.0,4.5,11.0,18.0,16.0312195418814,99.32270636667126,95.42536350467836,91.54780172128658,86.57944328765345
274,43,467,0,15.582233333333166,1.0,35.510561809129406,3.0,4.123105625617661,11.180339887498949,10.44030650891055,12.041594578792296,20.09975124224178,16.0312195418814,15.5,18.0,12.0,3.0,5.0,2.0,1.0,4.123105625617661,4.0,4.0,11.0,18.0,16.1245154965971,97.62171889492625,94.76286192385707,90.79647570252934,86.83317338436964
275,43,468,0,15.615599999999832,1.0,34.52535300326414,3.0,5.0990195135927845,10.198039027185569,11.40175425099138,12.041594578792296,20.223748416156685,15.132745950421556,15.0,18.0,12.0,3.0,5.0,1.0,2.0,4.123105625617661,4.123105625617661,4.0,12.0,18.0,15.132745950421556,94.42986815621421,92.5418824100742,91.6624241442479,87.69264507357501
276,43,469,0,15.648966666666498,1.4142135623730951,35.6931365951495,3.0,6.082762530298219,11.180339887498949,12.36931687685298,12.0,22.090722034374522,16.0312195418814,15.5,19.0,12.0,3.5,6.5,1.5,1.5,4.0,4.123105625617661,4.0,12.0,19.0,15.132745950421556,96.51942809610924,95.75489543621255,91.92388155425118,87.82368700982668
277,43,470,0,15.682333333333164,0.0,34.36568055487916,3.1622776601683795,6.0,10.198039027185569,10.44030650891055,12.0,21.02379604162864,15.033296378372908,15.0,18.0,13.0,3.5,5.5,0.5,1.5,4.123105625617661,4.123105625617661,4.5,11.0,18.0,16.1245154965971,96.42095207992918,94.53041838477179,92.5418824100742,87.5728268357257
278,43,471,0,15.71569999999983,0.0,36.87817782917155,3.1622776601683795,6.082762530298219,12.165525060596439,12.165525060596439,13.038404810405298,22.20360331117452,16.1245154965971,16.0,22.0,14.0,5.0,4.0,1.0,4.0,5.0990195135927845,5.0990195135927845,4.5,11.0,17.0,17.26267650163207,96.62815324738438,94.76286192385707,90.79647570252934,86.83317338436964
279,43,472,0,15.749066666666495,1.0,35.22782990761707,4.123105625617661,7.0710678118654755,11.180339887498949,12.165525060596439,11.045361017187261,23.194827009486403,16.1245154965971,15.5,17.0,13.0,4.0,8.0,1.0,1.0,4.123105625617661,5.0990195135927845,4.5,13.0,19.0,16.278820596099706,93.34345183246653,93.53608929178085,90.6697303403953,86.70063436907483
280,43,473,0,15.78243333333316,1.4142135623730951,34.713109915419565,3.1622776601683795,6.082762530298219,11.180339887498949,12.165525060596439,12.041594578792296,22.360679774997898,16.278820596099706,15.5,21.0,14.0,5.5,4.5,1.5,3.5,4.123105625617661,4.123105625617661,4.5,12.0,17.0,15.132745950421556,98.6154146165801,95.75489543621255,91.6624241442479,87.69264507357501
281,43,474,0,15.815799999999829,1.4142135623730951,35.90264614203248,3.1622776601683795,5.0990195135927845,11.180339887498949,12.36931687685298,12.0,21.213203435596427,16.1245154965971,15.5,21.0,13.0,5.0,4.0,0.0,4.0,4.123105625617661,4.123105625617661,4.0,11.0,16.0,15.132745950421556,96.51942809610924,94.76286192385707,90.79647570252934,87.82368700982668
282,43,475,0,15.849166666666491,3.0,38.3275357934736,5.0990195135927845,7.0710678118654755,11.045361017187261,12.165525060596439,10.0,25.079872407968907,18.027756377319946,16.5,17.0,12.0,4.5,10.5,4.5,0.5,5.0,4.123105625617661,4.0,12.0,19.0,16.1245154965971,94.33981132056604,94.42986815621421,91.44397191723465,87.46427842267951
283,43,476,0,15.88253333333316,3.0,39.20459156782532,4.123105625617661,5.0990195135927845,11.045361017187261,11.180339887498949,11.0,23.08679276123039,18.027756377319946,16.5,17.0,13.0,4.0,8.0,3.0,1.0,4.0,4.47213595499958,4.5,11.0,17.0,16.1245154965971,99.50376877284599,97.73944955850733,94.76286192385707,88.68483523128404
284,43,477,0,15.915899999999825,4.47213595499958,40.44749683231337,3.0,5.0990195135927845,13.152946437965905,13.152946437965905,11.045361017187261,23.345235059857504,18.24828759089466,16.0,18.0,12.0,4.0,8.0,3.0,2.0,4.0,4.123105625617661,4.0,10.0,17.0,15.132745950421556,96.87620966986684,94.89467845985885,90.93404203047393,86.83317338436964
285,43,478,0,15.94926666666649,0.0,42.42640687119285,4.123105625617661,3.1622776601683795,11.180339887498949,12.36931687685298,12.0,19.1049731745428,16.0312195418814,16.0,17.0,11.0,2.0,5.0,2.0,1.0,4.123105625617661,4.123105625617661,4.0,11.0,18.0,16.1245154965971,98.41239759298622,96.62815324738438,93.7709976485267,88.81441324469807
286,43,479,0,15.982633333333157,1.0,38.63935817272331,2.23606797749979,4.123105625617661,12.36931687685298,11.40175425099138,12.041594578792296,18.439088914585774,14.317821063276353,14.0,18.0,11.0,2.5,3.5,0.5,2.5,4.123105625617661,4.123105625617661,4.0,12.0,18.0,14.142135623730951,94.53041838477179,92.77930803794561,90.79647570252934,86.83317338436964
287,43,480,0,16.015999999999824,1.4142135623730951,38.63935817272331,2.0,4.123105625617661,12.36931687685298,12.165525060596439,12.041594578792296,17.26267650163207,13.152946437965905,13.5,17.0,10.0,1.5,3.5,0.5,1.5,4.123105625617661,4.123105625617661,4.0,12.0,18.0,15.297058540778355,95.63472172804185,93.7709976485267,90.93404203047393,86.97700845625813
288,43,481,0,16.04936666666649,2.23606797749979,39.81205847478876,4.123105625617661,5.0990195135927845,12.165525060596439,12.36931687685298,10.04987562112089,17.46424919657298,12.36931687685298,13.0,18.0,10.0,4.0,3.0,1.0,2.0,4.123105625617661,4.123105625617661,4.0,12.0,18.0,16.278820596099706,95.63472172804185,93.64827814754524,90.79647570252934,87.96590248499699
289,43,482,0,16.082733333333156,1.4142135623730951,40.792156108742276,3.1622776601683795,5.0990195135927845,13.152946437965905,12.36931687685298,10.04987562112089,17.46424919657298,12.36931687685298,12.5,18.0,10.0,4.0,3.0,1.0,2.0,5.0990195135927845,4.123105625617661,4.0,12.0,18.0,16.1245154965971,95.524865872714,93.64827814754524,90.79647570252934,86.83317338436964
290,43,483,0,16.116099999999822,1.0,40.792156108742276,3.0,4.123105625617661,12.165525060596439,12.36931687685298,10.04987562112089,17.26267650163207,13.152946437965905,13.0,17.0,9.0,3.0,4.0,0.0,1.0,4.0,4.123105625617661,4.0,12.0,18.0,16.1245154965971,94.53041838477179,93.64827814754524,91.6624241442479,87.69264507357501
291,43,484,0,16.149466666666488,1.4142135623730951,39.45883931389772,4.0,6.082762530298219,12.36931687685298,12.36931687685298,10.04987562112089,19.235384061671343,13.152946437965905,13.5,16.0,10.0,3.0,6.0,1.0,1.0,4.0,4.123105625617661,4.0,12.0,18.0,17.11724276862369,96.42095207992918,94.53041838477179,91.6624241442479,87.69264507357501
292,43,485,0,16.182833333333154,1.4142135623730951,40.792156108742276,4.0,5.0990195135927845,12.165525060596439,12.36931687685298,10.04987562112089,18.24828759089466,13.152946437965905,13.5,17.0,9.0,3.0,5.0,1.0,1.0,4.123105625617661,4.123105625617661,4.0,11.0,17.0,16.1245154965971,95.63472172804185,93.64827814754524,90.79647570252934,86.83317338436964
293,43,486,0,16.21619999999982,1.4142135623730951,42.2965719651132,3.0,5.0990195135927845,12.165525060596439,11.40175425099138,11.045361017187261,20.223748416156685,15.132745950421556,14.5,15.0,10.0,1.5,7.5,2.5,0.5,4.0,4.123105625617661,4.0,12.0,18.0,17.11724276862369,94.42986815621421,93.53608929178085,90.55385138137417,87.5728268357257
294,43,487,0,16.249566666666485,1.0,41.593268686170845,3.0,4.47213595499958,12.36931687685298,13.341664064126334,11.045361017187261,18.439088914585774,14.142135623730951,14.0,17.0,10.0,2.5,4.5,0.5,1.5,5.0990195135927845,5.0990195135927845,4.5,13.0,19.0,16.278820596099706,94.33981132056604,92.43916918709297,90.55385138137417,86.57944328765345
295,43,488,0,16.28293333333315,1.4142135623730951,41.593268686170845,4.123105625617661,4.123105625617661,12.36931687685298,12.165525060596439,10.0,17.26267650163207,13.152946437965905,13.5,18.0,11.0,4.5,2.5,0.5,2.5,4.123105625617661,4.123105625617661,4.5,12.0,18.0,15.132745950421556,95.524865872714,93.7709976485267,91.6624241442479,86.70063436907483
296,43,489,0,16.316299999999817,1.0,42.2965719651132,3.0,4.123105625617661,12.36931687685298,12.165525060596439,12.0,19.1049731745428,15.033296378372908,15.0,16.0,11.0,1.5,5.5,2.5,0.5,4.0,3.1622776601683795,3.5,11.0,18.0,18.24828759089466,98.32598842625484,95.42536350467836,93.64827814754524,87.82368700982668
297,43,490,0,16.349666666666483,1.4142135623730951,41.773197148410844,3.1622776601683795,5.0990195135927845,12.36931687685298,13.152946437965905,12.041594578792296,19.4164878389476,14.317821063276353,14.5,20.0,12.0,4.0,3.0,1.0,3.0,3.1622776601683795,4.123105625617661,4.0,12.0,16.0,16.1245154965971,95.42536350467836,93.64827814754524,90.79647570252934,86.83317338436964
298,43,491,0,16.38303333333315,2.23606797749979,40.792156108742276,3.0,5.0990195135927845,12.165525060596439,13.152946437965905,12.0,19.235384061671343,14.142135623730951,14.5,20.0,12.0,4.0,3.0,1.0,2.0,3.1622776601683795,4.123105625617661,3.5,11.0,17.0,15.132745950421556,98.50888284819801,95.63472172804185,92.77930803794561,87.82368700982668
299,43,492,0,16.416399999999815,1.4142135623730951,40.607881008493905,3.1622776601683795,5.0990195135927845,13.341664064126334,13.341664064126334,12.041594578792296,19.4164878389476,14.317821063276353,14.5,19.0,12.0,3.5,3.5,0.5,2.5,4.0,3.1622776601683795,3.0,11.0,16.0,15.132745950421556,97.41663102366043,95.63472172804185,91.92388155425118,86.97700845625813
300,43,493,0,16.44976666666648,1.0,42.2965719651132,3.1622776601683795,5.0990195135927845,11.180339887498949,12.165525060596439,12.0,19.1049731745428,14.035668847618199,14.5,15.0,10.0,0.5,6.5,1.5,0.5,4.0,4.123105625617661,4.0,11.0,16.0,15.132745950421556,97.51410154434076,95.63472172804185,92.77930803794561,88.81441324469807
301,43,494,0,16.483133333333146,1.4142135623730951,39.6232255123179,3.1622776601683795,5.0990195135927845,11.180339887498949,12.165525060596439,11.0,18.24828759089466,13.152946437965905,13.5,19.0,12.0,4.5,2.5,1.5,2.5,3.0,3.1622776601683795,3.0,12.0,18.0,17.029386365926403,96.62815324738438,94.76286192385707,92.91393867445294,86.83317338436964
302,43,495,0,16.516499999999812,1.0,39.6232255123179,3.1622776601683795,4.123105625617661,12.165525060596439,12.165525060596439,11.045361017187261,18.439088914585774,14.317821063276353,14.0,19.0,12.0,4.5,2.5,1.5,2.5,4.123105625617661,4.123105625617661,4.5,12.0,17.0,16.1245154965971,97.51410154434076,95.63472172804185,91.7877987534291,87.82368700982668
303,43,496,0,16.549866666666478,1.0,39.81205847478876,2.0,5.0990195135927845,13.152946437965905,13.341664064126334,12.165525060596439,19.4164878389476,14.317821063276353,14.0,20.0,12.0,4.0,3.0,1.0,3.0,4.123105625617661,4.123105625617661,4.0,11.0,16.0,16.1245154965971,96.51942809610924,94.89467845985885,90.93404203047393,86.14522621712709
304,43,497,0,16.583233333333144,1.0,39.6232255123179,3.0,5.0990195135927845,12.165525060596439,12.36931687685298,11.045361017187261,19.235384061671343,14.142135623730951,14.0,19.0,12.0,4.5,3.5,1.5,2.5,5.0,4.0,4.5,12.0,17.0,15.033296378372908,95.42536350467836,93.7709976485267,90.93404203047393,87.13208364316786
305,43,498,0,16.61659999999981,1.4142135623730951,40.792156108742276,2.23606797749979,5.0990195135927845,13.152946437965905,13.152946437965905,12.041594578792296,20.396078054371138,15.297058540778355,14.5,20.0,12.0,4.0,4.0,0.0,3.0,4.0,4.123105625617661,4.0,12.0,18.0,16.1245154965971,95.75489543621255,95.03683496413377,91.2414379544733,87.29833904490967
306,43,499,0,16.649966666666476,1.4142135623730951,39.6232255123179,3.0,4.123105625617661,12.165525060596439,12.165525060596439,11.045361017187261,19.235384061671343,15.132745950421556,14.5,19.0,12.0,4.5,3.5,0.5,2.5,5.0,4.123105625617661,4.5,12.0,18.0,16.1245154965971,95.75489543621255,94.04786015641186,91.92388155425118,87.13208364316786
307,43,500,0,16.68333333333314,1.4142135623730951,39.81205847478876,2.23606797749979,5.385164807134504,13.341664064126334,13.341664064126334,12.0,20.396078054371138,15.132745950421556,14.5,20.0,12.0,4.0,4.0,0.0,4.0,4.123105625617661,4.123105625617661,4.5,12.0,17.0,16.1245154965971,95.63472172804185,93.90420650854784,91.0823802938856,87.29833904490967
308,43,501,0,16.716699999999808,1.4142135623730951,39.6232255123179,3.1622776601683795,5.0990195135927845,13.341664064126334,14.317821063276353,12.041594578792296,21.37755832643195,16.278820596099706,15.5,20.0,13.0,4.5,4.5,0.5,3.5,4.123105625617661,4.123105625617661,4.5,13.0,17.0,15.033296378372908,96.42095207992918,94.64142856064674,90.6697303403953,86.83317338436964
309,43,502,0,16.750066666666473,2.23606797749979,39.6232255123179,4.123105625617661,6.082762530298219,13.038404810405298,13.152946437965905,11.045361017187261,23.345235059857504,17.26267650163207,16.0,20.0,13.0,5.5,6.5,0.5,2.5,4.123105625617661,4.123105625617661,4.5,12.0,17.0,17.11724276862369,97.62171889492625,96.74709297958259,92.91393867445294,87.96590248499699
310,43,503,0,16.78343333333314,2.23606797749979,38.63935817272331,3.1622776601683795,4.123105625617661,12.165525060596439,12.165525060596439,12.0,21.213203435596427,17.11724276862369,16.0,20.0,13.0,4.5,4.5,0.5,3.5,4.123105625617661,4.123105625617661,4.0,12.0,17.0,16.1245154965971,96.42095207992918,93.53608929178085,90.55385138137417,86.57944328765345
311,43,504,0,16.816799999999805,3.1622776601683795,35.90264614203248,3.1622776601683795,6.082762530298219,12.165525060596439,12.165525060596439,11.0,23.194827009486403,17.11724276862369,15.5,20.0,12.0,5.0,7.0,2.0,3.0,4.0,3.1622776601683795,3.5,13.0,18.0,16.1245154965971,98.73196037757987,96.17692030835673,93.2148056909416,88.45903006477066
312,43,505,0,16.85016666666647,3.1622776601683795,37.8549864614954,3.0,5.0990195135927845,12.165525060596439,13.152946437965905,11.045361017187261,22.20360331117452,17.11724276862369,15.5,21.0,13.0,6.0,5.0,1.0,4.0,3.1622776601683795,4.0,4.0,13.0,17.0,15.132745950421556,96.51942809610924,94.76286192385707,92.07062506576133,87.96590248499699
313,43,506,0,16.883533333333137,3.1622776601683795,39.6232255123179,4.0,6.082762530298219,12.36931687685298,12.36931687685298,11.045361017187261,24.186773244895647,18.110770276274835,16.5,21.0,14.0,6.5,6.5,1.5,4.5,4.123105625617661,4.123105625617661,4.0,13.0,18.0,16.1245154965971,97.62171889492625,95.75489543621255,93.05912099305473,88.11923740024082
314,43,507,0,16.916899999999803,3.1622776601683795,37.33630940518894,3.0,5.0990195135927845,11.180339887498949,11.180339887498949,12.041594578792296,23.194827009486403,18.110770276274835,16.5,18.0,13.0,3.5,7.5,2.5,1.5,4.0,4.123105625617661,3.5,14.0,19.0,17.11724276862369,97.25224933131366,95.33624704172071,92.43916918709297,87.46427842267951
315,43,508,0,16.95026666666647,4.0,35.510561809129406,4.123105625617661,6.082762530298219,12.165525060596439,12.165525060596439,10.04987562112089,24.186773244895647,18.110770276274835,16.0,19.0,13.0,6.0,8.0,2.0,3.0,5.0990195135927845,4.123105625617661,4.0,13.0,18.0,17.11724276862369,96.33275663033837,94.53041838477179,90.55385138137417,86.70063436907483
316,43,509,0,16.983633333333135,3.1622776601683795,38.63935817272331,4.123105625617661,6.082762530298219,12.165525060596439,13.341664064126334,10.04987562112089,23.345235059857504,17.26267650163207,15.5,21.0,14.0,7.5,5.5,0.5,4.5,4.123105625617661,5.0,4.5,14.0,18.0,15.132745950421556,96.42095207992918,94.64142856064674,91.6624241442479,86.83317338436964
317,43,510,0,17.0169999999998,3.1622776601683795,35.6931365951495,4.123105625617661,7.0710678118654755,12.165525060596439,12.36931687685298,10.04987562112089,24.331050121192877,17.26267650163207,15.5,20.0,13.0,6.5,7.5,1.5,3.5,4.123105625617661,4.0,4.0,13.0,17.0,16.0312195418814,97.32933781753577,95.524865872714,92.65527507918802,87.82368700982668
318,43,511,0,17.050366666666466,4.123105625617661,38.47076812334269,2.23606797749979,5.0990195135927845,13.152946437965905,13.152946437965905,12.041594578792296,23.345235059857504,18.24828759089466,16.0,20.0,14.0,5.0,6.0,1.0,4.0,4.0,4.123105625617661,4.0,13.0,18.0,16.0312195418814,96.42095207992918,94.76286192385707,90.93404203047393,85.84287972802403
319,43,512,0,17.083733333333132,3.1622776601683795,38.47076812334269,3.0,6.082762530298219,12.041594578792296,12.165525060596439,12.041594578792296,24.186773244895647,18.110770276274835,16.5,19.0,13.0,4.0,8.0,2.0,2.0,4.123105625617661,4.0,4.0,12.0,16.0,15.132745950421556,97.25224933131366,95.42536350467836,92.5418824100742,86.70063436907483
320,43,513,0,17.117099999999798,4.123105625617661,35.6931365951495,2.0,6.082762530298219,11.180339887498949,11.180339887498949,12.041594578792296,24.186773244895647,18.110770276274835,16.0,20.0,13.0,4.5,7.5,1.5,3.5,4.0,4.123105625617661,4.0,12.0,17.0,15.132745950421556,98.50888284819801,94.64142856064674,92.77930803794561,87.69264507357501
321,43,514,0,17.150466666666464,2.23606797749979,35.6931365951495,3.0,5.0990195135927845,11.180339887498949,12.165525060596439,12.041594578792296,22.20360331117452,17.11724276862369,16.0,20.0,13.0,4.5,5.5,0.5,3.5,4.123105625617661,4.123105625617661,4.0,13.0,17.0,17.11724276862369,98.32598842625484,96.51942809610924,92.65527507918802,86.70063436907483
322,43,515,0,17.18383333333313,1.4142135623730951,39.319206502675,4.0,7.0710678118654755,12.165525060596439,12.165525060596439,11.0,23.08679276123039,16.0312195418814,15.5,17.0,12.0,3.5,8.5,2.5,0.5,5.0990195135927845,4.123105625617661,4.0,14.0,18.0,17.11724276862369,98.32598842625484,96.42095207992918,93.53608929178085,88.56635930193812
323,43,516,0,17.217199999999796,2.23606797749979,38.63935817272331,2.0,5.0990195135927845,12.165525060596439,12.165525060596439,12.041594578792296,21.213203435596427,16.1245154965971,15.0,20.0,13.0,4.5,4.5,0.5,3.5,4.0,4.123105625617661,4.0,13.0,17.0,16.0312195418814,97.32933781753577,94.53041838477179,90.6697303403953,86.70063436907483
324,43,517,0,17.25056666666646,1.4142135623730951,37.656340767525464,3.0,6.082762530298219,12.165525060596439,12.165525060596439,12.165525060596439,22.360679774997898,16.278820596099706,15.5,20.0,13.0,4.5,5.5,0.5,3.5,4.123105625617661,4.123105625617661,4.0,13.0,17.0,17.11724276862369,98.18350166906862,95.42536350467836,92.43916918709297,86.70063436907483
325,43,518,0,17.283933333333128,1.0,38.63935817272331,3.0,5.385164807134504,12.165525060596439,13.152946437965905,12.041594578792296,20.396078054371138,15.132745950421556,15.0,21.0,14.0,5.5,2.5,1.5,3.5,4.0,3.1622776601683795,3.5,12.0,17.0,16.1245154965971,97.51410154434076,94.76286192385707,91.92388155425118,86.83317338436964
326,43,519,0,17.317299999999793,1.0,38.8329756778952,4.0,5.0990195135927845,12.165525060596439,13.341664064126334,12.041594578792296,21.213203435596427,16.1245154965971,16.0,21.0,13.0,5.0,4.0,1.0,3.0,4.0,4.0,4.0,13.0,17.0,18.110770276274835,96.25487000666512,94.42986815621421,91.6624241442479,86.83317338436964
327,43,520,0,17.35066666666646,1.0,39.6232255123179,3.1622776601683795,5.0990195135927845,13.341664064126334,13.341664064126334,12.041594578792296,21.213203435596427,16.1245154965971,15.5,21.0,14.0,5.5,3.5,1.5,4.5,4.0,4.0,4.0,13.0,17.0,17.11724276862369,98.2496819333274,96.42095207992918,92.65527507918802,86.70063436907483
328,43,521,0,17.384033333333125,1.4142135623730951,38.47076812334269,4.0,6.082762530298219,12.165525060596439,12.36931687685298,11.045361017187261,22.20360331117452,16.1245154965971,15.5,20.0,14.0,6.0,5.0,1.0,3.0,3.0,3.1622776601683795,3.5,13.0,18.0,17.11724276862369,95.42536350467836,94.64142856064674,91.6624241442479,87.82368700982668
329,43,522,0,17.41739999999979,1.4142135623730951,39.6232255123179,3.0,5.385164807134504,13.152946437965905,13.341664064126334,11.045361017187261,20.396078054371138,15.132745950421556,14.5,20.0,13.0,5.5,3.5,1.5,3.5,3.1622776601683795,3.1622776601683795,3.0,13.0,17.0,16.1245154965971,96.42095207992918,94.64142856064674,90.93404203047393,86.97700845625813
330,43,523,0,17.450766666666457,1.4142135623730951,40.607881008493905,3.0,6.082762530298219,12.36931687685298,13.152946437965905,12.041594578792296,22.20360331117452,16.1245154965971,15.5,21.0,14.0,5.5,4.5,0.5,4.5,4.123105625617661,4.123105625617661,4.0,12.0,17.0,16.1245154965971,93.26306878931231,91.44397191723465,90.55385138137417,86.57944328765345
331,43,524,0,17.484133333333123,1.0,38.47076812334269,3.0,5.0990195135927845,12.165525060596439,12.165525060596439,12.0,20.09975124224178,15.033296378372908,15.0,20.0,14.0,5.0,3.0,1.0,4.0,6.082762530298219,6.082762530298219,6.0,11.0,16.0,17.029386365926403,94.42986815621421,92.65527507918802,90.6697303403953,85.70880934886448
332,43,525,0,17.51749999999979,1.0,37.656340767525464,3.0,6.082762530298219,11.180339887498949,12.165525060596439,12.0,21.095023109728988,15.033296378372908,15.0,20.0,13.0,4.5,4.5,0.5,2.5,5.0990195135927845,6.0,5.5,15.0,18.0,16.0312195418814,96.18731725128839,94.33981132056604,92.34717104492157,88.45903006477066
333,43,526,0,17.550866666666455,1.0,39.20459156782532,3.0,4.0,12.041594578792296,12.165525060596439,12.041594578792296,19.0,15.0,15.0,16.0,12.0,2.0,5.0,1.0,0.0,3.0,3.1622776601683795,3.0,15.0,17.0,18.0,96.04686356149273,93.13431161500041,91.26883367283708,87.28115489611719
334,43,527,0,17.58423333333312,1.0,39.11521443121589,4.0,6.0,12.041594578792296,12.041594578792296,11.0,21.02379604162864,15.033296378372908,15.0,17.0,14.0,4.5,5.5,0.5,1.5,3.0,2.0,2.5,15.0,17.0,19.026297590440446,94.08506789071261,92.13576938409967,90.27181176868004,86.28441342444185
335,43,528,0,17.617599999999786,1.0,36.345563690772494,3.0,6.082762530298219,12.041594578792296,11.180339887498949,11.045361017187261,20.223748416156685,14.142135623730951,14.0,17.0,12.0,3.5,5.5,0.5,1.5,3.1622776601683795,3.0,2.5,15.0,16.0,17.11724276862369,93.08598175880189,93.1933474020544,90.27181176868004,87.36704184073076
336,43,529,0,17.650966666666452,0.0,38.47076812334269,4.123105625617661,6.082762530298219,12.165525060596439,12.165525060596439,10.0,20.09975124224178,14.035668847618199,14.0,18.0,12.0,5.0,5.0,0.0,3.0,4.123105625617661,3.0,3.0,16.0,17.0,18.110770276274835,94.04786015641186,93.13431161500041,91.19758768739445,87.28115489611719
337,43,530,0,17.684333333333118,1.4142135623730951,38.3275357934736,3.0,6.082762530298219,12.041594578792296,13.152946437965905,11.0,21.095023109728988,15.033296378372908,14.5,18.0,13.0,4.5,5.5,0.5,2.5,3.0,3.0,3.0,15.0,17.0,18.027756377319946,94.08506789071261,93.1933474020544,91.26883367283708,87.46427842267951
338,43,531,0,17.717699999999784,1.0,38.47076812334269,3.0,6.0,12.041594578792296,12.165525060596439,11.045361017187261,20.09975124224178,14.142135623730951,14.0,18.0,12.0,4.0,5.0,1.0,2.0,3.0,3.0,2.5,14.0,17.0,19.026297590440446,94.13288479590966,92.19544457292888,91.26883367283708,87.46427842267951
339,43,532,0,17.75106666666645,1.0,37.21558813185679,3.0,6.082762530298219,12.165525060596439,11.180339887498949,11.0,20.09975124224178,14.035668847618199,14.0,16.0,12.0,3.0,6.0,1.0,2.0,3.0,3.0,3.0,15.0,18.0,19.026297590440446,94.13288479590966,93.1933474020544,91.19758768739445,87.28115489611719
340,43,533,0,17.784433333333116,1.0,40.19950248448356,3.0,5.0990195135927845,12.041594578792296,12.165525060596439,11.045361017187261,20.0,15.033296378372908,14.5,16.0,12.0,3.0,6.0,1.0,1.0,3.1622776601683795,3.1622776601683795,3.0,14.0,17.0,18.027756377319946,95.1892851112981,93.34345183246653,90.44888059008801,86.46964785403026
341,43,534,0,17.81779999999978,1.4142135623730951,38.118237105091836,3.0,6.082762530298219,11.045361017187261,12.165525060596439,12.041594578792296,22.02271554554524,16.0,15.5,16.0,13.0,2.5,7.5,1.5,0.5,3.1622776601683795,2.23606797749979,2.5,15.0,18.0,19.026297590440446,93.1933474020544,92.26592003551474,91.35097153287424,87.36704184073076
342,43,535,0,17.851166666666447,1.4142135623730951,38.118237105091836,3.0,6.0,11.045361017187261,12.041594578792296,11.0,21.02379604162864,15.033296378372908,14.5,16.0,13.0,3.5,6.5,0.5,1.5,3.1622776601683795,2.0,2.0,14.0,18.0,18.110770276274835,93.1933474020544,92.26592003551474,91.26883367283708,87.28115489611719
343,43,536,0,17.884533333333113,1.0,41.19465984809196,3.0,6.0,11.045361017187261,12.165525060596439,11.045361017187261,20.0,14.0,14.0,16.0,12.0,3.0,6.0,1.0,1.0,5.0990195135927845,5.0990195135927845,5.0,14.0,19.0,16.0312195418814,95.33624704172071,94.42986815621421,92.5418824100742,87.5728268357257
344,43,537,0,17.91789999999978,0.0,39.6232255123179,3.1622776601683795,5.0990195135927845,11.180339887498949,12.165525060596439,11.0,19.1049731745428,14.035668847618199,14.0,19.0,12.0,4.5,3.5,1.5,3.5,1.4142135623730951,1.0,1.0,15.0,19.0,18.110770276274835,95.42536350467836,93.64827814754524,90.79647570252934,86.83317338436964
345,43,538,0,17.951266666666445,0.0,38.47076812334269,3.1622776601683795,5.0990195135927845,11.180339887498949,12.165525060596439,12.041594578792296,20.223748416156685,15.132745950421556,15.0,19.0,13.0,4.0,4.0,0.0,2.0,3.0,2.23606797749979,2.0,15.0,19.0,19.1049731745428,95.63472172804185,93.7709976485267,91.7877987534291,87.69264507357501
346,43,539,0,17.98463333333311,3.1622776601683795,40.311288741492746,3.1622776601683795,4.123105625617661,13.341664064126334,13.152946437965905,12.041594578792296,22.360679774997898,18.24828759089466,16.5,19.0,14.0,4.5,5.5,2.5,3.5,2.0,3.1622776601683795,3.0,14.0,19.0,18.110770276274835,97.62171889492625,95.88534820294495,91.92388155425118,87.69264507357501
347,43,540,0,18.017999999999777,4.123105625617661,41.593268686170845,3.1622776601683795,4.123105625617661,13.341664064126334,13.152946437965905,12.041594578792296,23.345235059857504,19.235384061671343,17.0,21.0,14.0,5.5,5.5,2.5,4.5,3.1622776601683795,3.0,3.0,13.0,18.0,18.027756377319946,95.63472172804185,92.65527507918802,90.79647570252934,86.83317338436964
348,43,541,0,18.051366666666443,5.385164807134504,39.45883931389772,3.0,5.0990195135927845,13.341664064126334,13.152946437965905,12.165525060596439,25.495097567963924,20.396078054371138,17.5,21.0,15.0,6.0,7.0,2.0,5.0,3.1622776601683795,3.1622776601683795,2.5,14.0,19.0,17.029386365926403,94.53041838477179,92.65527507918802,91.6624241442479,87.82368700982668
349,43,542,0,18.08473333333311,4.0,40.311288741492746,3.1622776601683795,4.47213595499958,11.180339887498949,12.165525060596439,12.041594578792296,23.345235059857504,19.1049731745428,17.0,19.0,14.0,4.5,6.5,2.5,3.5,3.1622776601683795,3.1622776601683795,3.0,14.0,18.0,18.110770276274835,96.42095207992918,94.64142856064674,92.65527507918802,88.68483523128404
350,43,543,0,18.11809999999977,3.1622776601683795,42.42640687119285,3.0,5.0990195135927845,12.165525060596439,12.36931687685298,12.0,23.08679276123039,18.027756377319946,16.5,19.0,13.0,4.0,7.0,3.0,3.0,3.1622776601683795,2.23606797749979,2.0,13.0,17.0,17.11724276862369,97.41663102366043,95.524865872714,91.6624241442479,87.5728268357257
351,43,544,0,18.15146666666644,2.23606797749979,40.607881008493905,3.0,4.123105625617661,12.165525060596439,13.152946437965905,11.180339887498949,20.396078054371138,16.278820596099706,15.0,20.0,13.0,5.5,3.5,0.5,4.5,3.1622776601683795,3.0,3.0,13.0,18.0,17.11724276862369,96.51942809610924,93.7709976485267,92.07062506576133,87.13208364316786
352,43,545,0,18.184833333333103,2.23606797749979,39.6232255123179,4.123105625617661,6.082762530298219,12.165525060596439,12.165525060596439,10.04987562112089,22.360679774997898,16.278820596099706,15.0,20.0,13.0,6.5,5.5,0.5,3.5,3.1622776601683795,2.0,2.5,13.0,18.0,17.11724276862369,95.42536350467836,93.53608929178085,90.79647570252934,88.95504482602435
353,43,546,0,18.21819999999977,2.23606797749979,40.44749683231337,4.123105625617661,5.0990195135927845,12.165525060596439,12.36931687685298,11.0,22.20360331117452,17.11724276862369,16.0,18.0,12.0,4.0,7.0,2.0,2.0,3.0,3.1622776601683795,3.0,13.0,19.0,17.11724276862369,94.42986815621421,92.65527507918802,90.6697303403953,87.69264507357501
354,43,547,0,18.25156666666644,4.0,39.20459156782532,3.1622776601683795,4.123105625617661,11.180339887498949,12.165525060596439,11.0,22.090722034374522,18.027756377319946,16.0,16.0,12.0,3.0,8.0,4.0,1.0,3.1622776601683795,3.1622776601683795,3.0,14.0,19.0,16.1245154965971,96.42095207992918,94.53041838477179,92.43916918709297,88.56635930193812
355,43,548,0,18.284933333333104,2.23606797749979,36.6742416417845,2.0,5.385164807134504,11.180339887498949,12.36931687685298,12.041594578792296,21.37755832643195,16.1245154965971,15.0,19.0,12.0,3.5,5.5,1.5,2.5,3.1622776601683795,3.1622776601683795,3.0,13.0,18.0,16.1245154965971,95.524865872714,93.7709976485267,92.77930803794561,88.95504482602435
356,43,549,0,18.31829999999977,3.1622776601683795,40.311288741492746,4.0,6.082762530298219,12.165525060596439,12.165525060596439,11.045361017187261,24.186773244895647,18.110770276274835,16.5,18.0,13.0,4.5,8.5,2.5,2.5,3.1622776601683795,3.0,3.0,12.0,18.0,17.11724276862369,94.42986815621421,93.43446901438462,91.54780172128658,88.56635930193812
357,43,550,0,18.35166666666644,4.123105625617661,39.45883931389772,3.0,5.0990195135927845,12.36931687685298,12.165525060596439,12.041594578792296,24.186773244895647,19.1049731745428,17.0,19.0,13.0,4.0,8.0,3.0,3.0,3.1622776601683795,3.0,3.0,13.0,19.0,16.1245154965971,94.42986815621421,92.5418824100742,90.6697303403953,85.58621384311844
358,43,551,0,18.3850333333331,4.0,40.311288741492746,4.123105625617661,5.0990195135927845,12.165525060596439,12.165525060596439,11.0,24.08318915758459,19.026297590440446,17.0,18.0,13.0,4.5,8.5,3.5,2.5,3.1622776601683795,3.1622776601683795,3.0,13.0,19.0,18.110770276274835,96.42095207992918,95.63472172804185,91.7877987534291,87.69264507357501
359,43,552,0,18.418399999999767,5.0990195135927845,38.63935817272331,3.0,4.47213595499958,12.165525060596439,13.152946437965905,11.045361017187261,23.345235059857504,19.1049731745428,16.5,22.0,15.0,7.5,4.5,1.5,5.5,3.1622776601683795,3.1622776601683795,3.0,14.0,18.0,17.11724276862369,95.42536350467836,93.64827814754524,91.7877987534291,87.82368700982668
360,43,553,0,18.45176666666644,4.123105625617661,39.319206502675,3.0,4.0,12.165525060596439,13.152946437965905,12.041594578792296,23.08679276123039,19.1049731745428,17.0,19.0,14.0,4.5,6.5,2.5,3.5,3.0,3.0,3.0,13.0,19.0,17.11724276862369,95.25754563287887,93.34345183246653,91.44397191723465,86.57944328765345
361,43,554,0,18.4851333333331,1.4142135623730951,37.656340767525464,3.0,4.123105625617661,12.165525060596439,12.165525060596439,13.038404810405298,19.235384061671343,15.132745950421556,15.5,21.0,14.0,4.5,1.5,1.5,3.5,3.0,2.23606797749979,2.5,13.0,17.0,16.1245154965971,95.33624704172071,93.43446901438462,91.6624241442479,87.69264507357501
362,43,555,0,18.518499999999765,0.0,40.311288741492746,3.0,5.0990195135927845,12.041594578792296,12.36931687685298,12.0,20.024984394500787,15.0,15.0,18.0,13.0,3.5,4.5,0.5,1.5,3.0,3.1622776601683795,3.0,13.0,17.0,16.0312195418814,97.25224933131366,95.42536350467836,92.65527507918802,87.69264507357501
