,video_id,frame_seq,gap,time_seconds,m1,m3,m4,m5,m6,m7,m8,m9,m10,m11,m12,m13,m14,m15,m16,m17,e1,e2,e3,b1,b2,b3,m_0_16,m_1_15,m_2_14,m_3_13
0,1,219,1,7.3073000000000095,4.123105625617661,29.154759474226502,4.0,5.0,8.06225774829855,8.06225774829855,6.324555320336759,19.235384061671343,14.317821063276353,12.0,14.0,11.0,6.5,6.5,1.5,3.5,4.0,4.123105625617661,4.0,9.0,12.0,10.04987562112089,74.43117626371358,74.24284477308234,71.17583859709698,67.11929677819934
1,1,220,0,7.340666666666676,3.1622776601683795,29.068883707497267,3.0,6.0,8.06225774829855,9.055385138137417,6.082762530298219,18.110770276274835,12.165525060596439,10.5,12.0,10.0,5.0,7.0,1.0,3.0,4.0,4.0,4.0,9.0,10.0,10.0,74.24284477308234,73.10950690573696,70.11419257183242,67.11929677819934
2,1,221,0,7.374033333333343,2.0,29.068883707497267,3.0,5.0990195135927845,8.06225774829855,9.055385138137417,6.324555320336759,16.278820596099706,11.180339887498949,10.0,12.0,10.0,5.0,5.0,0.0,3.0,4.0,4.0,4.0,8.0,9.0,10.0,73.24616030891995,71.17583859709698,69.18092222571191,66.18912297349165
3,1,222,0,7.40740000000001,1.0,26.076809620810597,3.0,5.0990195135927845,7.0710678118654755,7.0,6.324555320336759,15.297058540778355,10.198039027185569,9.5,11.0,9.0,4.0,5.0,0.0,2.0,4.123105625617661,3.0,3.0,8.0,9.0,10.0,69.18092222571191,68.18357573492314,65.12296062065974,62.12889826803627
4,1,223,0,7.440766666666676,1.0,26.076809620810597,3.0,5.0990195135927845,7.0710678118654755,7.0710678118654755,6.324555320336759,15.297058540778355,10.198039027185569,9.5,11.0,9.0,4.0,5.0,0.0,2.0,3.0,4.0,4.0,7.0,9.0,10.04987562112089,69.26037828369117,67.26812023536856,65.19202405202648,61.204574992397426
5,1,224,0,7.474133333333343,2.23606797749979,25.079872407968907,3.0,4.0,7.0,8.0,5.0990195135927845,14.142135623730951,10.198039027185569,9.0,11.0,9.0,5.0,4.0,1.0,2.0,4.123105625617661,3.1622776601683795,3.5,8.0,9.0,8.0,66.18912297349165,63.198101237299845,61.204574992397426,58.215118311311535
6,1,225,0,7.50750000000001,2.0,24.08318915758459,2.0,4.123105625617661,6.0,7.0,6.324555320336759,14.317821063276353,10.198039027185569,9.0,11.0,9.0,4.0,4.0,1.0,2.0,3.0,3.0,3.0,7.0,8.0,7.0,64.19501538281614,62.20128616033595,60.207972893961475,57.3149195236284
7,1,226,0,7.540866666666677,2.0,23.08679276123039,3.0,4.0,6.0,7.0,5.385164807134504,14.142135623730951,10.198039027185569,9.0,11.0,9.0,5.0,4.0,0.0,2.0,3.0,3.0,3.0,8.0,8.0,7.0,62.20128616033595,60.13318551349163,58.309518948453004,55.226805085936306
8,1,227,0,7.574233333333344,1.0,22.02271554554524,3.0,5.0990195135927845,6.0,7.0,5.0990195135927845,14.142135623730951,9.055385138137417,8.5,10.0,9.0,4.5,4.5,0.5,1.5,3.1622776601683795,3.1622776601683795,3.0,8.0,8.0,8.06225774829855,60.207972893961475,59.135437767890075,56.22277118748239,54.230987451824994
9,1,228,0,7.60760000000001,2.0,22.02271554554524,3.0,4.123105625617661,6.082762530298219,7.0,5.385164807134504,14.317821063276353,10.198039027185569,9.0,10.0,9.0,4.5,4.5,0.5,2.5,4.0,3.0,3.5,7.0,8.0,8.06225774829855,60.29925372672534,58.215118311311535,56.32051136131489,54.3323108288245
10,1,229,0,7.640966666666677,2.0,21.02379604162864,2.0,4.0,6.0,6.0,4.47213595499958,12.165525060596439,8.246211251235321,7.0,9.0,8.0,4.5,3.5,0.5,2.5,3.0,2.0,2.5,7.0,7.0,7.0,58.137767414994535,56.22277118748239,54.3323108288245,52.23983154643591
11,1,230,0,7.674333333333344,2.0,20.024984394500787,3.0,4.123105625617661,6.082762530298219,6.0,3.1622776601683795,12.165525060596439,8.06225774829855,7.0,8.0,7.0,4.5,4.5,0.5,2.5,3.0,3.0,3.0,7.0,7.0,7.0,56.22277118748239,55.226805085936306,53.23532661682466,51.24451190127583
12,1,231,0,7.707700000000011,2.23606797749979,18.110770276274835,2.0,4.0,6.0,6.082762530298219,4.123105625617661,12.165525060596439,8.246211251235321,7.0,9.0,7.0,4.0,4.0,1.0,2.0,2.0,2.0,2.5,6.0,7.0,6.082762530298219,55.226805085936306,54.230987451824994,51.35172830587107,49.36598018878993
13,1,232,0,7.741066666666677,1.0,19.026297590440446,3.0,4.123105625617661,6.082762530298219,6.0,4.123105625617661,12.165525060596439,8.06225774829855,7.5,9.0,8.0,4.5,3.5,0.5,2.5,3.1622776601683795,3.0,3.0,6.0,6.0,6.0,53.150729063673246,52.23983154643591,50.35871324805669,48.25971404805462
14,1,233,0,7.774433333333344,2.23606797749979,15.033296378372908,2.23606797749979,4.123105625617661,5.0,5.0990195135927845,7.0710678118654755,11.180339887498949,7.0710678118654755,8.0,12.0,11.0,4.5,0.5,4.5,2.5,3.0,2.0,2.5,6.0,6.0,6.0,53.150729063673246,52.23983154643591,49.25444142409901,47.38143096192854
15,1,323,1,10.77743333333328,4.47213595499958,52.03844732503075,5.0,8.06225774829855,11.0,12.0,15.132745950421556,32.14031735997639,24.331050121192877,22.0,21.0,19.0,5.0,12.0,5.0,0.0,10.0,11.045361017187261,11.5,18.0,19.0,29.0,146.05478424207814,147.12239802287073,146.21901381147393,138.2931668593933
16,1,324,0,10.810799999999944,4.123105625617661,48.16637831516918,6.082762530298219,9.0,10.04987562112089,11.180339887498949,13.038404810405298,32.01562118716424,23.021728866442675,21.0,22.0,18.0,7.0,12.0,4.0,2.0,10.04987562112089,10.04987562112089,10.5,17.0,19.0,28.0,146.16771189288008,145.27904184706065,142.50614021858848,136.5283853270081
17,1,325,0,10.844166666666611,3.1622776601683795,48.25971404805462,6.082762530298219,8.0,10.04987562112089,11.180339887498949,13.038404810405298,30.01666203960727,22.02271554554524,20.5,22.0,17.0,6.5,10.5,3.5,1.5,10.04987562112089,10.04987562112089,10.0,17.0,20.0,29.0,143.28293687665675,143.42245291445826,141.69333082400175,135.6244815658294
18,1,326,0,10.877533333333275,2.23606797749979,47.38143096192854,6.082762530298219,8.0,10.04987562112089,11.180339887498949,13.038404810405298,29.017236257093817,21.02379604162864,20.0,22.0,16.0,6.0,10.0,3.0,1.0,10.04987562112089,10.04987562112089,10.0,16.0,21.0,29.017236257093817,139.43457247038842,141.69333082400175,139.8070098385628,133.843191832831
19,1,327,0,10.910899999999945,1.4142135623730951,46.52956049652737,6.082762530298219,7.0710678118654755,9.219544457292887,11.180339887498949,14.035668847618199,28.0,21.02379604162864,20.5,23.0,16.0,5.5,8.5,2.5,1.5,10.0,9.055385138137417,9.5,16.0,23.0,30.01666203960727,136.61991070118586,139.91783303067555,139.04315876734103,132.9661611087573
20,1,367,1,12.245566666666578,4.0,40.19950248448356,4.123105625617661,9.055385138137417,11.045361017187261,12.0,11.180339887498949,28.284271247461902,19.235384061671343,17.0,13.0,9.0,0.0,17.0,8.0,3.0,2.23606797749979,2.23606797749979,1.5,11.0,19.0,19.1049731745428,116.40017182117903,114.27160627207444,110.16805344563369,101.83319694480774
21,1,368,0,12.278933333333244,4.123105625617661,37.33630940518894,4.0,8.06225774829855,9.219544457292887,10.04987562112089,11.40175425099138,27.459060435491963,19.4164878389476,17.0,14.0,9.0,0.5,15.5,6.5,1.5,2.23606797749979,2.23606797749979,1.5,11.0,19.0,18.110770276274835,112.44998888394787,110.3177229641729,106.21205204683694,98.00510190801293
22,1,369,0,12.31229999999991,4.123105625617661,37.33630940518894,4.0,8.06225774829855,10.04987562112089,11.045361017187261,10.44030650891055,26.476404589747453,18.439088914585774,16.0,13.0,8.0,0.5,15.5,7.5,2.5,2.23606797749979,1.4142135623730951,1.5,10.0,18.0,19.1049731745428,108.18964830333815,107.20074626605917,102.1077861869505,94.89467845985885
23,1,370,0,12.345666666666576,4.123105625617661,37.21558813185679,4.0,8.06225774829855,10.04987562112089,11.0,10.198039027185569,26.30589287593181,18.24828759089466,16.0,13.0,9.0,1.0,15.0,7.0,2.0,2.23606797749979,2.23606797749979,2.0,10.0,18.0,17.11724276862369,105.22357150372724,104.23531071570709,99.98499887483122,92.77930803794561
24,1,371,0,12.379033333333242,3.0,35.22782990761707,4.0,7.0710678118654755,10.198039027185569,11.045361017187261,9.219544457292887,23.194827009486403,16.1245154965971,14.5,11.0,7.0,0.0,14.0,6.0,2.0,2.23606797749979,2.23606797749979,2.0,10.0,17.0,16.1245154965971,101.27191120937731,99.14131328563285,94.89467845985885,88.81441324469807
25,1,372,0,12.412399999999908,3.1622776601683795,33.13608305156178,3.0,7.0710678118654755,9.055385138137417,9.0,10.198039027185569,23.345235059857504,16.278820596099706,14.5,11.0,8.0,0.5,13.5,6.5,2.5,1.4142135623730951,2.23606797749979,2.0,9.0,16.0,16.0312195418814,99.46356116689167,97.16480844420988,94.04786015641186,86.83317338436964
26,1,373,0,12.445766666666572,3.1622776601683795,32.14031735997639,3.1622776601683795,7.0710678118654755,8.06225774829855,9.055385138137417,10.04987562112089,23.345235059857504,16.278820596099706,14.5,11.0,8.0,0.5,13.5,6.5,2.5,2.23606797749979,2.23606797749979,1.5,9.0,15.0,16.1245154965971,96.0260381354974,95.03683496413377,90.79647570252934,83.72574275573791
27,1,374,0,12.47913333333324,4.0,32.14031735997639,3.1622776601683795,7.0710678118654755,9.0,9.0,8.06225774829855,22.20360331117452,15.132745950421556,13.0,9.0,6.0,0.5,14.5,7.5,3.5,2.0,2.23606797749979,2.0,9.0,16.0,15.132745950421556,93.2148056909416,91.0823802938856,86.97700845625813,81.74350127074322
28,1,375,0,12.512499999999903,3.0,29.274562336608895,3.0,7.0710678118654755,8.06225774829855,8.06225774829855,9.219544457292887,22.20360331117452,15.132745950421556,13.5,12.0,8.0,1.0,12.0,5.0,1.0,1.4142135623730951,2.23606797749979,2.0,9.0,15.0,15.132745950421556,89.10667763978185,89.10667763978185,84.8528137423857,78.77182237323191
29,1,376,0,12.545866666666573,2.23606797749979,29.154759474226502,3.0,7.0,8.0,8.06225774829855,9.219544457292887,21.213203435596427,14.317821063276353,13.0,10.0,7.0,0.5,12.5,5.5,2.5,2.0,2.8284271247461903,2.0,8.0,15.0,15.132745950421556,88.11923740024082,85.98837130682264,81.88406438373708,75.8023746329889
30,1,377,0,12.579233333333235,3.1622776601683795,29.274562336608895,3.0,7.0710678118654755,8.06225774829855,8.06225774829855,8.246211251235321,21.37755832643195,14.317821063276353,12.5,11.0,7.0,1.0,12.0,5.0,1.0,2.23606797749979,2.23606797749979,2.0,8.0,15.0,14.035668847618199,85.15867542417507,83.02409288875127,79.90619500389191,73.824115301167
31,1,378,0,12.612599999999905,4.0,27.294688127912362,2.23606797749979,5.0990195135927845,7.0710678118654755,8.06225774829855,8.246211251235321,19.4164878389476,14.317821063276353,12.0,10.0,6.0,0.0,11.0,5.0,1.0,1.0,1.4142135623730951,1.0,8.0,14.0,14.142135623730951,81.21576201698781,79.90619500389191,76.94153624668537,70.8590149522275
32,1,379,0,12.645966666666569,3.1622776601683795,27.16615541441225,3.0,6.0,7.0710678118654755,8.06225774829855,8.246211251235321,20.223748416156685,14.317821063276353,12.5,10.0,7.0,0.5,11.5,5.5,1.5,1.4142135623730951,1.4142135623730951,1.0,8.0,14.0,13.152946437965905,80.06247560499239,78.77182237323191,75.8023746329889,69.58448102845921
33,1,380,0,12.679333333333236,3.0,27.073972741361768,3.1622776601683795,6.082762530298219,7.0710678118654755,7.0710678118654755,7.0710678118654755,19.235384061671343,13.152946437965905,11.5,9.0,7.0,1.0,11.0,5.0,1.0,1.4142135623730951,1.4142135623730951,1.0,8.0,13.0,13.038404810405298,78.77182237323191,76.6550715869472,72.56031973468694,68.59300255857006
34,1,381,0,12.7126999999999,4.0,28.160255680657446,3.0,5.0990195135927845,8.06225774829855,8.06225774829855,6.082762530298219,18.110770276274835,13.038404810405298,11.0,8.0,5.0,0.5,11.5,5.5,1.5,1.4142135623730951,1.4142135623730951,1.0,8.0,13.0,13.038404810405298,76.94153624668537,74.96665925596525,71.7007670809734,66.75327707311455
35,1,382,0,12.746066666666566,3.0,25.179356624028344,2.0,5.0990195135927845,6.0,6.082762530298219,8.246211251235321,18.24828759089466,13.152946437965905,11.5,9.0,6.0,0.5,10.5,4.5,2.5,2.23606797749979,1.4142135623730951,1.0,7.0,13.0,12.041594578792296,73.97972695272672,73.824115301167,71.7007670809734,65.62011886609167
36,1,383,0,12.779433333333232,2.23606797749979,25.179356624028344,3.0,6.0,6.082762530298219,6.082762530298219,7.0710678118654755,18.110770276274835,12.165525060596439,11.0,9.0,6.0,0.5,10.5,4.5,1.5,2.23606797749979,1.4142135623730951,1.0,7.0,12.0,12.041594578792296,72.83543093852057,71.7007670809734,68.73136110975832,63.63961030678928
37,1,384,0,12.812799999999898,2.0,25.179356624028344,2.0,5.0990195135927845,6.0,7.0,7.0710678118654755,16.1245154965971,11.045361017187261,10.0,8.0,5.0,0.5,9.5,4.5,2.5,1.0,1.4142135623730951,1.0,7.0,12.0,12.041594578792296,70.8590149522275,69.87131027825369,67.7421582177598,62.80127387243033
38,1,385,0,12.846166666666564,2.0,23.194827009486403,3.0,5.0990195135927845,6.082762530298219,6.0,7.0710678118654755,17.11724276862369,12.041594578792296,11.0,9.0,6.0,0.5,9.5,4.5,1.5,1.4142135623730951,1.4142135623730951,1.0,6.0,11.0,12.165525060596439,69.58448102845921,68.73136110975832,65.49045732013177,60.530983801686226
39,1,386,0,12.87953333333323,2.0,22.090722034374522,2.23606797749979,5.0,6.082762530298219,7.0,7.0710678118654755,16.1245154965971,11.180339887498949,10.0,8.0,6.0,0.0,9.0,4.0,1.0,2.23606797749979,2.23606797749979,1.5,7.0,12.0,12.041594578792296,68.73136110975832,67.60177512462228,63.63961030678928,59.53990258641679
40,1,397,1,13.246566666666554,1.4142135623730951,51.35172830587107,4.123105625617661,7.0710678118654755,14.142135623730951,15.033296378372908,16.278820596099706,28.635642126552707,21.587033144922902,20.5,13.0,19.0,0.0,12.0,3.0,4.0,3.0,4.0,4.0,15.0,10.0,17.11724276862369,121.69634341261039,121.49897118905987,118.3427226321923,111.22050170719426
41,1,398,0,13.27993333333322,1.0,49.16299421312742,3.1622776601683795,8.06225774829855,14.035668847618199,15.033296378372908,16.1245154965971,28.284271247461902,20.223748416156685,19.5,14.0,18.0,0.0,12.0,3.0,3.0,3.0,4.0,4.0,13.0,8.0,14.142135623730951,113.53413583587978,114.35471131527551,111.28791488746656,105.17128885774862
42,1,399,0,13.313299999999886,1.4142135623730951,47.16990566028302,3.1622776601683795,7.0,14.035668847618199,15.033296378372908,15.297058540778355,26.476404589747453,19.6468827043885,18.5,13.0,17.0,0.0,11.0,3.0,3.0,3.0,3.0,3.0,12.0,8.0,14.142135623730951,106.38138934982942,106.23088063270491,103.12128781197411,99.04544411531506
43,1,400,0,13.346666666666552,1.0,40.19950248448356,3.1622776601683795,7.0710678118654755,11.045361017187261,12.041594578792296,14.035668847618199,25.179356624028344,18.110770276274835,17.5,13.0,17.0,1.0,10.0,2.0,2.0,3.1622776601683795,4.0,3.5,13.0,8.0,15.033296378372908,101.59724405711013,101.40019723846694,97.25224933131366,90.13878188659973
44,1,401,0,13.380033333333218,1.0,43.104524124504614,3.1622776601683795,6.082762530298219,12.041594578792296,13.0,13.152946437965905,23.345235059857504,17.26267650163207,16.5,12.0,15.0,0.5,9.5,2.5,2.5,2.0,3.1622776601683795,3.0,11.0,7.0,13.152946437965905,96.51942809610924,96.42095207992918,93.26306878931231,88.14193099768123
45,1,402,0,13.413399999999884,1.0,40.19950248448356,3.0,7.0710678118654755,11.045361017187261,12.041594578792296,13.152946437965905,23.345235059857504,16.278820596099706,16.0,11.0,15.0,0.0,10.0,2.0,3.0,3.0,3.0,3.0,10.0,6.0,12.041594578792296,91.44397191723465,91.26883367283708,88.2779700718135,83.15046602394962
46,1,403,0,13.44676666666655,1.0,38.118237105091836,3.0,7.0,11.045361017187261,11.045361017187261,12.165525060596439,22.20360331117452,15.297058540778355,15.0,11.0,14.0,0.5,9.5,1.5,2.5,2.0,2.0,2.5,9.0,5.0,12.041594578792296,86.37129152675674,86.28441342444185,84.2140130857092,79.1580697086532
47,1,404,0,13.480133333333216,0.0,37.12142238654117,3.1622776601683795,6.082762530298219,11.045361017187261,11.045361017187261,11.180339887498949,20.396078054371138,14.317821063276353,14.0,10.0,13.0,0.5,8.5,1.5,2.5,2.0,3.0,2.5,10.0,6.0,11.045361017187261,82.49242389456137,83.2946576918352,80.22468448052632,75.16648189186454
48,1,405,0,13.51349999999988,0.0,35.12833614050059,3.0,5.0990195135927845,10.0,10.0,11.180339887498949,19.235384061671343,14.142135623730951,14.0,9.0,12.0,0.5,8.5,2.5,2.5,3.0,3.0,3.0,9.0,5.0,10.04987562112089,77.41446893184762,77.31752712031083,75.23961722390672,72.17340230306452
49,1,406,0,13.546866666666547,1.4142135623730951,34.132096331752024,3.0,4.0,9.055385138137417,9.0,10.198039027185569,18.24828759089466,14.317821063276353,13.5,9.0,12.0,0.5,7.5,2.5,2.5,2.0,2.0,2.5,8.0,4.0,11.180339887498949,76.23647421018367,76.10519036176179,74.10802925459562,70.06425622241343
50,1,407,0,13.580233333333211,1.4142135623730951,32.14031735997639,2.0,5.0990195135927845,9.055385138137417,10.04987562112089,10.198039027185569,18.439088914585774,13.341664064126334,12.5,9.0,12.0,0.5,7.5,1.5,1.5,2.0,2.0,2.0,9.0,5.0,10.04987562112089,74.33034373659252,74.16872656315464,72.11102550927978,68.06614430096654
51,1,408,0,13.61359999999988,1.0,32.0624390837628,3.1622776601683795,5.0,9.0,9.055385138137417,10.04987562112089,17.11724276862369,12.165525060596439,12.5,9.0,11.0,0.0,7.0,1.0,2.0,1.0,2.0,2.0,8.0,4.0,10.04987562112089,71.34423592694787,71.25307010929424,69.26037828369117,66.18912297349165
52,1,409,0,13.646966666666543,1.0,31.144823004794873,3.0,4.0,10.0,10.04987562112089,10.04987562112089,17.11724276862369,13.152946437965905,13.0,9.0,12.0,0.5,6.5,1.5,1.5,2.0,2.0,2.0,7.0,4.0,9.055385138137417,68.3593446428504,67.1863081289633,65.12296062065974,62.07253821135398
53,1,410,0,13.68033333333321,1.4142135623730951,29.154759474226502,2.0,4.0,9.055385138137417,9.055385138137417,9.219544457292887,16.278820596099706,12.36931687685298,11.5,8.0,11.0,0.5,6.5,1.5,1.5,2.23606797749979,2.0,2.0,8.0,4.0,9.055385138137417,66.18912297349165,65.12296062065974,63.12685640834652,60.03332407921454
54,1,411,0,13.713699999999877,1.4142135623730951,28.160255680657446,2.0,4.0,8.0,9.055385138137417,8.06225774829855,15.132745950421556,11.180339887498949,10.5,7.0,10.0,0.5,6.5,1.5,1.5,1.4142135623730951,2.0,1.5,8.0,5.0,9.055385138137417,64.38167441127949,64.28063471995279,61.1310068623117,58.077534382926416
55,1,412,0,13.747066666666544,1.0,28.160255680657446,2.0,4.123105625617661,8.06225774829855,8.0,9.219544457292887,16.278820596099706,12.165525060596439,11.5,8.0,11.0,0.5,6.5,1.5,1.5,2.0,1.0,1.5,7.0,4.0,8.06225774829855,61.29437168288782,60.29925372672534,59.21148537234985,56.08029957123981
56,1,413,0,13.780433333333209,1.0,26.076809620810597,2.0,3.1622776601683795,8.06225774829855,8.0,8.246211251235321,14.317821063276353,11.180339887498949,10.5,7.0,9.0,0.0,6.0,2.0,2.0,2.0,2.0,1.5,7.0,4.0,8.06225774829855,59.135437767890075,60.07495318350236,59.07622195096772,56.00892785976178
57,1,414,0,13.813799999999874,0.0,26.076809620810597,2.23606797749979,4.0,8.06225774829855,8.06225774829855,8.06225774829855,14.142135623730951,10.198039027185569,10.0,7.0,9.0,0.0,6.0,2.0,2.0,2.0,1.0,1.5,7.0,4.0,6.082762530298219,57.3149195236284,57.21887800367987,56.142675390472796,53.08483775994799
58,1,415,0,13.84716666666654,1.0,26.076809620810597,2.0,3.0,8.0,8.06225774829855,8.246211251235321,13.341664064126334,10.44030650891055,10.0,7.0,9.0,0.0,5.0,1.0,1.0,1.0,2.0,2.0,6.0,3.0,8.246211251235321,55.14526271584895,56.142675390472796,55.08175741568164,52.03844732503075
59,1,416,0,13.880533333333206,0.0,24.08318915758459,2.23606797749979,3.0,7.0710678118654755,7.0,8.06225774829855,13.152946437965905,10.198039027185569,10.0,7.0,9.0,0.0,5.0,1.0,2.0,1.0,2.0,1.5,7.0,4.0,8.06225774829855,54.3323108288245,54.230987451824994,53.23532661682466,51.088159097779204
60,1,417,0,13.913899999999872,1.0,24.08318915758459,2.0,3.0,7.0710678118654755,7.0,7.0710678118654755,12.165525060596439,9.219544457292887,9.0,6.0,8.0,0.0,5.0,2.0,2.0,1.4142135623730951,2.0,1.5,6.0,3.0,7.0710678118654755,54.230987451824994,54.147945482723536,53.08483775994799,50.08991914547278
61,1,664,1,22.155466666666342,6.0,94.19129471453293,8.0,12.041594578792296,24.020824298928627,26.019223662515376,20.024984394500787,46.04345773288535,34.0147027033899,31.0,28.0,22.0,5.0,21.0,8.0,1.0,8.246211251235321,7.280109889280518,7.5,22.0,34.0,28.284271247461902,213.3377603707323,211.3409567499873,207.2920644887305,198.20443990990717
62,1,665,0,22.18883333333301,5.0,94.19129471453293,7.0710678118654755,13.038404810405298,24.020824298928627,26.076809620810597,21.0,46.04345773288535,33.015148038438355,30.5,28.0,22.0,4.0,21.0,7.0,2.0,7.0710678118654755,8.246211251235321,7.5,21.0,36.0,31.575306807693888,219.73848092675985,219.65882636488797,213.60009363293827,206.47518010647187
63,1,666,0,22.22219999999968,4.0,91.19758768739445,7.0710678118654755,12.041594578792296,24.020824298928627,24.08318915758459,21.02379604162864,44.10215414239989,32.0624390837628,30.0,28.0,22.0,4.0,19.0,7.0,1.0,6.324555320336759,6.082762530298219,6.0,21.0,35.0,31.400636936215164,223.80795338861395,222.72853431924702,218.58636736997119,210.40199618824911
64,1,667,0,22.255566666666343,3.0,92.26592003551474,7.0710678118654755,11.045361017187261,25.019992006393608,25.079872407968907,21.02379604162864,42.1070065428546,31.064449134018133,29.5,28.0,21.0,3.5,17.5,6.5,1.5,5.385164807134504,6.082762530298219,6.0,20.0,34.0,32.38826948140329,222.72853431924702,221.65288177689007,219.5130975591206,211.4000946073582
65,1,668,0,22.28893333333301,3.0,89.20201791439474,6.082762530298219,10.04987562112089,23.021728866442675,24.08318915758459,22.0,41.048751503547585,31.016124838541646,29.5,29.0,23.0,4.0,15.0,4.0,1.0,3.605551275463989,4.123105625617661,4.0,23.0,35.0,31.25699921617557,224.64416306683776,222.64994947226015,219.58369702689677,212.46176126540982
66,1,669,0,22.322299999999675,4.0,104.12012293500234,6.0,11.0,27.018512172212592,28.071337695236398,20.0,41.0,30.0,28.0,28.0,23.0,5.5,15.5,4.5,0.5,6.082762530298219,4.123105625617661,4.5,23.0,31.0,32.0624390837628,226.14154859291116,225.10886255321003,221.11083193728885,213.15018179677915
67,1,670,0,22.35566666666634,3.0,91.02197536858887,7.0,10.04987562112089,24.0,25.0,22.0,42.01190307520001,32.0,30.5,31.0,29.0,8.0,12.0,1.0,2.0,3.1622776601683795,3.1622776601683795,3.5,25.0,33.0,32.2490309931942,221.38202275704322,221.38202275704322,219.32852071721086,212.2851855405836
68,1,671,0,22.389033333333007,4.0,87.0,5.0,8.0,23.0,24.0,25.019992006393608,42.01190307520001,34.0147027033899,32.0,34.0,34.0,9.0,8.0,1.0,5.0,4.123105625617661,5.0,4.5,27.0,31.0,33.06055050963308,224.0557966221807,222.11033294288674,220.11133546457802,213.11499243366245
69,1,672,0,22.42239999999968,6.082762530298219,88.02272433866155,5.0,8.06225774829855,24.020824298928627,24.0,25.019992006393608,44.10215414239989,36.05551275463989,33.0,35.0,37.0,11.0,8.0,1.0,6.0,5.0990195135927845,5.0,5.5,27.0,28.0,34.0147027033899,222.0,220.02045359466015,217.05759604307792,211.0852908186641
70,1,673,0,22.45576666666634,7.0710678118654755,84.09518416651456,4.123105625617661,8.06225774829855,22.090722034374522,22.02271554554524,26.019223662515376,45.17742799230607,37.12142238654117,33.5,35.0,39.0,11.0,8.0,1.0,7.0,5.0,5.0,5.0,27.0,25.0,32.01562118716424,225.14217730136662,220.03636063160107,215.0,207.00966161027364
71,1,674,0,22.489133333333005,5.0990195135927845,84.29116205154607,3.1622776601683795,7.280109889280518,22.20360331117452,22.090722034374522,25.079872407968907,40.44749683231337,33.24154027718932,30.5,32.0,39.0,10.5,4.5,3.5,6.5,5.0,6.0,5.5,28.0,24.0,29.017236257093817,221.27358631341428,219.0821763631172,216.0208323287363,208.0
72,1,675,0,22.52249999999967,3.605551275463989,79.40403012442127,5.0990195135927845,6.082762530298219,21.095023109728988,21.095023109728988,25.179356624028344,39.6232255123179,33.54101966249684,31.5,30.0,38.0,9.0,5.0,3.0,4.0,6.0,6.0,6.5,30.0,23.0,29.068883707497267,224.43707358633955,220.18401395196702,218.03669415949233,210.00952359357422
73,1,676,0,22.555866666666336,2.23606797749979,73.55270219373317,5.0990195135927845,6.324555320336759,19.235384061671343,20.223748416156685,27.294688127912362,40.024992192379,33.734255586866,32.5,30.0,39.0,7.5,4.5,3.5,2.5,6.0,6.082762530298219,6.0,32.0,22.0,27.073972741361768,219.20994502987313,215.67104580819372,212.2851855405836,205.11947737842937
74,1,677,0,22.589233333333,1.4142135623730951,77.92945527847606,5.0990195135927845,7.615773105863909,21.37755832643195,20.223748416156685,26.476404589747453,38.3275357934736,30.805843601498726,30.5,26.0,38.0,6.0,5.0,5.0,1.0,6.082762530298219,6.082762530298219,6.0,31.0,20.0,28.284271247461902,214.34784813475503,211.68372634664195,207.24140512938047,199.090431713832
75,1,678,0,22.622599999999668,2.23606797749979,81.58431221748455,5.385164807134504,7.615773105863909,21.587033144922902,22.360679774997898,26.30589287593181,38.600518131237564,31.04834939252005,30.5,25.0,41.0,7.0,4.0,6.0,1.0,6.0,5.385164807134504,5.5,32.0,18.0,27.459060435491963,212.8497122384712,212.042448580467,207.54276667713572,200.24984394500785
76,1,679,0,22.65596666666633,2.23606797749979,80.4114419718985,5.385164807134504,7.280109889280518,21.587033144922902,21.587033144922902,27.459060435491963,41.48493702538308,34.20526275297414,32.5,27.0,42.0,7.5,5.5,4.5,1.5,6.082762530298219,7.0710678118654755,6.5,33.0,18.0,29.427877939124322,219.64744478368056,216.6887168266959,213.03755537463343,206.54539452623968
77,1,680,0,22.689333333333,4.47213595499958,76.48529270389177,4.47213595499958,7.615773105863909,21.587033144922902,22.360679774997898,26.476404589747453,42.720018726587654,35.17101079013795,32.0,28.0,43.0,9.5,5.5,4.5,4.5,5.385164807134504,6.082762530298219,6.0,33.0,16.0,29.427877939124322,217.671771252039,213.84106247397855,208.27385817716058,200.80836635957178
78,1,681,0,22.722699999999666,3.605551275463989,74.14849964766651,4.47213595499958,8.54400374531753,20.396078054371138,21.37755832643195,25.495097567963924,41.7612260356422,33.24154027718932,30.5,28.0,41.0,9.5,5.5,5.5,4.5,6.082762530298219,6.324555320336759,6.0,34.0,19.0,25.317977802344327,217.17504460687928,214.40149253211834,208.75344308537763,202.09403751719148
79,1,682,0,22.75606666666633,7.615773105863909,76.2954782408499,3.1622776601683795,7.615773105863909,21.587033144922902,22.360679774997898,25.96150997149434,44.27188724235731,36.68787265568828,31.5,28.0,42.0,10.0,7.0,2.0,5.0,6.082762530298219,6.324555320336759,6.0,32.0,17.0,26.30589287593181,217.51781536232843,214.70444802099468,209.05740838343903,202.63267258761604
80,1,683,0,22.789433333333,2.8284271247461903,75.95393340703298,4.47213595499958,9.486832980505138,21.37755832643195,21.213203435596427,25.709920264364882,42.05948168962618,32.57299494980466,30.0,29.0,41.0,10.0,5.0,6.0,4.0,6.324555320336759,6.082762530298219,6.0,33.0,19.0,26.1725046566048,212.5770448566825,209.61870145576228,206.0728026693479,197.7321420508057
81,1,684,0,22.822799999999663,5.0,76.2954782408499,4.123105625617661,8.54400374531753,21.587033144922902,22.20360331117452,25.709920264364882,43.01162633521314,34.48187929913333,31.0,29.0,43.0,11.0,5.0,6.0,5.0,6.082762530298219,7.280109889280518,6.5,33.0,19.0,26.1725046566048,211.91035840656775,210.15232570685484,206.40009689920205,199.00753754569197
82,1,685,0,22.85616666666633,5.830951894845301,76.11832893594026,3.605551275463989,7.615773105863909,20.615528128088304,20.396078054371138,25.709920264364882,42.37924020083418,34.785054261852174,30.5,28.0,41.0,9.5,5.5,3.5,4.5,5.0,6.082762530298219,5.5,32.0,18.0,26.30589287593181,219.92044015961773,215.23243250030885,210.77001684300356,202.48456731316588
83,1,686,0,22.889533333332995,6.324555320336759,74.96665925596525,4.47213595499958,6.708203932499369,21.37755832643195,21.37755832643195,25.495097567963924,42.720018726587654,36.138621999185304,32.0,29.0,41.0,10.0,6.0,3.0,5.0,6.082762530298219,6.324555320336759,6.0,33.0,20.0,27.16615541441225,214.2545215392198,211.60340261914504,207.96393918177256,200.7211996775627
84,1,687,0,22.92289999999966,5.0,75.13321502504735,4.123105625617661,6.324555320336759,20.615528128088304,21.213203435596427,25.709920264364882,40.80441152620633,34.48187929913333,31.0,28.0,41.0,9.5,4.5,4.5,3.5,5.0990195135927845,6.082762530298219,6.0,34.0,21.0,27.294688127912362,214.11212016137713,210.261741645978,206.7849124090053,200.48940121612415
85,1,688,0,22.956266666666327,3.605551275463989,75.95393340703298,4.123105625617661,6.708203932499369,20.396078054371138,21.37755832643195,25.709920264364882,39.21734310225516,32.57299494980466,30.0,27.0,39.0,8.0,4.0,4.0,3.0,5.0990195135927845,6.324555320336759,6.0,34.0,21.0,27.294688127912362,215.10230124292022,212.24985276791125,208.7773934122179,202.48456731316588
86,1,689,0,22.989633333333,3.605551275463989,72.99315036357864,4.47213595499958,7.615773105863909,19.4164878389476,21.213203435596427,25.495097567963924,40.80441152620633,33.24154027718932,30.5,26.0,38.0,7.0,7.0,2.0,2.0,5.385164807134504,5.0990195135927845,5.0,34.0,20.0,28.442925306655784,215.82400237230334,212.14381914163798,208.7773934122179,201.5589243868899
87,1,690,0,23.02299999999966,2.8284271247461903,79.2464510246358,4.47213595499958,7.615773105863909,22.561028345356956,22.360679774997898,25.495097567963924,39.84971769034255,32.28002478313795,30.0,26.0,40.0,8.0,5.0,4.0,2.0,5.0990195135927845,6.082762530298219,5.5,33.0,20.0,27.294688127912362,217.9380645963435,215.1278689523977,210.68697159530296,203.35437049643167
88,1,691,0,23.056366666666325,3.605551275463989,74.96665925596525,4.123105625617661,7.615773105863909,21.37755832643195,21.37755832643195,25.709920264364882,40.162171256046406,32.57299494980466,30.0,26.0,38.0,7.0,6.0,4.0,2.0,6.082762530298219,5.0990195135927845,5.0,33.0,20.0,28.284271247461902,216.6887168266959,213.13845265460665,209.69024774652732,202.41788458533006
89,1,692,0,23.08973333333299,2.8284271247461903,77.27871634544663,5.0990195135927845,6.708203932499369,22.561028345356956,22.360679774997898,25.495097567963924,39.56008088970496,32.984845004941285,31.0,26.0,40.0,8.0,5.0,4.0,2.0,4.123105625617661,5.0990195135927845,4.5,33.0,21.0,25.179356624028344,215.5736533067063,213.9369065869655,211.53250341259616,203.4158302591025
90,1,693,0,23.123099999999656,4.242640687119285,77.92945527847606,4.123105625617661,7.615773105863909,21.37755832643195,21.37755832643195,24.515301344262525,39.84971769034255,32.28002478313795,29.5,25.0,37.0,7.0,7.0,3.0,2.0,2.0,3.605551275463989,3.0,33.0,21.0,29.274562336608895,224.28776159211185,219.8226557932553,216.52020690919358,207.24140512938047
91,1,694,0,23.15646666666632,2.8284271247461903,81.21576201698781,5.0990195135927845,7.615773105863909,22.561028345356956,22.360679774997898,24.515301344262525,39.56008088970496,32.01562118716424,30.0,25.0,39.0,8.0,6.0,4.0,2.0,3.1622776601683795,4.123105625617661,4.0,31.0,22.0,26.1725046566048,218.43534512527958,216.02314690791817,211.53250341259616,203.29781110479277
92,1,695,0,23.189833333332988,2.8284271247461903,81.04936767180853,4.47213595499958,8.246211251235321,22.360679774997898,22.360679774997898,24.515301344262525,39.56008088970496,31.32091952673165,29.0,25.0,38.0,7.5,6.5,4.5,2.5,3.0,4.0,4.0,32.0,22.0,28.160255680657446,220.31114361284588,217.83020910791964,214.5250568115529,205.35091916034852
93,1,696,0,23.22319999999965,2.23606797749979,80.06247560499239,4.123105625617661,8.246211251235321,22.561028345356956,22.360679774997898,24.515301344262525,38.3275357934736,30.083217912982647,28.5,24.0,37.0,6.5,6.5,4.5,0.5,4.0,5.0990195135927845,5.0,31.0,21.0,29.068883707497267,218.3231549790356,216.8340379184043,213.39634486091836,206.196508214858
94,1,697,0,23.25656666666632,2.0,77.10382610480494,4.123105625617661,7.615773105863909,23.345235059857504,23.345235059857504,24.186773244895647,36.138621999185304,28.635642126552707,28.0,24.0,37.0,6.5,4.5,5.5,1.5,5.0990195135927845,4.123105625617661,4.5,31.0,21.0,31.25699921617557,217.22108553268947,213.84573879317773,209.69024774652732,201.48697228356974
95,1,698,0,23.289933333332986,1.0,82.87339742040264,4.123105625617661,8.54400374531753,23.345235059857504,24.331050121192877,23.194827009486403,35.90264614203248,27.459060435491963,27.0,24.0,36.0,7.0,5.0,6.0,2.0,6.082762530298219,6.082762530298219,6.5,30.0,22.0,30.14962686336267,216.02314690791817,214.75567512873786,210.535032714273,202.35612172603032
96,1,699,0,23.32329999999965,2.0,84.71717653463199,4.0,6.324555320336759,22.360679774997898,22.360679774997898,24.515301344262525,35.17101079013795,28.861739379323623,28.0,25.0,36.0,6.5,3.5,5.5,1.5,6.0,6.0,6.5,32.0,23.0,30.066592756745816,222.29934772733816,222.89908030317218,219.5130975591206,211.23683390924037
97,1,700,0,23.35666666666632,2.23606797749979,89.67719888578144,4.123105625617661,8.246211251235321,26.1725046566048,26.30589287593181,22.090722034374522,35.6931365951495,27.459060435491963,26.5,22.0,33.0,5.5,7.5,3.5,1.5,6.0,7.0,6.5,29.0,22.0,33.015148038438355,224.98222151983475,223.72527796384566,220.32702966272657,212.11553455605272
98,1,701,0,23.390033333332983,2.23606797749979,84.5931439302264,4.123105625617661,9.055385138137417,24.186773244895647,25.179356624028344,22.20360331117452,36.6742416417845,27.65863337187866,26.5,23.0,33.0,6.0,8.0,4.0,2.0,5.0,5.0990195135927845,5.0,31.0,24.0,32.0624390837628,218.58636736997119,219.32852071721086,217.23029254687293,210.11663427725088
99,1,702,0,23.42339999999965,2.23606797749979,83.48652585896721,5.0990195135927845,8.06225774829855,24.331050121192877,25.179356624028344,22.02271554554524,36.345563690772494,28.284271247461902,27.5,24.0,33.0,6.5,7.5,3.5,0.5,3.1622776601683795,4.123105625617661,4.5,29.0,24.0,31.0,218.66183937761065,217.5890622251036,213.45959805077868,206.47518010647187
100,1,703,0,23.456766666666315,2.23606797749979,87.36704184073076,5.0,8.246211251235321,26.1725046566048,25.179356624028344,22.20360331117452,37.48332962798263,29.274562336608895,28.0,25.0,33.0,7.0,8.0,3.0,2.0,3.0,4.123105625617661,4.0,28.0,24.0,32.0624390837628,216.453228204155,215.52262062252305,212.60291625469299,203.71057900855322
101,1,704,0,23.49013333333298,2.23606797749979,81.39410298049853,5.0990195135927845,8.246211251235321,24.08318915758459,24.08318915758459,22.360679774997898,37.8549864614954,29.614185789921695,28.0,25.0,33.0,7.0,8.0,2.0,2.0,4.0,4.123105625617661,4.0,29.0,24.0,30.01666203960727,220.5810508633958,219.5130975591206,215.52262062252305,209.46837470128995
102,1,705,0,23.523499999999647,4.123105625617661,86.37129152675674,5.0990195135927845,10.04987562112089,24.186773244895647,26.076809620810597,22.090722034374522,41.30375285612676,31.25699921617557,29.0,25.0,33.0,7.0,12.0,0.0,2.0,5.0990195135927845,5.0990195135927845,4.5,29.0,25.0,28.0,216.6679487141557,217.51781536232843,214.39449619801343,209.34421415458323
103,1,706,0,23.55686666666632,11.045361017187261,91.19758768739445,3.1622776601683795,9.219544457292887,26.1725046566048,26.076809620810597,22.090722034374522,45.39823785126467,36.22154055254967,30.5,26.0,32.0,7.0,16.0,5.0,3.0,1.4142135623730951,2.23606797749979,2.5,27.0,24.0,28.0178514522438,219.14607000811125,219.14607000811125,216.14809737770074,210.11663427725088
104,1,707,0,23.59023333333298,11.045361017187261,89.08984229416954,3.1622776601683795,9.055385138137417,24.08318915758459,26.019223662515376,22.02271554554524,45.17742799230607,36.124783736376884,30.5,26.0,30.0,6.0,17.0,6.0,3.0,5.0,5.0990195135927845,5.0,28.0,27.0,28.0178514522438,220.27482833950864,221.11083193728885,220.02045359466015,211.00236965494014
105,1,708,0,23.623599999999644,9.055385138137417,89.08984229416954,4.123105625617661,9.055385138137417,26.1725046566048,26.019223662515376,24.08318915758459,46.2709412050371,37.21558813185679,32.5,28.0,32.0,6.0,16.0,4.0,2.0,4.123105625617661,4.0,4.0,27.0,27.0,29.017236257093817,219.0091322296858,219.00228309312212,214.02102700435768,206.0606706773517
106,1,709,0,23.65696666666631,10.198039027185569,88.05112151472007,4.0,7.0710678118654755,24.08318915758459,25.019992006393608,22.090722034374522,43.289721643826724,36.22154055254967,31.0,27.0,30.0,6.5,14.5,5.5,2.5,3.0,3.0,2.5,27.0,28.0,27.0,220.02045359466015,220.00909072126996,218.14673960433146,209.34421415458323
107,1,710,0,23.690333333332976,7.0710678118654755,87.09190547921202,4.0,8.06225774829855,24.08318915758459,24.020824298928627,24.186773244895647,43.289721643826724,35.22782990761707,31.5,27.0,31.0,5.0,14.0,4.0,1.0,1.4142135623730951,1.0,1.0,25.0,27.0,24.020824298928627,225.0,224.0803427344755,220.32702966272657,212.76277869965884
108,1,711,0,23.72369999999964,2.23606797749979,84.0535543567314,3.1622776601683795,7.0,23.08679276123039,23.0,26.076809620810597,38.2099463490856,31.25699921617557,30.0,28.0,31.0,3.5,8.5,0.5,0.5,8.06225774829855,8.06225774829855,8.0,23.0,25.0,25.019992006393608,216.00231480241132,215.08370463612533,212.33935103979195,206.6204249342257
109,1,712,0,23.757066666666308,0.0,77.05841939723393,3.0,7.0710678118654755,21.095023109728988,22.02271554554524,25.179356624028344,35.22782990761707,28.160255680657446,28.0,27.0,30.0,3.5,6.5,1.5,0.5,7.0,6.082762530298219,6.5,25.0,28.0,25.019992006393608,213.00234740490538,211.0213259365034,207.0869382650678,199.2034136253694
110,1,713,0,23.79043333333297,0.0,80.05623023850174,4.123105625617661,7.0710678118654755,22.02271554554524,22.02271554554524,25.179356624028344,36.345563690772494,29.274562336608895,29.0,28.0,31.0,4.5,6.5,2.5,1.5,8.0,7.0,7.5,28.0,29.0,21.0,211.00236965494014,210.02142747824567,205.08778608196053,196.1249601657066
111,1,714,0,23.82379999999964,1.0,79.1012010022604,4.123105625617661,9.055385138137417,22.090722034374522,22.02271554554524,24.186773244895647,38.3275357934736,29.274562336608895,28.5,28.0,32.0,6.0,8.0,2.0,2.0,7.0,6.0,6.5,27.0,28.0,24.020824298928627,210.02142747824567,208.1177551291576,204.24495097798624,194.3707796969493
112,1,715,0,23.857166666666306,1.0,79.1580697086532,5.0,9.055385138137417,22.090722034374522,23.08679276123039,25.179356624028344,39.319206502675,30.265491900843113,30.0,28.0,33.0,5.5,8.5,2.5,1.5,7.0,6.082762530298219,6.0,28.0,27.0,24.020824298928627,218.08255317654368,215.00232556881798,210.05951537600004,199.2034136253694
113,1,716,0,23.89053333333297,1.4142135623730951,79.1012010022604,5.0,9.055385138137417,22.02271554554524,23.08679276123039,25.179356624028344,40.311288741492746,31.25699921617557,30.5,29.0,33.0,6.0,9.0,2.0,2.0,4.0,4.0,4.0,25.0,27.0,25.0,216.00231480241132,213.0211257129208,207.03864373589778,199.090431713832
114,1,717,0,23.92389999999964,2.23606797749979,85.09406559801923,4.0,8.06225774829855,23.08679276123039,24.08318915758459,24.186773244895647,37.48332962798263,29.427877939124322,28.5,26.0,30.0,4.0,9.0,1.0,1.0,6.0,6.0,6.0,28.0,27.0,25.019992006393608,223.14345161801185,220.00909072126996,214.02102700435768,206.15528128088303
115,1,718,0,23.957266666666303,1.0,87.14355971613737,4.0,9.055385138137417,24.08318915758459,25.079872407968907,24.186773244895647,37.33630940518894,28.284271247461902,28.0,25.0,30.0,3.5,9.5,1.5,0.5,8.06225774829855,7.0,6.5,27.0,26.0,27.018512172212592,222.1823575354263,221.02036105300343,217.03686322834653,209.15305400591214
116,1,719,0,23.99063333333297,2.0,84.1486779456457,4.0,9.055385138137417,23.08679276123039,24.08318915758459,24.08318915758459,37.33630940518894,28.284271247461902,28.0,25.0,30.0,3.5,9.5,1.5,0.5,3.0,3.0,2.5,26.0,26.0,28.071337695236398,226.10838109190027,225.00222221124838,220.05681084665386,213.23461257497573
117,1,720,0,24.023999999999635,2.0,88.2779700718135,4.0,9.219544457292887,24.08318915758459,24.08318915758459,24.186773244895647,37.656340767525464,28.442925306655784,28.0,24.0,31.0,3.5,9.5,1.5,0.5,3.1622776601683795,4.0,3.5,26.0,26.0,27.0,220.18401395196702,222.03603311174518,218.00917411888886,210.08569680013915
118,1,721,0,24.0573666666663,1.4142135623730951,78.23042886243178,5.0,10.04987562112089,23.08679276123039,23.08679276123039,25.179356624028344,41.30375285612676,31.25699921617557,30.5,27.0,33.0,5.0,11.0,1.0,1.0,4.123105625617661,5.0,5.0,27.0,26.0,30.01666203960727,220.11133546457802,217.02073633641555,212.00235847744713,202.03960007879644
119,1,722,0,24.090733333332967,5.0990195135927845,82.21921916437786,4.0,10.04987562112089,25.079872407968907,26.076809620810597,24.186773244895647,43.289721643826724,33.24154027718932,30.5,27.0,33.0,6.0,13.0,0.0,2.0,4.0,4.123105625617661,4.0,25.0,24.0,24.0,220.22715545545242,220.08180297334897,216.0,208.02163349036562
120,1,723,0,24.12409999999964,2.8284271247461903,80.22468448052632,4.0,9.055385138137417,23.08679276123039,24.08318915758459,25.079872407968907,40.311288741492746,31.25699921617557,30.0,27.0,33.0,5.0,10.0,1.0,1.0,5.0990195135927845,6.0,6.5,26.0,27.0,31.016124838541646,217.23029254687293,216.08331726442927,211.00947846009194,202.00247523235947
121,1,724,0,24.1574666666663,1.4142135623730951,80.15609770940699,5.0,9.055385138137417,24.020824298928627,25.079872407968907,25.179356624028344,40.311288741492746,31.25699921617557,30.5,28.0,33.0,5.5,9.5,1.5,1.5,6.082762530298219,6.0,6.5,27.0,25.0,33.0,222.22511109233358,219.0570701894828,214.0,206.0606706773517
122,1,725,0,24.190833333332964,2.23606797749979,82.15229759416349,4.0,9.055385138137417,23.021728866442675,24.08318915758459,27.073972741361768,41.30375285612676,32.2490309931942,31.5,29.0,34.0,4.5,9.5,1.5,1.5,6.082762530298219,7.0,6.5,27.0,25.0,31.0,222.22511109233358,221.0814329607984,216.0,209.0598000573042
123,1,726,0,24.22419999999963,1.0,81.09870529176159,5.0990195135927845,9.219544457292887,22.02271554554524,23.08679276123039,27.073972741361768,41.43669871020132,32.2490309931942,32.0,31.0,35.0,6.0,8.0,3.0,2.0,5.0990195135927845,6.082762530298219,6.0,25.0,25.0,30.01666203960727,223.1815404552984,222.02026934494066,217.03686322834653,209.2390976849212
124,1,727,0,24.257566666666296,6.082762530298219,79.1012010022604,5.0,9.055385138137417,21.02379604162864,22.02271554554524,27.16615541441225,47.265209192385896,38.2099463490856,35.0,32.0,36.0,7.0,13.0,2.0,3.0,4.0,5.0990195135927845,5.0,27.0,28.0,30.01666203960727,225.055548698538,221.0,217.05759604307792,207.1955597979841
125,1,728,0,24.29093333333296,7.0710678118654755,81.05553651663777,5.0990195135927845,11.045361017187261,22.090722034374522,23.021728866442675,25.079872407968907,48.25971404805462,37.21558813185679,33.5,32.0,35.0,8.5,14.5,1.5,3.5,3.0,3.1622776601683795,3.5,28.0,29.0,31.064449134018133,221.03619613086,221.0,217.00921639414304,207.03864373589778
126,1,729,0,24.324299999999628,9.055385138137417,83.05419917138447,4.0,10.04987562112089,23.021728866442675,23.021728866442675,26.1725046566048,49.25444142409901,39.20459156782532,34.5,32.0,35.0,7.5,15.5,4.5,3.5,3.0,4.123105625617661,4.0,27.0,29.0,32.0624390837628,217.00921639414304,217.0,214.02102700435768,205.0609665440988
127,1,730,0,24.357666666666294,9.055385138137417,84.0535543567314,4.0,8.06225774829855,22.090722034374522,24.020824298928627,25.079872407968907,46.17358552246078,38.118237105091836,33.5,31.0,34.0,7.5,13.5,3.5,3.5,5.0990195135927845,6.0,6.0,28.0,30.0,33.06055050963308,219.02054698132775,218.0022935659164,214.02102700435768,205.0609665440988
128,1,731,0,24.39103333333296,8.06225774829855,86.02325267042627,4.0,9.055385138137417,23.021728866442675,24.020824298928627,25.079872407968907,46.17358552246078,37.12142238654117,33.0,32.0,34.0,8.0,13.0,3.0,4.0,6.082762530298219,6.082762530298219,6.0,26.0,29.0,33.015148038438355,220.00909072126996,218.00917411888886,213.03755537463343,205.08778608196053
129,1,732,0,24.424399999999626,5.0990195135927845,87.00574693662483,5.0,10.0,23.021728866442675,25.019992006393608,26.076809620810597,46.09772228646444,36.124783736376884,33.5,33.0,34.0,7.5,12.5,1.5,3.5,6.0,7.0710678118654755,7.0,26.0,29.0,32.0624390837628,221.00226243185838,219.03652663425797,214.0840956259946,204.12006270820123
130,1,733,0,24.45776666666629,5.0990195135927845,85.05292469985967,4.0,9.055385138137417,23.08679276123039,23.021728866442675,25.079872407968907,43.18564576337837,34.132096331752024,31.5,31.0,34.0,7.5,10.5,0.5,3.5,6.0,6.0,6.5,25.0,28.0,31.064449134018133,219.0091322296858,218.05733191066977,214.11445537375565,206.11889772653063
131,1,734,0,24.49113333333296,1.4142135623730951,80.02499609497022,4.0,8.06225774829855,21.095023109728988,22.090722034374522,25.079872407968907,38.2099463490856,30.14962686336267,29.5,31.0,33.0,7.0,6.0,4.0,3.0,6.082762530298219,6.0,6.5,26.0,29.0,33.13608305156178,219.0091322296858,218.05733191066977,215.08370463612533,206.15528128088303
132,1,735,0,24.524499999999623,1.0,85.05292469985967,3.0,7.0710678118654755,24.020824298928627,24.0,25.0,35.05709628591621,28.0178514522438,28.0,29.0,32.0,5.5,4.5,3.5,3.5,6.082762530298219,6.0,6.0,25.0,28.0,29.068883707497267,218.0,217.02073633641555,214.05840324546944,206.11889772653063
133,1,736,0,24.55786666666629,2.0,79.05694150420949,4.123105625617661,7.0710678118654755,22.090722034374522,22.02271554554524,25.019992006393608,38.118237105091836,31.064449134018133,30.0,31.0,34.0,7.5,5.5,2.5,3.5,6.082762530298219,6.0,6.0,25.0,29.0,30.066592756745816,217.02073633641555,215.08370463612533,211.11608181282637,203.1206537996567
134,1,737,0,24.591233333332955,5.0990195135927845,82.02438661763951,4.0,8.06225774829855,23.021728866442675,24.020824298928627,25.079872407968907,42.190046219457976,34.132096331752024,31.5,32.0,34.0,8.0,9.0,1.0,5.0,5.0990195135927845,6.0,6.0,25.0,29.0,29.068883707497267,218.00917411888886,216.05786262017867,213.08449028495716,204.12006270820123
135,1,738,0,24.62459999999962,1.0,82.05485969764375,4.123105625617661,7.0710678118654755,24.08318915758459,23.021728866442675,25.0,37.05401462729781,30.01666203960727,29.5,31.0,34.0,7.5,4.5,3.5,3.5,6.0,6.0,6.5,25.0,29.0,31.064449134018133,215.05813167606567,215.11392330576837,213.19005605327843,205.19746587129188
136,1,739,0,24.657966666666287,1.0,80.02499609497022,5.0,8.0,23.021728866442675,23.021728866442675,24.0,37.013511046643494,29.017236257093817,29.0,31.0,33.0,8.0,5.0,4.0,4.0,6.082762530298219,7.0,7.0,25.0,30.0,32.14031735997639,220.03636063160107,220.18401395196702,215.23243250030885,207.24140512938047
137,1,740,0,24.69133333333296,2.0,81.02468759581859,4.0,8.06225774829855,23.021728866442675,23.021728866442675,25.079872407968907,39.11521443121589,31.064449134018133,30.0,31.0,33.0,7.0,7.0,3.0,4.0,6.0,6.082762530298219,6.5,23.0,29.0,32.0624390837628,221.14474897677312,218.27734651126764,214.3361845326169,206.4097865896867
138,1,741,0,24.72469999999962,3.1622776601683795,82.05485969764375,5.0,7.0710678118654755,24.08318915758459,24.020824298928627,25.019992006393608,40.11234224026316,33.06055050963308,31.5,32.0,35.0,8.5,6.5,2.5,3.5,5.0990195135927845,6.082762530298219,6.0,23.0,29.0,28.071337695236398,219.1118435867856,217.18655575334307,214.18916872708573,207.1955597979841
139,1,742,0,24.758066666666284,5.0990195135927845,85.0235261559999,4.123105625617661,7.0,22.02271554554524,23.021728866442675,24.08318915758459,40.049968789001575,33.06055050963308,30.5,32.0,34.0,9.0,7.0,1.0,5.0,7.0710678118654755,7.0,7.0,25.0,30.0,30.14962686336267,224.0200883849482,224.0803427344755,221.18318200080222,213.283848427395
140,1,743,0,24.79143333333295,6.324555320336759,85.0235261559999,4.0,6.0,23.08679276123039,24.0,24.020824298928627,40.11234224026316,34.132096331752024,31.0,32.0,34.0,9.0,7.0,1.0,5.0,7.0710678118654755,7.0710678118654755,7.0,24.0,30.0,29.154759474226502,225.03555274667156,224.1428116179504,222.27235545609355,213.39634486091836
141,1,744,0,24.824799999999616,6.082762530298219,83.02409288875127,5.0,8.0,23.021728866442675,23.0,23.08679276123039,42.1070065428546,34.132096331752024,31.0,32.0,34.0,10.0,9.0,1.0,6.0,6.082762530298219,7.0710678118654755,6.5,23.0,30.0,31.25699921617557,222.08106627986098,221.14474897677312,217.23029254687293,208.24024587000469
142,1,745,0,24.85816666666628,4.123105625617661,85.00588214941364,5.0,7.0,23.021728866442675,23.021728866442675,23.021728866442675,39.05124837953327,32.0624390837628,30.0,32.0,33.0,9.5,6.5,1.5,5.5,6.082762530298219,7.0710678118654755,7.0,23.0,30.0,30.265491900843113,226.17913254763357,224.43707358633955,221.65288177689007,211.85372312045877
143,1,746,0,24.891533333332948,2.23606797749979,80.0,6.0,10.0,22.0,22.0,24.08318915758459,42.1070065428546,32.14031735997639,31.0,32.0,32.0,8.0,10.0,1.0,3.0,7.0710678118654755,7.0710678118654755,7.5,24.0,31.0,29.154759474226502,221.18318200080222,220.27482833950864,216.390850083824,207.3475343475297
144,1,747,0,24.924899999999614,0.0,80.00624975587844,4.123105625617661,8.0,21.02379604162864,22.0,26.019223662515376,38.0,30.0,30.0,32.0,31.0,5.5,6.5,2.5,2.5,7.0710678118654755,7.0,7.5,22.0,31.0,30.265491900843113,220.22715545545242,217.33154395991392,213.45959805077868,204.47982785595258
145,1,748,0,24.95826666666628,1.4142135623730951,80.02499609497022,4.0,8.0,21.0,22.0,26.0,39.01281840626232,31.016124838541646,30.5,32.0,30.0,5.0,8.0,2.0,2.0,7.0710678118654755,7.0710678118654755,7.5,23.0,31.0,29.274562336608895,219.22819161777528,218.44907873461037,214.5250568115529,204.55072720476943
146,1,749,0,24.991633333332945,3.1622776601683795,75.02666192761077,5.0,9.0,21.0,22.0,26.076809620810597,43.104524124504614,34.132096331752024,32.5,34.0,32.0,7.0,10.0,0.0,3.0,7.0710678118654755,6.082762530298219,6.5,24.0,31.0,30.14962686336267,222.22511109233358,220.32702966272657,217.51781536232843,208.47062143141417
147,1,750,0,25.02499999999961,8.06225774829855,81.02468759581859,4.0,11.0,21.0,23.0,25.0,48.010415536631214,37.013511046643494,33.0,36.0,34.0,10.0,13.0,1.0,6.0,7.0710678118654755,7.0710678118654755,7.5,23.0,31.0,29.154759474226502,219.14607000811125,219.27608168699112,215.39266468475662,206.47518010647187
148,1,751,0,25.05836666666628,14.035668847618199,83.00602387778854,5.0,11.0,25.0,27.0,26.019223662515376,56.0357029044876,45.044422518220834,38.0,38.0,37.0,11.5,18.5,5.5,7.5,7.0710678118654755,8.0,7.5,25.0,31.0,31.064449134018133,220.11133546457802,219.27608168699112,214.39449619801343,204.41379601191306
149,1,752,0,25.091733333332943,8.06225774829855,84.00595217006948,5.0,11.0,23.0,23.0,25.079872407968907,49.09175083453431,38.118237105091836,34.0,37.0,36.0,11.5,12.5,1.5,6.5,6.082762530298219,6.082762530298219,6.0,23.0,29.0,29.154759474226502,226.07963198837706,223.22410264126944,219.3855054464629,211.53250341259616
150,1,753,0,25.12509999999961,6.082762530298219,83.0,4.0,9.055385138137417,22.02271554554524,23.021728866442675,25.079872407968907,44.04543109109048,35.12833614050059,32.0,35.0,35.0,10.0,9.0,1.0,6.0,7.0710678118654755,6.0,6.5,24.0,30.0,29.154759474226502,224.0557966221807,223.10983842045155,220.18401395196702,211.28653530218153
151,1,754,0,25.158466666666275,4.123105625617661,83.02409288875127,4.0,9.0,23.08679276123039,24.020824298928627,25.079872407968907,42.1070065428546,33.13608305156178,31.0,34.0,36.0,10.0,7.0,4.0,6.0,6.082762530298219,7.0710678118654755,6.5,25.0,30.0,31.144823004794873,223.0560467685196,221.18318200080222,219.32852071721086,211.53250341259616
152,1,755,0,25.19183333333294,2.0,80.02499609497022,4.0,9.055385138137417,24.08318915758459,24.020824298928627,25.019992006393608,40.049968789001575,31.016124838541646,30.0,32.0,34.0,8.0,7.0,4.0,4.0,6.082762530298219,5.0,6.0,23.0,29.0,29.068883707497267,223.0807028857494,220.18401395196702,214.3361845326169,206.4097865896867
153,1,756,0,25.225199999999607,2.0,79.00632886041473,5.0990195135927845,9.055385138137417,23.021728866442675,23.021728866442675,25.019992006393608,41.10960958218893,32.0624390837628,31.0,33.0,34.0,8.5,7.5,2.5,4.5,6.082762530298219,6.0,7.0,24.0,30.0,30.14962686336267,214.05840324546944,213.19005605327843,209.2390976849212,200.30227157973022
154,1,757,0,25.258566666666272,5.385164807134504,80.05623023850174,5.0,7.0,22.090722034374522,23.021728866442675,24.08318915758459,41.19465984809196,34.23448553724738,31.5,32.0,35.0,9.5,7.5,1.5,4.5,6.0,6.082762530298219,6.0,25.0,30.0,30.066592756745816,219.0570701894828,217.1128738697915,214.18916872708573,204.1984329028996
155,1,758,0,25.29193333333294,5.0990195135927845,81.05553651663777,5.0,7.0710678118654755,22.090722034374522,23.021728866442675,24.08318915758459,41.19465984809196,34.132096331752024,31.5,32.0,35.0,9.5,7.5,1.5,4.5,5.0990195135927845,6.082762530298219,6.5,25.0,30.0,30.14962686336267,220.02045359466015,219.0821763631172,215.14878572745886,208.153789300123
156,1,759,0,25.325299999999604,3.1622776601683795,79.05694150420949,5.0990195135927845,7.0710678118654755,22.090722034374522,22.02271554554524,24.08318915758459,39.319206502675,32.2490309931942,30.5,31.0,34.0,8.5,6.5,2.5,3.5,6.082762530298219,6.082762530298219,6.5,25.0,29.0,28.160255680657446,219.02054698132775,219.0570701894828,214.0840956259946,207.1183236703117
157,1,760,0,25.35866666666627,1.4142135623730951,81.09870529176159,6.0,8.06225774829855,23.08679276123039,23.08679276123039,24.08318915758459,39.20459156782532,31.144823004794873,30.5,30.0,34.0,8.0,7.0,3.0,2.0,6.0,7.0710678118654755,7.5,25.0,29.0,31.064449134018133,218.0022935659164,217.05759604307792,214.11445537375565,207.1183236703117
158,1,761,0,25.392033333332936,1.4142135623730951,80.05623023850174,6.082762530298219,8.06225774829855,22.090722034374522,23.021728866442675,23.08679276123039,38.3275357934736,30.265491900843113,29.5,30.0,33.0,8.5,6.5,3.5,2.5,6.082762530298219,7.0,7.0,25.0,29.0,31.064449134018133,218.02064122463267,217.0829334609241,214.11445537375565,207.1183236703117
159,1,762,0,25.4253999999996,2.23606797749979,81.09870529176159,5.0,7.0710678118654755,23.08679276123039,22.090722034374522,24.186773244895647,38.3275357934736,31.25699921617557,30.0,30.0,34.0,8.0,6.0,3.0,3.0,6.0,6.0,6.5,25.0,28.0,29.017236257093817,217.03686322834653,216.08331726442927,213.11499243366245,207.15453169071634
160,1,763,0,25.458766666666268,1.4142135623730951,81.09870529176159,5.0990195135927845,7.0710678118654755,22.090722034374522,22.02271554554524,25.079872407968907,38.3275357934736,31.25699921617557,30.5,30.0,34.0,7.0,6.0,3.0,2.0,6.082762530298219,6.0,6.5,25.0,28.0,30.066592756745816,218.0,218.02064122463267,215.03720608304042,207.0869382650678
161,1,764,0,25.492133333332934,1.0,81.05553651663777,6.0,7.0710678118654755,23.08679276123039,23.021728866442675,24.08318915758459,37.21558813185679,30.14962686336267,30.0,30.0,33.0,7.5,5.5,3.5,2.5,5.0990195135927845,6.082762530298219,6.5,24.0,28.0,31.064449134018133,216.0,216.0208323287363,214.05840324546944,206.0606706773517
162,1,765,0,25.5254999999996,1.4142135623730951,81.05553651663777,5.0,8.06225774829855,22.090722034374522,23.021728866442675,25.079872407968907,39.20459156782532,31.144823004794873,30.5,31.0,34.0,7.5,6.5,2.5,2.5,6.0,6.0,6.0,26.0,28.0,32.0624390837628,220.03636063160107,218.11235636707977,215.11392330576837,207.1955597979841
163,1,766,0,25.558866666666265,2.23606797749979,84.02380615040002,5.0990195135927845,8.0,23.08679276123039,24.020824298928627,24.08318915758459,39.20459156782532,31.25699921617557,30.0,31.0,33.0,8.0,7.0,2.0,3.0,6.082762530298219,7.0,7.0,25.0,29.0,31.064449134018133,219.02054698132775,218.08255317654368,215.14878572745886,208.153789300123
164,1,767,0,25.59223333333293,4.123105625617661,87.02298546935747,5.0,8.0,23.021728866442675,24.0,24.08318915758459,41.10960958218893,33.13608305156178,31.0,30.0,32.0,7.0,10.0,0.0,3.0,5.0990195135927845,6.0,6.0,24.0,29.0,31.144823004794873,218.00917411888886,217.05759604307792,214.0840956259946,206.11889772653063
165,1,768,0,25.6255999999996,2.23606797749979,87.05170877128145,6.0,9.0,23.021728866442675,24.0,25.019992006393608,42.04759208325728,33.06055050963308,32.0,31.0,34.0,7.5,9.5,0.5,2.5,6.0,7.0,7.0,25.0,29.0,32.0624390837628,220.00909072126996,220.05681084665386,216.08331726442927,207.0869382650678
166,1,769,0,25.658966666666263,3.1622776601683795,88.02272433866155,5.0,7.0,23.021728866442675,24.020824298928627,24.08318915758459,39.11521443121589,32.14031735997639,30.5,30.0,32.0,7.0,8.0,0.0,3.0,6.082762530298219,7.0710678118654755,6.5,25.0,29.0,26.30589287593181,227.01982292302142,225.07998578283232,223.1815404552984,216.27991122617004
167,1,770,0,25.69233333333293,2.23606797749979,87.02298546935747,7.0,7.0,24.020824298928627,25.019992006393608,23.08679276123039,39.11521443121589,32.14031735997639,31.0,29.0,31.0,7.0,9.0,0.0,1.0,7.0,7.0710678118654755,7.0,25.0,30.0,30.14962686336267,224.03571143904713,224.1093483101497,222.1823575354263,214.23351745233518
168,1,771,0,25.725699999999595,1.4142135623730951,84.02380615040002,6.0,8.06225774829855,24.020824298928627,23.0,24.0,39.05124837953327,31.016124838541646,30.5,29.0,31.0,6.0,9.0,1.0,1.0,6.082762530298219,6.082762530298219,6.0,25.0,31.0,31.064449134018133,224.0200883849482,223.0560467685196,219.1118435867856,210.15232570685484
169,1,772,0,25.75906666666626,1.0,88.0056816347672,7.0,9.055385138137417,23.021728866442675,24.0,23.021728866442675,40.049968789001575,31.016124838541646,30.5,29.0,30.0,6.5,10.5,0.5,0.5,6.082762530298219,6.082762530298219,6.5,24.0,31.0,31.25699921617557,223.10983842045155,222.27235545609355,219.3855054464629,211.4000946073582
170,1,773,0,25.792433333332927,1.4142135623730951,82.02438661763951,5.0990195135927845,8.06225774829855,23.021728866442675,24.020824298928627,23.0,37.12142238654117,29.068883707497267,28.5,28.0,30.0,6.0,8.0,1.0,2.0,6.082762530298219,7.0710678118654755,7.0,24.0,30.0,30.14962686336267,218.03669415949233,217.0829334609241,216.11339616044165,208.1177551291576
171,1,774,0,25.825799999999592,1.4142135623730951,87.0,5.0,8.0,25.019992006393608,25.0,24.020824298928627,38.05259518088089,30.066592756745816,29.5,30.0,30.0,6.0,8.0,1.0,2.0,5.0990195135927845,6.082762530298219,6.0,22.0,28.0,28.160255680657446,223.1815404552984,225.22211259110415,222.32408776378685,213.39634486091836
172,1,775,0,25.85916666666626,3.1622776601683795,87.00574693662483,4.0,8.0,24.020824298928627,24.020824298928627,24.0,39.01281840626232,31.016124838541646,29.5,30.0,29.0,5.5,9.5,0.5,1.5,6.082762530298219,7.0710678118654755,7.0,22.0,30.0,31.25699921617557,220.05681084665386,221.11083193728885,217.14741536569116,208.153789300123
173,1,776,0,25.892533333332924,1.4142135623730951,87.0,5.0990195135927845,8.0,23.021728866442675,24.0,23.0,37.0,29.0,28.5,28.0,28.0,5.0,9.0,0.0,1.0,6.082762530298219,6.082762530298219,6.5,23.0,30.0,29.274562336608895,219.0821763631172,222.08106627986098,219.18485349129398,209.19369015340783
174,1,777,0,25.92589999999959,2.23606797749979,90.00555538409837,5.0,9.0,25.019992006393608,25.0,23.0,39.01281840626232,30.01666203960727,29.0,29.0,28.0,5.5,10.5,0.5,1.5,6.082762530298219,6.082762530298219,6.5,22.0,30.0,30.14962686336267,222.1823575354263,224.26992665089986,221.44299492194375,212.52999788265186
175,1,778,0,25.959266666666256,2.23606797749979,90.00555538409837,5.0990195135927845,8.0,25.0,25.019992006393608,23.021728866442675,38.01315561749642,30.01666203960727,29.0,29.0,28.0,5.5,9.5,0.5,1.5,5.0990195135927845,6.082762530298219,6.5,20.0,29.0,28.284271247461902,225.10886255321003,224.1807306616695,220.27482833950864,210.34257771549724
176,1,779,0,25.99263333333292,2.23606797749979,90.00555538409837,4.0,8.0,25.019992006393608,25.0,24.020824298928627,38.05259518088089,30.066592756745816,29.0,30.0,29.0,5.5,8.5,1.5,2.5,6.082762530298219,6.082762530298219,6.0,22.0,30.0,28.160255680657446,222.1823575354263,224.22310318073826,220.27482833950864,210.40199618824911
177,1,780,0,26.025999999999588,2.23606797749979,89.02246907382428,4.0,7.0,25.0,25.0,24.0,37.013511046643494,30.01666203960727,29.0,30.0,28.0,5.0,8.0,0.0,2.0,6.0,7.0710678118654755,7.0,22.0,30.0,28.160255680657446,226.17913254763357,225.17992805754247,220.27482833950864,210.28789789238942
178,1,781,0,26.059366666666254,2.23606797749979,89.02246907382428,4.0,7.0,24.0,24.0,24.020824298928627,37.0,30.0,29.0,30.0,28.0,5.0,8.0,0.0,2.0,5.0990195135927845,6.082762530298219,6.0,20.0,28.0,30.14962686336267,224.22310318073826,223.32263655975405,220.38375620721234,211.463944917331
179,1,782,0,26.09273333333292,2.23606797749979,88.05112151472007,4.0,8.06225774829855,25.0,25.0,23.021728866442675,37.013511046643494,29.068883707497267,28.0,30.0,27.0,5.5,8.5,0.5,2.5,6.082762530298219,6.082762530298219,6.0,21.0,30.0,30.14962686336267,222.3803048833237,222.44100341438852,220.5810508633958,213.60009363293827
180,1,783,0,26.126099999999585,2.23606797749979,91.0494371207203,4.123105625617661,7.0,25.0,24.0,23.0,36.0,29.0,28.0,29.0,26.0,4.5,8.5,0.5,1.5,6.082762530298219,5.0990195135927845,5.5,22.0,30.0,27.16615541441225,220.14540649307222,222.1823575354263,220.27482833950864,211.3409567499873
181,1,784,0,26.15946666666625,2.23606797749979,90.0499861188218,4.0,8.0,24.0,25.0,23.021728866442675,37.0,29.0,28.0,30.0,27.0,5.5,8.5,0.5,2.5,6.324555320336759,6.082762530298219,6.0,20.0,29.0,29.274562336608895,221.27358631341428,222.32408776378685,219.3855054464629,211.3409567499873
182,1,785,0,26.19283333333292,2.23606797749979,88.05112151472007,4.123105625617661,6.0,25.019992006393608,25.019992006393608,23.0,35.0,29.0,28.0,30.0,27.0,5.5,6.5,0.5,3.5,6.324555320336759,6.082762530298219,6.5,21.0,30.0,25.317977802344327,221.27358631341428,222.32408776378685,219.44703233354514,211.53250341259616
183,1,786,0,26.226199999999583,1.4142135623730951,91.0494371207203,4.123105625617661,8.06225774829855,25.0,26.0,23.0,36.013886210738214,28.0,27.5,29.0,26.0,4.5,8.5,0.5,2.5,7.280109889280518,6.082762530298219,6.5,22.0,31.0,29.274562336608895,223.10983842045155,223.1815404552984,219.27608168699112,209.34421415458323
184,1,787,0,26.25956666666625,1.4142135623730951,90.0499861188218,4.123105625617661,8.06225774829855,25.0,25.019992006393608,23.0,36.013886210738214,28.0,27.5,29.0,26.0,4.5,8.5,0.5,2.5,6.082762530298219,6.0,6.0,21.0,31.0,30.265491900843113,220.22715545545242,221.27358631341428,218.38727069131113,208.40585404445815
185,1,788,0,26.292933333332915,2.0,90.08884503644167,3.0,7.0,24.020824298928627,24.020824298928627,24.08318915758459,36.05551275463989,29.068883707497267,28.0,30.0,26.0,4.0,8.0,0.0,2.0,5.0990195135927845,6.082762530298219,6.0,20.0,31.0,27.294688127912362,221.5784285529618,222.5758297749331,220.6558406206371,211.68372634664195
186,1,789,0,26.32629999999958,2.0,85.14693182963201,4.123105625617661,8.06225774829855,23.021728866442675,23.021728866442675,22.0,36.05551275463989,28.0178514522438,27.0,30.0,25.0,5.5,8.5,0.5,2.5,4.47213595499958,5.0990195135927845,5.5,21.0,34.0,27.459060435491963,220.81893034792103,219.65882636488797,215.52262062252305,206.4097865896867
187,1,790,0,26.359666666666246,3.0,83.2946576918352,4.123105625617661,8.06225774829855,23.08679276123039,23.08679276123039,23.021728866442675,38.118237105091836,30.066592756745816,28.5,31.0,24.0,4.5,10.5,1.5,2.5,4.47213595499958,4.123105625617661,4.0,19.0,36.0,27.65863337187866,222.40953216982405,221.30521909796886,217.1174797200815,208.86598574205422
188,1,791,0,26.393033333332912,2.23606797749979,89.67719888578144,6.324555320336759,9.219544457292887,26.1725046566048,25.179356624028344,21.095023109728988,38.63935817272331,29.427877939124322,28.0,31.0,20.0,4.5,12.5,3.5,1.5,4.242640687119285,3.605551275463989,3.0,15.0,37.0,30.805843601498726,226.0,226.0,222.89459392277777,213.84106247397855
189,1,792,0,26.42639999999958,2.23606797749979,91.2414379544733,6.082762530298219,9.219544457292887,26.1725046566048,26.30589287593181,22.360679774997898,39.05124837953327,29.832867780352597,28.5,32.0,17.0,2.5,13.5,4.5,0.5,4.242640687119285,4.47213595499958,4.0,12.0,37.0,32.01562118716424,223.6000894454204,223.02690420664499,220.6581065811995,213.3541656495134
190,1,793,0,26.459766666666244,3.1622776601683795,91.59148432032315,5.385164807134504,9.486832980505138,24.186773244895647,25.317977802344327,22.360679774997898,40.26164427839479,30.805843601498726,28.5,33.0,16.0,2.5,14.5,6.5,0.5,3.605551275463989,3.605551275463989,2.0,13.0,39.0,29.120439557122072,228.08989455914087,227.36974292988063,224.89997776789573,215.10230124292022
191,1,794,0,26.49313333333291,2.23606797749979,91.78235124467012,6.324555320336759,7.615773105863909,26.30589287593181,26.476404589747453,22.561028345356956,38.600518131237564,31.04834939252005,29.0,34.0,16.0,3.0,12.0,5.0,1.0,5.0,3.605551275463989,2.5,11.0,37.0,26.570660511172846,228.8864347225497,227.36974292988063,225.06221362103412,216.3792966066763
192,1,795,0,26.526499999999576,2.23606797749979,91.98369420718001,6.082762530298219,8.246211251235321,25.317977802344327,26.476404589747453,22.561028345356956,38.3275357934736,30.083217912982647,28.5,33.0,14.0,1.5,13.5,5.5,0.5,5.0,3.605551275463989,2.5,14.0,41.0,31.622776601683793,227.29936207565564,226.55904307707516,223.91292950609173,213.84106247397855
193,1,796,0,26.55986666666624,3.605551275463989,91.21951545584969,5.0990195135927845,7.615773105863909,25.317977802344327,26.476404589747453,21.840329667841555,37.33630940518894,29.732137494637012,27.0,33.0,13.0,2.0,12.0,6.0,1.0,4.47213595499958,3.605551275463989,2.5,11.0,40.0,30.675723300355934,228.67444107289296,227.72132091659753,226.0486673263083,215.10230124292022
194,1,797,0,26.593233333332908,2.23606797749979,92.19544457292888,5.385164807134504,8.54400374531753,25.495097567963924,26.476404589747453,22.80350850198276,38.27531841800928,29.732137494637012,27.5,34.0,14.0,2.0,12.0,5.0,1.0,6.4031242374328485,5.0,4.0,13.0,41.0,29.732137494637012,225.94247055390008,225.75429121059915,222.92599668948438,213.84106247397855
195,1,798,0,26.626599999999573,3.1622776601683795,89.05054744357274,5.0990195135927845,8.246211251235321,25.317977802344327,25.495097567963924,22.80350850198276,37.94733192202055,29.732137494637012,27.5,34.0,15.0,2.5,11.5,4.5,0.5,5.0,4.47213595499958,4.0,11.0,39.0,30.083217912982647,226.36695871968595,225.93804460515275,224.89997776789573,214.11212016137713
196,1,799,0,26.65996666666624,2.23606797749979,90.02777349240623,3.605551275463989,6.324555320336759,25.317977802344327,25.495097567963924,24.73863375370596,34.17601498127012,27.85677655436824,26.5,35.0,16.0,1.5,6.5,1.5,1.5,5.830951894845301,5.385164807134504,5.0,12.0,40.0,30.364452901377952,226.15260334561705,227.90348834539589,224.89997776789573,216.0925727552893
197,1,800,0,26.693333333332905,2.23606797749979,88.64536084872124,3.605551275463989,8.246211251235321,25.317977802344327,26.476404589747453,24.515301344262525,35.73513677041127,27.51363298439521,26.5,35.0,18.0,2.5,7.5,0.5,2.5,5.830951894845301,5.0990195135927845,5.0,12.0,40.0,31.32091952673165,223.22186272854188,221.82200071228283,219.9659064491586,211.72859986312668
198,1,801,0,26.72669999999957,3.1622776601683795,87.66413177577246,4.47213595499958,8.54400374531753,25.179356624028344,26.30589287593181,23.53720459187964,39.56008088970496,31.04834939252005,28.5,36.0,19.0,4.5,10.5,3.5,3.5,6.708203932499369,6.324555320336759,5.5,12.0,39.0,30.364452901377952,225.1754871206011,223.78784596130328,219.80445855350615,208.88513590009222
199,1,802,0,26.76006666666624,12.165525060596439,86.88498144098322,3.605551275463989,9.486832980505138,25.317977802344327,25.495097567963924,23.53720459187964,48.507731342539614,39.05124837953327,32.0,38.0,20.0,6.0,18.0,9.0,6.0,6.708203932499369,6.708203932499369,5.5,14.0,41.0,32.57299494980466,227.69497139814047,225.93804460515275,222.10357943986403,211.28653530218153
200,1,803,0,26.793433333332903,12.36931687685298,88.64536084872124,4.123105625617661,10.44030650891055,25.495097567963924,26.476404589747453,22.80350850198276,49.72926703662542,39.293765408777,32.0,37.0,20.0,6.5,19.5,10.5,6.5,6.4031242374328485,6.324555320336759,5.5,13.0,41.0,30.083217912982647,229.65408770583642,226.92069099136816,222.27235545609355,212.4241040936739
201,1,804,0,26.82679999999957,13.341664064126334,87.86353054595519,3.1622776601683795,9.219544457292887,26.1725046566048,26.476404589747453,23.53720459187964,49.24428900898052,40.024992192379,32.5,38.0,20.0,6.0,19.0,10.0,6.0,4.242640687119285,3.605551275463989,3.0,14.0,40.0,31.78049716414141,224.96444163467257,223.9732126840172,218.8172753691993,208.88513590009222
202,1,805,0,26.860166666666235,13.152946437965905,89.44271909999159,3.1622776601683795,9.486832980505138,25.317977802344327,26.30589287593181,23.53720459187964,49.24428900898052,39.81205847478876,32.5,36.0,20.0,5.0,20.0,12.0,5.0,4.242640687119285,3.605551275463989,3.0,15.0,39.0,30.805843601498726,225.57482128996577,224.89997776789573,221.04524423746375,210.261741645978
203,1,806,0,26.8935333333329,14.035668847618199,92.39588735436226,3.605551275463989,8.54400374531753,25.179356624028344,26.30589287593181,22.360679774997898,48.05205510693585,39.6232255123179,32.0,38.0,22.0,8.0,17.0,9.0,7.0,5.385164807134504,5.0990195135927845,5.0,14.0,40.0,29.410882339705484,228.18632737304836,225.88713996153035,222.03603311174518,212.3605424743495
204,1,807,0,26.926899999999566,8.246211251235321,87.96590248499699,5.0990195135927845,8.246211251235321,25.079872407968907,24.331050121192877,23.194827009486403,44.721359549995796,36.49657518178932,32.0,38.0,25.0,8.5,12.5,4.5,6.5,4.242640687119285,5.0,4.0,15.0,38.0,30.364452901377952,225.72992712531496,223.45021816950637,221.18318200080222,211.60340261914504
205,1,808,0,26.960266666666232,2.0,87.69264507357501,4.47213595499958,8.54400374531753,24.08318915758459,25.079872407968907,23.194827009486403,37.8549864614954,29.427877939124322,28.0,35.0,24.0,6.5,7.5,0.5,4.5,4.242640687119285,4.47213595499958,4.0,15.0,37.0,28.160255680657446,229.38613733179255,226.13491548188662,221.7746604100658,213.243991709028
206,1,809,0,26.99363333333289,0.0,84.5931439302264,5.385164807134504,8.06225774829855,23.194827009486403,23.194827009486403,24.08318915758459,37.33630940518894,29.274562336608895,29.0,35.0,25.0,6.0,7.0,1.0,4.0,5.830951894845301,4.47213595499958,4.0,16.0,37.0,28.861739379323623,223.3047245357787,221.04524423746375,218.67327225795108,210.261741645978
207,1,810,0,27.026999999999564,2.23606797749979,83.72574275573791,4.123105625617661,7.0710678118654755,23.08679276123039,24.186773244895647,24.020824298928627,37.21558813185679,30.14962686336267,29.0,36.0,25.0,6.5,6.5,0.5,4.5,5.0,4.123105625617661,4.0,17.0,38.0,31.575306807693888,224.01785643113362,223.8861317723811,220.5379785887229,212.14381914163798
208,1,811,0,27.06036666666623,1.0,81.49846624323675,5.0990195135927845,9.055385138137417,24.020824298928627,24.186773244895647,24.020824298928627,39.11521443121589,30.066592756745816,29.5,35.0,26.0,6.5,8.5,0.5,3.5,5.0,5.385164807134504,5.0,17.0,36.0,30.805843601498726,224.62858233092243,223.51733713517615,221.30521909796886,213.03755537463343
209,1,812,0,27.093733333332896,1.0,85.47514258543241,5.0990195135927845,8.06225774829855,23.08679276123039,24.186773244895647,23.0,37.05401462729781,29.017236257093817,28.5,36.0,27.0,8.5,5.5,2.5,5.5,5.385164807134504,4.123105625617661,4.5,18.0,33.0,29.274562336608895,221.09726366465958,221.0,215.83790213954546,207.78113485107352
210,1,813,0,27.12709999999956,1.4142135623730951,83.48652585896721,5.0990195135927845,8.06225774829855,23.08679276123039,22.20360331117452,22.02271554554524,36.0,28.0178514522438,27.5,35.0,26.0,8.5,5.5,1.5,5.5,7.280109889280518,7.0710678118654755,7.0,18.0,33.0,29.427877939124322,221.90313201935658,219.91134577370036,216.12265036316762,208.06249061279644
211,1,814,0,27.160466666666228,2.23606797749979,85.37564055396598,4.0,8.06225774829855,24.08318915758459,24.186773244895647,24.020824298928627,38.01315561749642,30.066592756745816,29.0,34.0,26.0,6.0,8.0,0.0,4.0,6.324555320336759,6.082762530298219,6.0,19.0,32.0,29.427877939124322,226.37358503146962,223.37860237721964,218.44907873461037,209.46837470128995
212,1,815,0,27.193833333332893,0.0,85.05292469985967,4.0,9.055385138137417,23.0,23.021728866442675,24.0,37.013511046643494,28.0,28.0,33.0,30.0,7.5,5.5,3.5,4.5,6.324555320336759,6.082762530298219,6.0,20.0,31.0,30.265491900843113,220.51077071199947,218.58636736997119,215.52262062252305,206.47518010647187
213,1,816,0,27.22719999999956,1.0,77.0,4.0,8.0,22.02271554554524,22.02271554554524,26.019223662515376,39.01281840626232,31.016124838541646,30.5,33.0,33.0,7.0,6.0,3.0,4.0,6.324555320336759,7.0710678118654755,7.0,24.0,30.0,32.2490309931942,224.0803427344755,223.1815404552984,219.27608168699112,209.28927349484493
214,1,817,0,27.260566666666225,6.324555320336759,79.05694150420949,4.0,8.0,22.090722034374522,24.020824298928627,25.079872407968907,43.18564576337837,35.22782990761707,32.0,33.0,36.0,9.5,8.5,1.5,5.5,5.0990195135927845,6.0,6.0,25.0,28.0,31.016124838541646,222.0,220.08180297334897,216.14809737770074,208.24024587000469
215,1,818,0,27.29393333333289,2.23606797749979,80.39900496896712,5.0990195135927845,8.246211251235321,22.090722034374522,22.20360331117452,25.079872407968907,40.44749683231337,32.2490309931942,31.0,30.0,38.0,9.0,6.0,4.0,4.0,7.0,7.0710678118654755,7.5,28.0,25.0,30.01666203960727,218.27734651126764,216.08331726442927,212.00943375236866,205.00243900988104
216,1,819,0,27.32729999999956,1.4142135623730951,75.66372975210778,5.0990195135927845,9.219544457292887,23.194827009486403,23.194827009486403,25.317977802344327,40.792156108742276,31.575306807693888,30.5,28.0,38.0,8.0,7.0,4.0,3.0,4.0,4.123105625617661,4.0,29.0,23.0,31.016124838541646,220.51077071199947,218.1857007230309,214.03737991294884,206.00970850908945
217,1,820,0,27.360666666666223,1.0,77.92945527847606,5.385164807134504,9.219544457292887,22.360679774997898,23.345235059857504,25.317977802344327,40.024992192379,30.805843601498726,30.0,26.0,38.0,7.0,7.0,4.0,1.0,3.0,3.605551275463989,3.0,32.0,23.0,29.154759474226502,222.0923231451281,219.58369702689677,215.3346233191495,207.15453169071634
218,1,821,0,27.39403333333289,2.23606797749979,78.44743462982075,5.385164807134504,9.219544457292887,22.561028345356956,23.53720459187964,25.179356624028344,41.0,31.78049716414141,30.5,26.0,41.0,8.5,6.5,5.5,2.5,2.23606797749979,2.8284271247461903,2.0,33.0,21.0,29.274562336608895,223.51733713517615,219.0091322296858,214.5250568115529,206.24257562394823
219,1,822,0,27.427399999999555,2.23606797749979,78.64477096412705,5.385164807134504,9.486832980505138,21.587033144922902,22.561028345356956,26.476404589747453,42.720018726587654,33.24154027718932,31.5,26.0,42.0,8.0,7.0,5.0,2.0,4.123105625617661,5.385164807134504,4.5,33.0,18.0,29.274562336608895,225.00888871331284,220.20445045457188,215.59452683219953,207.2920644887305
220,1,823,0,27.46076666666622,2.0,76.68767828015137,4.47213595499958,8.94427190999916,21.37755832643195,21.587033144922902,27.459060435491963,41.10960958218893,32.28002478313795,31.0,26.0,42.0,7.0,5.0,6.0,2.0,6.0,6.324555320336759,6.0,34.0,19.0,26.30589287593181,222.46123257772354,217.55918734909818,212.94130646729863,203.48218595248088
221,1,824,0,27.494133333332886,2.0,80.8084154033477,6.324555320336759,9.486832980505138,22.561028345356956,22.561028345356956,27.459060435491963,43.68065933568311,34.20526275297414,33.0,26.0,43.0,7.5,7.5,5.5,1.5,4.47213595499958,5.385164807134504,5.0,35.0,18.0,28.442925306655784,223.02690420664499,219.20994502987313,213.60009363293827,203.19940944796076
222,1,825,0,27.527499999999552,2.23606797749979,77.87810988975015,5.385164807134504,10.44030650891055,22.80350850198276,22.561028345356956,26.476404589747453,43.68065933568311,33.24154027718932,31.5,25.0,42.0,7.5,8.5,5.5,0.5,5.385164807134504,6.324555320336759,6.0,35.0,18.0,28.635642126552707,220.79175709251467,217.9380645963435,211.1492363235065,200.7211996775627
223,1,826,0,27.56086666666621,2.8284271247461903,82.22530024268686,5.385164807134504,10.770329614269007,21.840329667841555,21.840329667841555,26.476404589747453,44.9221548904324,34.20526275297414,32.0,24.0,43.0,7.5,9.5,4.5,1.5,5.0990195135927845,6.082762530298219,6.0,36.0,17.0,27.65863337187866,228.02192877001983,223.02690420664499,216.22673285234646,205.47749268472205
224,1,827,0,27.594233333332884,7.615773105863909,78.33900688673555,3.605551275463989,9.848857801796104,20.8806130178211,22.135943621178654,26.92582403567252,47.75981574503821,37.94733192202055,32.5,25.0,44.0,8.5,10.5,2.5,3.5,6.324555320336759,7.280109889280518,7.0,35.0,16.0,27.459060435491963,225.22877258467668,221.32555207205516,215.45533179756774,205.9732992404598
225,1,828,0,27.62759999999955,8.94427190999916,79.30952023559341,3.605551275463989,9.486832980505138,20.8806130178211,22.80350850198276,26.68332812825267,48.38388161361178,38.897300677553446,33.0,26.0,45.0,9.5,10.5,2.5,3.5,6.324555320336759,7.280109889280518,6.5,35.0,17.0,27.459060435491963,221.63934668736056,218.50629281556172,213.71242359769354,203.98284241572867
226,1,829,0,27.660966666666216,9.486832980505138,81.49233092751734,3.605551275463989,8.94427190999916,21.18962010041709,21.840329667841555,26.92582403567252,48.703182647543684,39.84971769034255,33.5,23.0,43.0,7.0,13.0,1.0,1.0,5.0990195135927845,6.324555320336759,6.5,38.0,18.0,27.65863337187866,223.60679774997897,220.79175709251467,216.9469981354893,209.3800372528384
227,1,830,0,27.69433333333288,9.486832980505138,81.49233092751734,4.47213595499958,9.848857801796104,21.840329667841555,22.80350850198276,26.92582403567252,50.59644256269407,40.80441152620633,34.5,24.0,44.0,8.0,14.0,1.0,2.0,7.0710678118654755,7.280109889280518,7.0,37.0,17.0,29.614185789921695,225.33752461585266,221.46105752479374,215.3903433304288,203.54115063052976
228,1,831,0,27.727699999999547,7.615773105863909,82.71033792700887,4.47213595499958,9.848857801796104,21.840329667841555,24.041630560342615,26.92582403567252,48.703182647543684,38.897300677553446,33.5,23.0,44.0,7.5,12.5,0.5,1.5,5.0990195135927845,6.082762530298219,5.5,36.0,16.0,26.476404589747453,225.75429121059915,220.79175709251467,214.83249288690016,205.1828452868319
229,1,832,0,27.761066666666213,8.94427190999916,81.74350127074322,3.605551275463989,8.54400374531753,20.8806130178211,23.08679276123039,26.68332812825267,47.43416490252569,38.897300677553446,33.0,22.0,43.0,6.5,12.5,0.5,1.5,6.082762530298219,7.280109889280518,6.5,36.0,15.0,28.861739379323623,223.5754906066405,219.31712199461307,214.2545215392198,205.40691322348428
230,1,833,0,27.79443333333288,8.54400374531753,81.04319835741924,4.242640687119285,8.06225774829855,21.18962010041709,22.135943621178654,25.709920264364882,45.880278987817846,37.94733192202055,32.0,21.0,43.0,7.0,11.0,0.0,1.0,6.082762530298219,7.280109889280518,6.5,36.0,15.0,28.635642126552707,220.63771209836273,217.34764779035453,214.2545215392198,205.65018842685265
231,1,834,0,27.827799999999545,3.0,81.32035415564789,5.385164807134504,7.615773105863909,24.041630560342615,24.041630560342615,27.892651361962706,41.78516483155236,34.17601498127012,32.0,21.0,44.0,5.5,6.5,4.5,1.5,7.280109889280518,7.0710678118654755,6.5,39.0,16.0,33.734255586866,217.14741536569116,214.75800334329801,210.2974084481309,203.54115063052976
232,1,835,0,27.86116666666621,3.1622776601683795,81.32035415564789,3.1622776601683795,8.94427190999916,23.769728648009426,25.0,26.92582403567252,40.85339643163099,31.953090617340916,29.5,19.0,42.0,4.5,7.5,5.5,0.5,5.385164807134504,6.324555320336759,6.0,36.0,15.0,27.892651361962706,211.0213259365034,207.9663434308542,203.08126452235814,195.35864454894235
233,1,836,0,27.89453333333288,3.0,75.0,4.47213595499958,9.486832980505138,21.840329667841555,22.80350850198276,25.709920264364882,40.496913462633174,31.016124838541646,29.0,19.0,40.0,4.5,8.5,4.5,1.5,6.324555320336759,6.324555320336759,6.0,37.0,16.0,26.68332812825267,202.0,201.0696396774013,197.29419656948858,190.64626930522402
234,1,837,0,27.927899999999543,3.0,76.24303246854758,5.0990195135927845,9.486832980505138,23.08679276123039,24.041630560342615,25.96150997149434,41.43669871020132,31.953090617340916,30.0,19.0,41.0,5.0,9.0,5.0,2.0,4.47213595499958,5.0,3.5,37.0,16.0,30.805843601498726,202.20039564748632,202.23006700290637,198.4363877921587,190.77997798511248
235,1,838,0,27.96126666666621,2.0,81.60882305241266,4.47213595499958,8.94427190999916,23.40939982143925,24.351591323771842,25.96150997149434,39.92492955535426,31.016124838541646,29.0,18.0,42.0,5.0,7.0,6.0,2.0,2.8284271247461903,3.605551275463989,2.5,38.0,15.0,27.892651361962706,215.3369452741447,212.07781590727495,207.18349355100662,198.22462006521792
236,1,839,0,27.994633333332875,3.1622776601683795,82.28000972289685,5.385164807134504,8.94427190999916,24.351591323771842,25.298221281347036,25.709920264364882,39.92492955535426,31.016124838541646,29.5,19.0,42.0,5.5,6.5,6.5,1.5,4.47213595499958,5.0,4.0,38.0,15.0,31.78049716414141,214.97906874856446,212.79332696304178,207.80038498520642,198.97989848223364
237,1,840,0,28.02799999999954,2.0,81.60882305241266,4.47213595499958,8.94427190999916,23.08679276123039,24.351591323771842,26.68332812825267,40.496913462633174,31.622776601683793,30.0,19.0,43.0,5.0,7.0,6.0,1.0,5.385164807134504,5.385164807134504,5.0,37.0,14.0,30.083217912982647,214.97906874856446,212.79332696304178,208.62646045025065,200.6913052426537
238,1,841,0,28.061366666666206,3.1622776601683795,83.24061508662703,5.385164807134504,8.94427190999916,24.041630560342615,25.298221281347036,25.709920264364882,39.92492955535426,31.016124838541646,29.5,19.0,42.0,5.5,6.5,6.5,1.5,5.0990195135927845,5.385164807134504,5.0,36.0,14.0,31.32091952673165,215.13948963405113,212.07781590727495,208.03124765284662,201.43485299222675
239,1,842,0,28.094733333332872,2.0,73.76313442364011,4.47213595499958,9.486832980505138,21.840329667841555,22.80350850198276,25.96150997149434,40.496913462633174,31.016124838541646,29.0,19.0,39.0,4.0,9.0,5.0,2.0,6.324555320336759,5.385164807134504,5.0,38.0,15.0,29.832867780352597,206.52602741543257,203.39370688396434,198.4363877921587,190.77997798511248
240,1,843,0,28.12809999999953,3.1622776601683795,78.16009211867653,4.47213595499958,9.486832980505138,24.041630560342615,24.73863375370596,25.709920264364882,39.56008088970496,30.083217912982647,28.5,18.0,40.0,4.0,8.0,5.0,2.0,5.385164807134504,6.324555320336759,6.0,38.0,15.0,28.861739379323623,206.11889772653063,205.00975586542216,200.11246837716035,192.62917743685665
241,1,844,0,28.161466666666204,2.0,79.12016177940993,4.47213595499958,8.94427190999916,23.08679276123039,24.041630560342615,25.709920264364882,39.56008088970496,30.675723300355934,29.0,19.0,41.0,5.0,7.0,6.0,1.0,5.385164807134504,6.324555320336759,6.5,38.0,15.0,31.04834939252005,216.31689716709604,212.24985276791125,208.31946620515328,199.5720421301541
242,1,845,0,28.19483333333287,3.1622776601683795,77.88452991448301,5.385164807134504,8.94427190999916,21.840329667841555,23.08679276123039,25.495097567963924,39.56008088970496,30.675723300355934,29.5,20.0,41.0,5.5,6.5,6.5,0.5,6.324555320336759,7.280109889280518,6.5,36.0,14.0,30.805843601498726,219.45614596087302,214.57399656062708,208.62646045025065,197.9898987322333
243,1,846,0,28.228199999999536,3.1622776601683795,80.77747210701756,4.47213595499958,8.94427190999916,24.041630560342615,25.0,25.709920264364882,39.0,30.083217912982647,28.5,20.0,41.0,5.5,5.5,7.5,0.5,6.324555320336759,7.280109889280518,7.0,36.0,14.0,27.892651361962706,220.6558406206371,215.6965461012299,210.86725682286476,201.3181561608391
244,1,847,0,28.2615666666662,3.1622776601683795,82.96987405076617,3.605551275463989,8.06225774829855,24.041630560342615,25.0,25.709920264364882,39.0,31.016124838541646,28.5,20.0,42.0,6.0,5.0,7.0,1.0,5.385164807134504,6.708203932499369,6.0,36.0,15.0,28.861739379323623,217.4971264177989,215.20455385516357,210.15232570685484,202.3116407921205
245,1,848,0,28.294933333332867,2.23606797749979,79.81227975693966,5.385164807134504,8.94427190999916,23.769728648009426,23.769728648009426,25.709920264364882,39.56008088970496,30.675723300355934,29.5,21.0,42.0,6.5,5.5,7.5,0.5,6.082762530298219,6.708203932499369,6.0,36.0,15.0,29.614185789921695,221.21934815924217,217.83020910791964,212.72047386182646,205.0780339285512
246,1,849,0,28.328299999999533,2.23606797749979,75.43208866258443,5.385164807134504,9.848857801796104,20.615528128088304,22.80350850198276,24.73863375370596,39.56008088970496,29.732137494637012,28.5,20.0,39.0,5.5,7.5,4.5,0.5,7.280109889280518,7.280109889280518,7.0,37.0,16.0,31.78049716414141,202.7856010667424,200.89798406156294,198.2826265712657,190.64626930522402
247,1,850,0,28.3616666666662,2.23606797749979,81.49233092751734,5.385164807134504,8.06225774829855,22.80350850198276,22.80350850198276,24.73863375370596,37.69615364994153,29.732137494637012,28.5,20.0,40.0,6.0,5.0,6.0,0.0,6.324555320336759,6.324555320336759,6.0,35.0,14.0,30.083217912982647,220.83930809527547,216.68410186259626,212.59586073110643,204.9780476051033
248,1,851,0,28.395033333332865,3.0,77.62087348130012,4.123105625617661,8.06225774829855,22.80350850198276,22.80350850198276,24.73863375370596,37.69615364994153,29.732137494637012,28.0,20.0,40.0,6.0,5.0,6.0,0.0,6.082762530298219,6.324555320336759,6.0,36.0,17.0,30.59411708155671,219.49259668608414,215.5411793602327,209.61870145576228,199.11052207254141
249,1,852,0,28.42839999999953,2.23606797749979,77.3692445355388,5.385164807134504,8.06225774829855,20.8806130178211,22.135943621178654,24.331050121192877,37.0,29.120439557122072,28.5,20.0,39.0,5.5,5.5,5.5,0.5,5.0990195135927845,5.385164807134504,5.5,35.0,16.0,29.614185789921695,222.27235545609355,217.36835096213983,211.72859986312668,201.20636172845033
250,1,853,0,28.4617666666662,3.0,79.30952023559341,3.605551275463989,7.615773105863909,21.840329667841555,21.840329667841555,24.331050121192877,36.05551275463989,28.460498941515414,27.0,19.0,38.0,4.5,5.5,5.5,0.5,6.082762530298219,6.324555320336759,6.5,36.0,17.0,29.614185789921695,223.2576986354558,218.3575050232989,212.59586073110643,202.98768435548004
251,1,854,0,28.495133333332863,3.0,79.30952023559341,4.123105625617661,8.54400374531753,22.80350850198276,22.80350850198276,24.515301344262525,37.94733192202055,29.410882339705484,28.0,20.0,39.0,5.5,6.5,5.5,0.5,6.324555320336759,6.324555320336759,6.0,34.0,15.0,29.614185789921695,212.07781590727495,209.02152999152983,205.40691322348428,197.82062582046393
252,1,855,0,28.52849999999953,2.23606797749979,79.30952023559341,4.47213595499958,8.54400374531753,22.80350850198276,23.769728648009426,24.73863375370596,37.33630940518894,28.792360097775937,27.5,19.0,38.0,4.5,6.5,5.5,0.5,6.082762530298219,6.324555320336759,6.0,36.0,18.0,28.635642126552707,215.5411793602327,213.71242359769354,210.05237442123808,202.63267258761604
253,1,856,0,28.561866666666194,3.1622776601683795,81.49233092751734,5.0990195135927845,6.708203932499369,22.80350850198276,23.769728648009426,24.515301344262525,36.05551275463989,29.410882339705484,28.5,21.0,41.0,7.0,3.0,7.0,1.0,6.324555320336759,6.324555320336759,6.0,35.0,16.0,26.68332812825267,215.37873618349607,212.4241040936739,208.75344308537763,199.11052207254141
254,1,857,0,28.59523333333286,3.1622776601683795,81.25269226308751,5.0990195135927845,7.615773105863909,22.80350850198276,22.80350850198276,23.53720459187964,36.05551275463989,28.460498941515414,27.5,20.0,39.0,6.5,4.5,6.5,0.5,6.324555320336759,7.280109889280518,7.0,35.0,16.0,26.476404589747453,223.0896680709351,217.0829334609241,211.482859825566,200.80836635957178
255,1,858,0,28.62859999999953,3.1622776601683795,79.30952023559341,5.0990195135927845,7.615773105863909,22.80350850198276,22.80350850198276,24.515301344262525,37.0,29.410882339705484,28.5,21.0,40.0,6.5,4.5,6.5,0.5,6.324555320336759,6.324555320336759,6.0,35.0,15.0,31.78049716414141,219.9659064491586,212.98356744124652,207.39334608419819,196.65197685250968
256,1,859,0,28.661966666666192,3.0,78.587530817554,4.47213595499958,7.615773105863909,21.840329667841555,23.08679276123039,25.317977802344327,37.94733192202055,30.364452901377952,29.0,22.0,42.0,7.0,4.0,7.0,1.0,7.0710678118654755,6.324555320336759,6.5,36.0,16.0,31.78049716414141,217.51781536232843,212.8497122384712,206.2862089428181,196.82479518597245
257,1,860,0,28.69533333333285,3.1622776601683795,79.55501241279521,4.47213595499958,7.615773105863909,21.840329667841555,21.840329667841555,25.495097567963924,37.33630940518894,29.732137494637012,28.5,22.0,42.0,7.0,3.0,8.0,1.0,6.082762530298219,6.324555320336759,6.0,35.0,14.0,29.832867780352597,220.79175709251467,216.8155898453799,211.25576915199264,201.63581031156147
258,1,861,0,28.728699999999524,2.23606797749979,80.52328855678958,4.47213595499958,7.615773105863909,23.08679276123039,23.08679276123039,24.515301344262525,36.05551275463989,28.460498941515414,27.5,20.0,40.0,6.0,4.0,7.0,0.0,5.0990195135927845,6.324555320336759,6.0,35.0,16.0,27.65863337187866,219.49487465542333,217.44194627532195,213.84573879317773,206.4097865896867
259,1,862,0,28.76206666666619,3.0,80.2807573457052,5.0990195135927845,7.615773105863909,23.08679276123039,23.769728648009426,22.561028345356956,36.05551275463989,28.460498941515414,27.0,20.0,39.0,7.5,4.5,6.5,0.5,6.082762530298219,6.324555320336759,6.5,36.0,17.0,27.892651361962706,213.2650932525058,211.36697944570244,207.78113485107352,199.36148073286373
260,1,863,0,28.795433333332856,3.1622776601683795,77.87810988975015,4.123105625617661,8.54400374531753,20.8806130178211,21.840329667841555,24.515301344262525,37.0,28.460498941515414,27.5,22.0,39.0,6.5,4.5,6.5,0.5,5.0990195135927845,6.082762530298219,6.0,34.0,15.0,29.427877939124322,217.34764779035453,215.24404753674375,211.36697944570244,203.79646709401024
261,1,864,0,28.82879999999952,2.23606797749979,77.87810988975015,4.47213595499958,6.708203932499369,20.615528128088304,20.8806130178211,25.495097567963924,37.94733192202055,31.32091952673165,29.5,23.0,40.0,6.5,4.5,4.5,1.5,6.082762530298219,7.280109889280518,7.0,35.0,18.0,30.59411708155671,220.1317787144782,219.06391761310215,217.1174797200815,208.54016399725018
262,1,865,0,28.862166666666187,4.47213595499958,78.587530817554,5.385164807134504,6.708203932499369,20.248456731316587,19.924858845171276,25.709920264364882,42.05948168962618,35.4400902933387,32.0,25.0,45.0,10.0,5.0,5.0,3.0,3.1622776601683795,5.385164807134504,5.0,34.0,16.0,28.635642126552707,224.4147945212169,221.18318200080222,218.43534512527958,207.87015177749788
263,1,866,0,28.895533333332853,7.615773105863909,74.46475676452586,3.605551275463989,7.615773105863909,19.6468827043885,20.615528128088304,25.495097567963924,43.965895873961216,36.40054944640259,31.5,24.0,43.0,8.5,8.5,1.5,3.5,3.605551275463989,3.605551275463989,3.0,37.0,19.0,32.55764119219941,224.24317157942625,221.472345903501,218.79899451322896,208.16579930430456
264,1,867,0,28.92889999999952,5.385164807134504,74.21590126111789,4.123105625617661,8.246211251235321,20.615528128088304,21.840329667841555,25.96150997149434,43.68065933568311,35.4400902933387,31.5,24.0,42.0,8.0,9.0,2.0,2.0,3.1622776601683795,4.47213595499958,3.5,37.0,20.0,27.294688127912362,221.63934668736056,219.3467574412715,217.329243315298,209.6115454835444
265,1,868,0,28.962266666666185,2.23606797749979,76.6550715869472,5.385164807134504,7.615773105863909,19.6468827043885,20.8806130178211,26.68332812825267,41.10960958218893,33.52610922848042,31.5,22.0,42.0,6.0,7.0,4.0,0.0,4.47213595499958,5.385164807134504,4.5,35.0,18.0,29.427877939124322,223.43007854807732,221.32555207205516,216.44860821913363,207.78113485107352
266,1,869,0,28.99563333333285,2.23606797749979,78.587530817554,4.47213595499958,6.708203932499369,20.615528128088304,21.840329667841555,26.68332812825267,39.21734310225516,32.57299494980466,30.5,22.0,42.0,6.0,5.0,5.0,0.0,6.082762530298219,7.0710678118654755,6.5,35.0,17.0,32.55764119219941,216.1203368496357,215.0348808914498,213.12203077110541,204.29880077964236
267,1,870,0,29.02899999999952,2.23606797749979,80.049984384758,4.47213595499958,8.54400374531753,20.615528128088304,20.615528128088304,29.614185789921695,42.05948168962618,33.52610922848042,32.5,25.0,43.0,5.0,6.0,5.0,1.0,5.0990195135927845,6.082762530298219,6.5,34.0,17.0,29.274562336608895,223.9732126840172,221.6235547048192,218.55205329623422,209.77368757782756
268,1,871,0,29.062366666666183,4.242640687119285,78.85429601486528,4.47213595499958,9.486832980505138,21.587033144922902,21.587033144922902,28.442925306655784,45.880278987817846,36.40054944640259,33.5,26.0,43.0,6.5,9.5,2.5,0.5,5.0990195135927845,6.324555320336759,6.5,34.0,18.0,30.4138126514911,221.82200071228283,219.80445855350615,216.9469981354893,208.16579930430456
269,1,872,0,29.09573333333285,7.615773105863909,82.76472678623425,4.47213595499958,11.180339887498949,21.587033144922902,22.561028345356956,27.459060435491963,50.44799302251776,39.293765408777,34.5,29.0,46.0,10.5,11.5,1.5,4.5,6.082762530298219,7.280109889280518,7.0,33.0,18.0,29.427877939124322,224.58851261807672,219.79080963497995,215.23243250030885,205.70367036103173
270,1,873,0,29.129099999999514,5.830951894845301,85.5102333057278,5.0990195135927845,10.44030650891055,23.53720459187964,24.515301344262525,25.709920264364882,46.84015371452148,36.40054944640259,32.5,29.0,45.0,12.0,8.0,5.0,5.0,6.082762530298219,7.0710678118654755,7.0,34.0,20.0,28.284271247461902,227.1255159597882,223.40322289528413,219.91134577370036,212.46176126540982
271,1,874,0,29.16246666666618,6.708203932499369,82.76472678623425,4.123105625617661,8.54400374531753,22.561028345356956,23.53720459187964,25.495097567963924,44.64302857109943,36.138621999185304,32.0,26.0,43.0,9.5,8.5,2.5,3.5,6.082762530298219,7.0710678118654755,7.0,35.0,20.0,29.274562336608895,221.472345903501,217.68095920406083,214.13313615599057,205.70367036103173
272,1,875,0,29.19583333333285,3.605551275463989,77.87810988975015,4.47213595499958,7.615773105863909,20.8806130178211,20.615528128088304,26.30589287593181,40.80441152620633,33.24154027718932,31.0,25.0,42.0,7.5,5.5,4.5,1.5,6.082762530298219,7.0710678118654755,6.5,33.0,19.0,33.37663853655727,216.0925727552893,211.85844330590177,206.40009689920205,196.02295783912658
273,1,876,0,29.229199999999512,2.0,78.64477096412705,4.47213595499958,6.708203932499369,20.8806130178211,20.615528128088304,25.495097567963924,37.0,30.364452901377952,29.0,24.0,40.0,7.0,3.0,6.0,1.0,6.082762530298219,7.0710678118654755,7.0,34.0,21.0,31.400636936215164,221.90313201935658,217.44194627532195,212.94130646729863,202.63267258761604
274,1,877,0,29.26256666666617,3.1622776601683795,79.62411694957753,4.123105625617661,5.385164807134504,21.587033144922902,21.587033144922902,25.317977802344327,34.48187929913333,29.120439557122072,28.5,23.0,39.0,6.0,2.0,7.0,1.0,5.0990195135927845,6.082762530298219,6.0,32.0,20.0,30.265491900843113,217.68095920406083,215.34158910902465,210.95023109728987,202.71408436514716
275,1,878,0,29.295933333332844,2.23606797749979,77.46612162745726,4.123105625617661,6.708203932499369,19.4164878389476,20.615528128088304,25.495097567963924,37.64306044943742,31.04834939252005,29.5,25.0,40.0,7.5,3.5,5.5,2.5,6.0,6.324555320336759,6.5,33.0,21.0,31.25699921617557,221.41589825484527,218.82641522448793,214.4574549881631,204.24495097798624
276,1,879,0,29.32929999999951,4.242640687119285,76.68767828015137,4.123105625617661,7.615773105863909,20.615528128088304,21.587033144922902,26.30589287593181,41.48493702538308,33.95585369269929,31.5,27.0,43.0,9.0,5.0,5.0,3.0,6.082762530298219,7.0710678118654755,7.0,34.0,21.0,31.25699921617557,217.55918734909818,214.13313615599057,210.77001684300356,201.48697228356974
277,1,880,0,29.362666666666176,7.280109889280518,81.39410298049853,4.47213595499958,8.54400374531753,21.587033144922902,21.587033144922902,25.317977802344327,45.35416188179427,36.87817782917155,32.5,28.0,43.0,10.5,8.5,2.5,4.5,7.0,7.280109889280518,6.5,32.0,19.0,30.265491900843113,218.67327225795108,215.23243250030885,210.85777196963835,200.5617112013158
278,1,881,0,29.39603333333284,6.324555320336759,81.21576201698781,5.0990195135927845,10.44030650891055,23.345235059857504,25.495097567963924,25.495097567963924,47.29693436154187,36.87817782917155,33.0,30.0,44.0,12.0,9.0,4.0,6.0,6.082762530298219,6.324555320336759,6.0,34.0,20.0,29.427877939124322,223.51733713517615,219.0091322296858,213.75921032788273,203.4158302591025
279,1,882,0,29.429399999999507,5.385164807134504,83.18653737234169,6.324555320336759,12.36931687685298,23.53720459187964,24.331050121192877,25.317977802344327,49.24428900898052,36.87817782917155,33.5,30.0,44.0,12.0,11.0,4.0,5.0,5.0,6.324555320336759,6.0,32.0,20.0,29.274562336608895,223.40322289528413,220.90722034374522,216.59178193089414,207.3475343475297
280,1,883,0,29.462766666666173,5.830951894845301,84.17244204607586,6.082762530298219,11.180339887498949,23.53720459187964,23.345235059857504,25.495097567963924,48.27007354458868,37.107950630558946,33.5,31.0,45.0,13.0,9.0,5.0,5.0,5.0,7.0710678118654755,7.0,32.0,20.0,28.284271247461902,221.19900542271884,220.7351353998724,217.38905216224666,209.19369015340783
281,1,884,0,29.49613333333284,5.830951894845301,83.54639429682169,4.123105625617661,8.246211251235321,22.561028345356956,22.360679774997898,26.30589287593181,44.14748010928823,35.90264614203248,32.5,28.0,44.0,10.0,7.0,4.0,4.0,6.082762530298219,6.082762530298219,6.5,32.0,20.0,30.265491900843113,222.9910312097776,218.74185699129464,213.45959805077868,203.24615617521528
282,1,885,0,29.529499999999505,2.8284271247461903,78.44743462982075,5.0990195135927845,7.615773105863909,21.587033144922902,21.587033144922902,25.317977802344327,40.26164427839479,32.7566787083184,31.0,26.0,41.0,8.5,5.5,4.5,2.5,6.0,7.0710678118654755,7.0,32.0,20.0,30.265491900843113,221.30521909796886,217.74526401279087,213.39634486091836,205.19746587129188
283,1,886,0,29.56286666666617,1.4142135623730951,80.23091673413684,5.385164807134504,7.615773105863909,20.396078054371138,21.587033144922902,25.317977802344327,39.293765408777,31.78049716414141,30.5,26.0,40.0,8.0,5.0,5.0,2.0,5.0990195135927845,6.082762530298219,6.0,32.0,21.0,31.144823004794873,223.40322289528413,219.8226557932553,215.39266468475662,207.1955597979841
284,1,887,0,29.59623333333284,2.0,80.4114419718985,4.123105625617661,7.615773105863909,21.587033144922902,22.360679774997898,26.68332812825267,38.897300677553446,31.32091952673165,30.0,26.0,41.0,7.5,3.5,6.5,2.5,6.082762530298219,7.0710678118654755,7.0,32.0,20.0,29.274562336608895,221.65062598603234,218.11235636707977,214.75567512873786,205.41178155110774
285,1,888,0,29.629599999999503,2.8284271247461903,80.23091673413684,4.123105625617661,6.708203932499369,21.37755832643195,22.360679774997898,25.495097567963924,38.600518131237564,32.01562118716424,30.0,27.0,41.0,9.0,3.0,6.0,4.0,5.0,7.0710678118654755,7.0,31.0,20.0,29.274562336608895,224.51057881534223,220.10224896624752,213.67732682715777,205.35091916034852
286,1,889,0,29.66296666666617,4.242640687119285,80.4114419718985,5.0990195135927845,7.615773105863909,21.587033144922902,22.561028345356956,25.495097567963924,41.7612260356422,34.20526275297414,31.5,27.0,42.0,9.5,5.5,4.5,3.5,5.0990195135927845,6.082762530298219,6.5,32.0,21.0,28.160255680657446,223.1882613400624,220.7351353998724,216.453228204155,207.24140512938047
287,1,890,0,29.696333333332834,5.830951894845301,82.20097323024831,5.0990195135927845,7.280109889280518,22.561028345356956,22.561028345356956,25.317977802344327,43.174066289845804,35.90264614203248,32.5,28.0,42.0,10.0,7.0,3.0,4.0,5.0990195135927845,5.385164807134504,6.0,31.0,21.0,30.265491900843113,221.09726366465958,218.66183937761065,215.3346233191495,206.15528128088303
288,1,891,0,29.7296999999995,4.242640687119285,83.02409288875127,5.0990195135927845,8.246211251235321,22.360679774997898,22.360679774997898,25.317977802344327,42.20189569201838,33.95585369269929,31.5,28.0,41.0,9.5,6.5,4.5,3.5,5.0990195135927845,6.082762530298219,6.0,32.0,22.0,28.160255680657446,223.0874268084152,219.65882636488797,216.390850083824,207.24140512938047
289,1,892,0,29.76306666666617,3.605551275463989,80.06247560499239,5.0990195135927845,7.280109889280518,22.360679774997898,22.561028345356956,25.495097567963924,41.23105625617661,33.95585369269929,31.5,27.0,40.0,8.5,6.5,3.5,2.5,6.082762530298219,7.0710678118654755,6.5,31.0,22.0,28.160255680657446,219.8226557932553,216.59178193089414,212.3982109152523,204.24495097798624
290,1,893,0,29.796433333332832,2.8284271247461903,82.03657720797473,4.123105625617661,6.708203932499369,22.360679774997898,22.360679774997898,26.1725046566048,39.05124837953327,32.55764119219941,31.0,27.0,40.0,7.5,4.5,4.5,2.5,6.0,6.082762530298219,6.0,31.0,23.0,28.071337695236398,214.84180226389836,214.4574549881631,211.28653530218153,202.15835377248203
291,1,894,0,29.82979999999949,2.23606797749979,87.69264507357501,4.123105625617661,6.324555320336759,23.194827009486403,23.345235059857504,25.495097567963924,38.07886552931954,31.78049716414141,30.0,28.0,39.0,8.5,3.5,4.5,3.5,2.0,2.23606797749979,2.5,31.0,25.0,30.01666203960727,219.58369702689677,218.27734651126764,218.08255317654368,211.0213259365034
292,1,895,0,29.863166666666164,2.23606797749979,79.51100552753688,5.0990195135927845,6.082762530298219,22.20360331117452,21.213203435596427,26.1725046566048,38.63935817272331,32.55764119219941,31.5,30.0,39.0,8.5,3.5,5.5,3.5,3.0,3.1622776601683795,3.0,29.0,26.0,29.017236257093817,219.27608168699112,218.11235636707977,215.03720608304042,208.0
293,1,896,0,29.89653333333283,1.4142135623730951,78.16009211867653,4.0,5.0990195135927845,21.095023109728988,21.095023109728988,25.179356624028344,35.35533905932738,30.265491900843113,29.5,30.0,35.0,7.5,2.5,4.5,3.5,3.1622776601683795,4.123105625617661,4.0,25.0,28.0,29.017236257093817,216.0092590608097,215.0,213.00234740490538,206.00970850908945
294,1,897,0,29.92989999999949,0.0,82.00609733428362,4.0,8.0,23.021728866442675,23.0,24.0,36.0,28.0,28.0,31.0,30.0,6.5,5.5,3.5,3.5,4.123105625617661,4.123105625617661,4.5,22.0,31.0,33.24154027718932,221.38202275704322,219.58369702689677,214.75567512873786,207.6968945362448
295,1,898,0,29.96326666666616,1.0,81.15417426109393,4.123105625617661,7.0710678118654755,22.0,22.02271554554524,24.0,35.014282800023196,28.0,28.0,33.0,28.0,6.5,4.5,2.5,3.5,5.0990195135927845,5.0990195135927845,5.0,20.0,35.0,30.59411708155671,223.0874268084152,221.19900542271884,218.21548982599745,210.05237442123808
296,1,899,0,29.996633333332827,2.0,81.39410298049853,3.1622776601683795,6.082762530298219,23.021728866442675,23.08679276123039,24.020824298928627,35.12833614050059,29.068883707497267,28.0,34.0,26.0,6.0,5.0,1.0,5.0,5.385164807134504,5.0990195135927845,5.5,18.0,37.0,32.55764119219941,222.17335573826128,219.06391761310215,214.96511344867102,206.51876428063383
297,1,900,0,30.029999999999493,2.0,87.82368700982668,4.123105625617661,8.06225774829855,24.08318915758459,24.186773244895647,22.02271554554524,36.124783736376884,28.071337695236398,27.0,36.0,24.0,8.0,6.0,2.0,6.0,6.324555320336759,6.324555320336759,6.0,16.0,35.0,34.132096331752024,226.86119103980744,225.7432169523594,220.91174708466727,212.8497122384712
298,1,901,0,30.06336666666616,1.4142135623730951,78.63841300535,5.0990195135927845,8.246211251235321,22.090722034374522,22.360679774997898,23.0,37.21558813185679,29.068883707497267,28.5,35.0,25.0,7.0,7.0,1.0,5.0,6.708203932499369,6.708203932499369,6.0,16.0,38.0,30.083217912982647,222.61176967986216,220.79175709251467,217.83020910791964,209.45882650296693
299,1,902,0,30.096733333332825,3.0,81.74350127074322,5.0990195135927845,8.246211251235321,22.090722034374522,22.20360331117452,23.021728866442675,39.20459156782532,31.064449134018133,29.5,36.0,25.0,7.5,8.5,0.5,4.5,6.324555320336759,6.708203932499369,6.5,16.0,38.0,30.083217912982647,223.6000894454204,221.6235547048192,218.3575050232989,210.01190442448734
300,1,903,0,30.13009999999949,4.0,78.91767862779544,5.0990195135927845,6.324555320336759,22.090722034374522,22.20360331117452,22.0,37.12142238654117,31.016124838541646,29.0,36.0,24.0,8.0,7.0,1.0,5.0,6.708203932499369,6.324555320336759,6.5,17.0,38.0,31.78049716414141,227.6071176391459,222.52415599210798,216.566387050253,207.39334608419819
301,1,904,0,30.16346666666616,4.123105625617661,83.02409288875127,4.123105625617661,7.0710678118654755,22.20360331117452,23.194827009486403,22.02271554554524,37.21558813185679,30.14962686336267,28.0,37.0,24.0,8.5,6.5,0.5,6.5,6.324555320336759,6.324555320336759,6.0,16.0,38.0,27.892651361962706,229.59311836376978,227.6071176391459,221.41589825484527,212.3605424743495
302,1,905,0,30.196833333332822,3.0,80.89499366462674,5.0990195135927845,7.280109889280518,22.20360331117452,23.194827009486403,23.0,38.118237105091836,31.016124838541646,29.5,37.0,25.0,8.0,7.0,1.0,5.0,7.280109889280518,6.324555320336759,6.0,16.0,38.0,32.55764119219941,226.73552875542023,222.76669409945464,218.55205329623422,210.261741645978
303,1,906,0,30.23019999999949,2.23606797749979,81.88406438373708,5.0990195135927845,8.06225774829855,22.090722034374522,22.20360331117452,23.021728866442675,38.2099463490856,30.14962686336267,29.0,36.0,24.0,7.0,8.0,1.0,4.0,5.830951894845301,5.385164807134504,5.5,14.0,35.0,31.04834939252005,225.28426487440262,224.1539649437413,222.03603311174518,211.72859986312668
304,1,907,0,30.263566666666154,4.123105625617661,82.73451516749222,5.0990195135927845,8.06225774829855,22.090722034374522,22.360679774997898,23.021728866442675,40.19950248448356,32.14031735997639,30.0,37.0,26.0,8.5,8.5,0.5,5.5,7.280109889280518,7.280109889280518,7.0,16.0,38.0,30.083217912982647,225.7432169523594,223.75879870968203,219.5449840010015,211.25576915199264
305,1,908,0,30.29693333333282,7.0,84.71717653463199,4.123105625617661,7.280109889280518,23.08679276123039,24.186773244895647,23.021728866442675,41.19465984809196,34.058772731852805,30.5,38.0,27.0,9.5,8.5,1.5,7.5,6.324555320336759,6.082762530298219,6.5,17.0,36.0,28.635642126552707,226.38462845343543,224.28776159211185,219.10727965998757,210.85777196963835
306,1,909,0,30.33029999999949,7.0,82.87339742040264,5.0990195135927845,7.0710678118654755,23.08679276123039,23.194827009486403,22.090722034374522,41.19465984809196,34.132096331752024,30.5,38.0,26.0,10.0,9.0,2.0,7.0,7.280109889280518,7.280109889280518,7.0,17.0,37.0,33.37663853655727,227.4906591488978,222.52415599210798,218.55205329623422,210.61101585624624
307,1,910,0,30.363666666666152,6.0,86.83317338436964,5.0990195135927845,8.246211251235321,23.194827009486403,23.194827009486403,22.02271554554524,41.19465984809196,33.06055050963308,30.0,38.0,26.0,10.0,9.0,1.0,7.0,6.324555320336759,6.324555320336759,6.0,15.0,35.0,32.38826948140329,224.08257406590099,222.19360926903366,218.21548982599745,210.1547049199708
308,1,911,0,30.397033333332818,6.0,85.47514258543241,5.0990195135927845,7.0710678118654755,24.08318915758459,23.194827009486403,23.08679276123039,41.19465984809196,34.132096331752024,31.0,37.0,28.0,9.5,8.5,1.5,6.5,7.615773105863909,6.324555320336759,6.5,18.0,36.0,30.265491900843113,225.50388023269133,223.29352879114074,219.10727965998757,209.95475703112803
309,1,912,0,30.430399999999484,3.1622776601683795,80.39900496896712,5.0990195135927845,7.0710678118654755,23.08679276123039,23.08679276123039,23.021728866442675,38.2099463490856,31.144823004794873,29.5,35.0,27.0,8.0,7.0,0.0,5.0,7.280109889280518,6.324555320336759,6.5,18.0,38.0,32.7566787083184,221.04524423746375,219.06391761310215,213.974297521922,206.51876428063383
310,1,913,0,30.46376666666615,1.0,81.39410298049853,5.0990195135927845,8.246211251235321,23.021728866442675,23.08679276123039,23.0,37.12142238654117,29.017236257093817,28.5,35.0,27.0,8.0,6.0,2.0,5.0,6.324555320336759,6.324555320336759,6.5,17.0,36.0,33.734255586866,219.20310216782974,219.20310216782974,215.10230124292022,207.63429389192913
311,1,914,0,30.49713333333281,1.0,82.38931969618392,4.123105625617661,8.06225774829855,24.020824298928627,24.08318915758459,24.0,37.05401462729781,29.017236257093817,28.5,35.0,27.0,7.0,6.0,2.0,5.0,6.324555320336759,6.082762530298219,6.5,18.0,36.0,32.55764119219941,219.5449840010015,218.55205329623422,214.5809870421888,206.2862089428181
312,1,915,0,30.53049999999948,1.0,83.2946576918352,4.123105625617661,8.06225774829855,23.021728866442675,24.08318915758459,24.0,36.013886210738214,28.0,28.0,34.0,27.0,6.5,5.5,2.5,4.5,6.324555320336759,6.324555320336759,6.5,18.0,35.0,32.55764119219941,216.22673285234646,215.23243250030885,211.25576915199264,204.08331631958552
313,1,916,0,30.563866666666147,1.0,82.21921916437786,4.123105625617661,7.0710678118654755,23.021728866442675,23.021728866442675,24.0,36.05551275463989,29.017236257093817,28.5,34.0,28.0,7.0,5.0,3.0,5.0,6.324555320336759,6.082762530298219,6.5,18.0,34.0,30.805843601498726,222.29934772733816,220.31114361284588,216.22673285234646,208.95932618574363
314,1,917,0,30.597233333332813,1.0,83.21658488546619,4.0,7.0710678118654755,23.021728866442675,24.08318915758459,23.0,35.014282800023196,28.0,27.5,33.0,27.0,7.0,5.0,3.0,5.0,6.324555320336759,6.324555320336759,6.0,20.0,35.0,33.54101966249684,219.20994502987313,220.20445045457188,217.22108553268947,207.96393918177256
315,1,918,0,30.63059999999948,1.0,80.15609770940699,4.0,8.06225774829855,21.02379604162864,22.02271554554524,23.0,36.013886210738214,28.0,27.5,33.0,28.0,7.5,5.5,2.5,4.5,6.324555320336759,6.324555320336759,6.5,20.0,35.0,31.575306807693888,224.98222151983475,224.28776159211185,221.30521909796886,212.24985276791125
316,1,919,0,30.663966666666145,4.0,82.15229759416349,6.082762530298219,9.0,24.0,25.019992006393608,23.021728866442675,42.0,33.0,31.0,35.0,30.0,9.5,9.5,0.5,4.5,7.280109889280518,7.280109889280518,7.0,21.0,36.0,29.427877939124322,223.98660674245681,224.08257406590099,221.0,212.94130646729863
317,1,920,0,30.69733333333281,9.055385138137417,87.14355971613737,4.123105625617661,9.055385138137417,24.020824298928627,25.019992006393608,23.0,45.0111097397076,36.0,31.5,36.0,31.0,10.5,11.5,1.5,7.5,6.708203932499369,7.280109889280518,7.0,18.0,35.0,34.52535300326414,221.90313201935658,221.09726366465958,218.21548982599745,209.16022566444127
318,1,921,0,30.73069999999948,11.0,88.14193099768123,5.0,10.04987562112089,23.0,25.019992006393608,23.0,49.01020301937138,39.0,33.5,36.0,31.0,10.5,15.5,5.5,6.5,6.324555320336759,7.280109889280518,7.0,20.0,35.0,30.59411708155671,225.71885167172013,225.80079716422614,222.89908030317218,212.8497122384712
319,1,922,0,30.764066666666142,14.0,90.13878188659973,5.0,9.0,24.020824298928627,25.019992006393608,23.021728866442675,51.0098029794274,42.01190307520001,35.0,36.0,31.0,10.5,17.5,8.5,7.5,7.0710678118654755,6.0,6.5,20.0,33.0,29.154759474226502,224.50167037240502,222.5758297749331,219.58369702689677,210.68697159530296
320,1,923,0,30.79743333333281,13.0,88.09086218218096,6.0,10.04987562112089,25.0,26.019223662515376,23.0,52.009614495783374,42.0,35.5,36.0,32.0,11.0,18.0,7.0,6.0,6.082762530298219,6.082762530298219,6.5,21.0,34.0,30.265491900843113,221.19900542271884,219.4288039433292,215.34158910902465,205.29247428973133
321,1,924,0,30.83079999999948,7.0,88.09086218218096,5.0990195135927845,11.0,25.0,26.0,25.019992006393608,48.0,37.0,33.5,37.0,33.0,10.0,13.0,2.0,6.0,5.0990195135927845,6.082762530298219,6.5,21.0,33.0,28.284271247461902,214.4574549881631,213.60009363293827,209.53758612716717,200.5617112013158
322,1,925,0,30.86416666666614,11.0,88.09086218218096,5.0,10.04987562112089,25.0,26.019223662515376,24.020824298928627,50.0,40.01249804748511,34.5,36.0,32.0,10.0,16.0,6.0,6.0,6.324555320336759,6.082762530298219,6.5,22.0,33.0,30.4138126514911,217.38905216224666,216.453228204155,212.46176126540982,203.4158302591025
323,1,926,0,30.89753333333281,10.0,88.05112151472007,4.0,10.04987562112089,26.019223662515376,27.018512172212592,24.020824298928627,48.0,38.01315561749642,33.0,35.0,32.0,9.5,14.5,3.5,6.5,6.082762530298219,6.082762530298219,6.5,21.0,33.0,30.4138126514911,220.51077071199947,217.5890622251036,213.67732682715777,204.70710783946902
324,1,927,0,30.930899999999472,9.0,87.09190547921202,4.123105625617661,9.0,24.020824298928627,25.019992006393608,24.020824298928627,46.0,37.0,32.5,35.0,31.0,9.0,13.0,4.0,6.0,5.385164807134504,6.082762530298219,6.0,21.0,33.0,30.265491900843113,220.38375620721234,218.44907873461037,213.39634486091836,204.35263639111682
325,1,928,0,30.964266666666138,8.0,88.05112151472007,4.0,8.0,24.0,25.0,24.0,44.0,36.0,32.0,34.0,31.0,8.5,11.5,2.5,5.5,5.385164807134504,5.0,5.5,21.0,32.0,29.427877939124322,216.59178193089414,214.67417171145672,210.68697159530296,202.63267258761604
326,1,929,0,30.997633333332804,5.0,86.02325267042627,5.0,8.0,24.0,24.020824298928627,24.0,42.0,34.0,31.5,33.0,31.0,8.0,10.0,2.0,4.0,5.385164807134504,6.082762530298219,6.0,21.0,32.0,30.265491900843113,219.58369702689677,218.74185699129464,215.75217264259473,206.54539452623968
327,1,930,0,31.03099999999947,4.123105625617661,84.02380615040002,5.0,9.055385138137417,23.0,23.0,24.020824298928627,42.01190307520001,33.0,31.0,33.0,31.0,8.0,10.0,1.0,4.0,5.385164807134504,6.082762530298219,6.5,22.0,33.0,31.25699921617557,220.5810508633958,219.65882636488797,215.52262062252305,207.4728897952694
328,1,931,0,31.06436666666613,2.0,85.0235261559999,5.0,9.0,24.0,24.020824298928627,24.020824298928627,40.01249804748511,31.016124838541646,30.0,32.0,30.0,7.0,9.0,1.0,3.0,5.0990195135927845,6.082762530298219,6.0,21.0,33.0,30.4138126514911,219.3855054464629,219.3855054464629,216.390850083824,208.290662296705
329,1,932,0,31.0977333333328,1.4142135623730951,83.00602387778854,5.0990195135927845,9.0,23.0,23.0,24.020824298928627,39.01281840626232,30.01666203960727,29.5,31.0,30.0,6.5,8.5,1.5,2.5,6.082762530298219,6.082762530298219,6.5,21.0,32.0,29.427877939124322,216.52020690919358,215.59452683219953,213.52751579129094,204.41379601191306
330,1,933,0,31.131099999999467,2.0,83.00602387778854,5.0,7.0,22.0,23.021728866442675,24.0,38.0,31.0,30.0,31.0,30.0,6.5,7.5,0.5,2.5,6.082762530298219,6.082762530298219,6.5,22.0,33.0,30.265491900843113,220.51077071199947,218.51544567833184,214.4574549881631,206.3492185592182
331,1,934,0,31.164466666666133,1.0,83.02409288875127,5.0,8.0,23.0,23.021728866442675,24.020824298928627,38.01315561749642,30.01666203960727,29.5,32.0,30.0,7.0,7.0,1.0,3.0,6.324555320336759,6.082762530298219,6.5,22.0,33.0,33.24154027718932,221.50846484954022,220.51077071199947,215.39266468475662,208.24024587000469
332,1,935,0,31.1978333333328,2.23606797749979,83.02409288875127,4.0,8.0,22.0,22.0,24.0,38.01315561749642,30.01666203960727,29.0,31.0,29.0,6.0,8.0,0.0,3.0,5.385164807134504,6.082762530298219,6.5,21.0,33.0,30.265491900843113,216.74870241826133,216.8340379184043,212.60291625469299,206.54539452623968
333,1,936,0,31.231199999999465,1.0,84.00595217006948,5.0,8.0,24.020824298928627,24.0,24.020824298928627,38.01315561749642,30.01666203960727,29.5,30.0,29.0,5.5,8.5,0.5,2.5,6.082762530298219,7.0710678118654755,7.0,23.0,34.0,31.25699921617557,214.39449619801343,214.3361845326169,210.34257771549724,203.24615617521528
334,1,937,0,31.26456666666613,2.0,84.02380615040002,4.123105625617661,8.0,23.021728866442675,23.021728866442675,24.020824298928627,38.0,30.0,29.0,31.0,29.0,6.0,8.0,0.0,3.0,6.082762530298219,7.0710678118654755,7.0,22.0,34.0,30.14962686336267,216.52020690919358,215.52262062252305,211.4000946073582,203.29781110479277
335,1,938,0,31.2979333333328,2.23606797749979,83.05419917138447,5.0990195135927845,8.06225774829855,23.0,23.021728866442675,24.0,39.01281840626232,31.0,30.0,32.0,29.0,6.5,8.5,0.5,2.5,7.280109889280518,7.0710678118654755,7.0,23.0,33.0,29.274562336608895,214.39449619801343,215.3346233191495,212.2851855405836,203.19940944796076
336,1,939,0,31.331299999999462,2.23606797749979,83.05419917138447,4.123105625617661,7.0,23.0,22.02271554554524,24.0,37.0,30.0,29.0,31.0,28.0,5.5,7.5,0.5,2.5,7.0710678118654755,6.082762530298219,6.5,21.0,32.0,30.14962686336267,216.52020690919358,215.39266468475662,210.34257771549724,202.2992832414391
337,1,940,0,31.36466666666613,2.23606797749979,85.0235261559999,5.0990195135927845,7.0,23.0,24.020824298928627,24.020824298928627,38.01315561749642,31.016124838541646,30.0,31.0,29.0,6.0,8.0,0.0,2.0,7.0710678118654755,7.0,7.0,22.0,33.0,31.144823004794873,215.39266468475662,213.283848427395,207.2920644887305,198.16155025635018
338,1,941,0,31.3980333333328,1.4142135623730951,83.02409288875127,6.0,8.0,22.02271554554524,23.021728866442675,24.020824298928627,39.05124837953327,31.064449134018133,30.5,32.0,30.0,7.0,8.0,0.0,3.0,7.0710678118654755,6.082762530298219,6.5,24.0,34.0,29.154759474226502,212.46176126540982,212.3982109152523,209.28927349484493,201.20139164528658
339,1,942,0,31.43139999999946,2.0,83.02409288875127,5.0,8.0,22.0,23.021728866442675,23.0,38.0,30.0,29.0,31.0,29.0,7.0,8.0,0.0,3.0,7.0710678118654755,7.0710678118654755,7.0,22.0,33.0,28.284271247461902,214.67417171145672,214.5250568115529,211.53250341259616,204.47982785595258
340,1,943,0,31.46476666666613,1.0,85.0235261559999,5.0,9.0,24.020824298928627,24.020824298928627,24.020824298928627,39.01281840626232,30.01666203960727,29.5,31.0,29.0,6.0,9.0,0.0,3.0,7.0710678118654755,7.0710678118654755,7.0,23.0,34.0,27.294688127912362,216.453228204155,217.51781536232843,213.45959805077868,206.47518010647187
341,1,944,0,31.49813333333279,2.0,82.02438661763951,4.0,8.0,22.0,23.08679276123039,24.0,38.0,30.0,29.0,30.0,28.0,5.0,9.0,0.0,2.0,6.082762530298219,7.0710678118654755,7.0,22.0,34.0,30.4138126514911,218.58636736997119,218.58636736997119,214.5250568115529,206.47518010647187
342,1,945,0,31.531499999999458,1.0,83.02409288875127,5.0990195135927845,8.0,22.02271554554524,23.021728866442675,24.020824298928627,38.0,30.0,29.5,31.0,29.0,6.0,8.0,0.0,3.0,7.0710678118654755,7.0,7.0,22.0,34.0,29.427877939124322,219.44703233354514,219.5130975591206,214.4574549881631,206.4097865896867
343,1,946,0,31.564866666666124,2.23606797749979,81.02468759581859,4.0,8.0,22.0,23.021728866442675,24.0,38.01315561749642,30.01666203960727,29.0,30.0,28.0,5.0,9.0,0.0,2.0,7.0710678118654755,6.082762530298219,6.5,22.0,34.0,31.144823004794873,215.59452683219953,214.59729728027799,209.46837470128995,202.35612172603032
344,1,947,0,31.59823333333279,1.4142135623730951,84.0535543567314,5.0990195135927845,9.0,24.020824298928627,25.019992006393608,24.020824298928627,39.01281840626232,30.01666203960727,29.5,31.0,28.0,5.5,9.5,0.5,2.5,6.082762530298219,7.0710678118654755,7.0,23.0,34.0,32.2490309931942,214.75567512873786,214.75567512873786,210.6086417980041,203.48218595248088
345,1,948,0,31.63159999999945,1.0,83.05419917138447,5.0990195135927845,8.0,23.021728866442675,24.020824298928627,24.020824298928627,38.0,30.0,29.5,32.0,29.0,6.5,7.5,1.5,3.5,7.280109889280518,6.082762530298219,6.5,23.0,33.0,31.25699921617557,216.59178193089414,216.59178193089414,211.6057655169159,204.47982785595258
346,1,949,0,31.66496666666612,1.0,82.05485969764375,5.0990195135927845,8.0,23.021728866442675,24.020824298928627,24.020824298928627,38.0,30.0,29.5,31.0,28.0,5.5,8.5,0.5,2.5,7.0710678118654755,7.0,7.0,22.0,33.0,31.25699921617557,212.52999788265186,210.4661492972207,206.4097865896867,199.36148073286373
347,1,950,0,31.698333333332787,1.4142135623730951,84.0535543567314,5.0990195135927845,8.06225774829855,23.021728866442675,25.019992006393608,24.020824298928627,38.0,30.01666203960727,29.5,31.0,28.0,5.5,8.5,0.5,2.5,7.0710678118654755,6.082762530298219,7.0,22.0,34.0,34.23448553724738,211.6057655169159,209.53758612716717,204.41379601191306,197.25364381932212
348,1,951,0,31.731699999999453,2.23606797749979,84.09518416651456,5.0990195135927845,8.06225774829855,24.020824298928627,25.019992006393608,23.0,38.01315561749642,30.0,29.0,31.0,27.0,6.0,9.0,1.0,3.0,6.082762530298219,6.082762530298219,6.0,20.0,33.0,28.284271247461902,221.50846484954022,221.5784285529618,220.7351353998724,212.76277869965884
349,1,952,0,31.76506666666612,2.0,87.09190547921202,5.0,7.0710678118654755,24.020824298928627,24.020824298928627,23.021728866442675,37.05401462729781,30.01666203960727,29.0,31.0,27.0,6.0,8.0,0.0,3.0,5.0990195135927845,6.082762530298219,6.0,20.0,32.0,29.427877939124322,220.6558406206371,222.72853431924702,219.91134577370036,213.03755537463343
350,1,953,0,31.798433333332785,3.1622776601683795,88.14193099768123,4.123105625617661,8.06225774829855,25.019992006393608,26.019223662515376,24.020824298928627,39.05124837953327,31.016124838541646,29.5,32.0,27.0,5.5,9.5,0.5,2.5,6.324555320336759,6.0,6.0,19.0,31.0,27.294688127912362,220.51077071199947,221.65288177689007,218.74185699129464,210.85777196963835
351,1,954,0,31.83179999999945,4.123105625617661,88.14193099768123,6.0,8.06225774829855,25.079872407968907,25.019992006393608,23.021728866442675,41.012193308819754,33.0,31.0,32.0,27.0,6.5,11.5,2.5,2.5,5.830951894845301,5.0990195135927845,5.5,19.0,32.0,29.274562336608895,224.50167037240502,224.57070156189118,220.6558406206371,211.68372634664195
352,1,955,0,31.86516666666612,4.0,88.14193099768123,6.082762530298219,7.0,24.020824298928627,24.020824298928627,23.0,40.01249804748511,33.015148038438355,31.0,32.0,27.0,6.5,10.5,2.5,2.5,5.385164807134504,6.082762530298219,6.0,18.0,32.0,27.16615541441225,221.65288177689007,221.73181999884454,218.82641522448793,210.85777196963835
353,1,956,0,31.898533333332782,4.123105625617661,89.20201791439474,6.082762530298219,7.0710678118654755,25.019992006393608,25.019992006393608,23.0,40.01249804748511,33.0,31.0,33.0,27.0,7.0,10.0,2.0,3.0,5.0990195135927845,6.082762530298219,5.5,21.0,33.0,30.4138126514911,223.37860237721964,223.503914954526,219.58369702689677,211.7663807123312
354,1,957,0,31.931899999999448,4.0,91.19758768739445,7.0710678118654755,8.06225774829855,25.019992006393608,26.019223662515376,23.021728866442675,42.1070065428546,34.058772731852805,32.0,33.0,27.0,7.0,12.0,3.0,2.0,3.605551275463989,4.123105625617661,4.5,21.0,34.0,28.284271247461902,223.72527796384566,223.80795338861395,220.81893034792103,210.85777196963835
