,video_id,frame_seq,time_seconds,m1,m3,m4,m5,m6,m7,m8,m9,m10,m11,m12,m13,m14,m15,m16,m17,e1,e2,e3,b1,b2,b3
0,14,0,0.0,35.72054538792623,173.12528638197264,12.566444015685937,19.869292589280082,51.66016073212812,53.58081808188943,44.95907688723067,112.58019030851437,92.7195807122402,72.86370578691958,83.52668712159061,67.53221511958395,32.877525781902705,34.65468933768125,13.328726668338959,22.21454444723156,12.937945977292191,10.810063887301103,10.662981334671088,35.54327111557046,53.314906673355665,41.029006715070075
1,14,1,0.0333666666666666,35.00310936121702,182.3054797506949,14.771237158189145,20.23671931316288,55.086402099004005,56.914621148638126,45.803662011756046,115.36705022748703,95.21875193812691,76.0340789395151,87.94303106257178,69.62156625786929,34.810783128934645,34.810783128934645,12.82502536329173,23.81790424611313,16.89155592896822,15.108266921164898,13.74109860352678,34.8107831289347,53.13224793363713,42.49632067054679
2,14,2,0.0667333333333332,33.641007946877544,184.82963589995333,13.13460691197083,15.317452212280958,56.0033516760169,57.702646780953415,45.952356636842985,107.83184304525432,92.54073963966444,74.30055692539452,83.58812654106885,65.01298730972019,29.72022277015776,31.57773669329265,14.86011138507888,22.29016707761832,15.317452212280903,11.298816091151904,11.145083538809104,37.150278462697315,53.867903770911084,50.29028132165336
3,14,3,0.1000999999999998,20.881367864695022,181.39914349240348,12.137048540059244,17.504300337591623,51.94883630912231,53.650697008834555,42.91094663133097,93.27383001355403,75.7764065150966,63.50820101436989,77.23970393639581,56.64244955335698,25.746567978798566,24.030130113545397,6.865751461013019,18.88081651778566,12.495856277165634,12.495856277165696,11.156846124146114,30.895881574558302,49.776698092343906,50.51112398876336
4,14,4,0.1334666666666664,20.775101642685666,175.3869840829947,13.767940418201807,19.092698128984466,49.99225311351829,51.684466340252634,42.692570890292345,96.13320446652375,77.05506415936377,64.8927077532444,75.13892476691456,54.64649073957423,23.90783969856375,29.030948205398772,10.246217013670162,15.3693255205053,13.005477328259065,10.387550821342815,11.100068431476018,35.861759547845566,54.64649073957423,46.61121631317293
5,14,5,0.166833333333333,13.539773635792887,170.26358372331535,11.953494391717145,18.720981903809033,48.06703772780666,49.694083358821544,42.21411384793677,86.41653165989817,67.69886817896455,59.109794308934966,72.2453041553648,52.54203938571993,21.345203500448747,21.345203500448747,3.283877461607517,14.777448577233713,12.50463282753148,11.95349439171709,10.672601750224374,32.83877461607494,50.90010065491617,48.067037727806884
6,14,6,0.2001999999999996,22.418867779709636,165.1230730567814,13.741916407666725,17.12976129075459,48.20983194396385,49.69355732455958,42.61187385930076,95.60266158050463,78.57241309087594,65.62228574332312,74.99689799236933,52.838723585532875,23.010411884022346,29.82831170151053,12.783562157790243,16.192512066534277,9.178878538926483,10.367916386285986,9.374612249046152,25.56712431558043,47.725298722416824,38.11321863921707
7,14,7,0.2335666666666662,24.003360705764695,173.06572881138806,12.001680352882275,18.976322832200843,51.62117907328436,53.05231449673598,41.331807716723034,95.923387987402,76.97934287446365,62.79987476735789,72.9836382431456,49.22152346630753,22.06482086420681,32.24858433999452,13.578351301050247,15.275645213681742,10.734629245307488,9.140207445665629,9.335116519472137,32.24858433999452,54.31340520420133,42.56791476761495
8,14,8,0.2669333333333328,14.48789900254923,161.78895859895715,11.440206974643164,19.11731096990163,46.003021563730655,47.56020126081528,38.87511242502147,83.8621397759418,64.79185404170252,55.78588150129838,69.14306439597556,47.14299845180153,20.4286326624474,23.571499225900652,4.714299845180108,14.14289953554055,8.462427205514617,8.462427205514533,7.071449767770218,26.71436578935419,50.285865015254956,35.453150811873826
9,14,9,0.3002999999999994,25.29822128134697,175.6531158107281,10.059651146863022,16.865480854231354,48.41416759515359,51.69271469111246,39.75996354191871,91.85644690279962,75.00655242032468,60.36357083341488,71.11324783114617,44.65250445211507,19.845557534273325,31.422132762599517,14.884168150705023,14.884168150705023,13.637554985513562,11.694106924093756,11.576575228326078,33.07592922378893,52.92148675806226,38.35952282619003
10,14,10,0.333666666666666,19.487153370291836,174.27325749047245,13.779498294155717,19.108726019133442,53.4224755429844,56.814326934822105,39.45847818348863,91.61034950892758,72.55279043311295,60.67434268592592,71.78372937489814,47.85581958326543,22.21877337794467,29.055319032696843,10.254818482128258,15.3822277231925,12.44270090741976,10.809527798371999,9.400250275284236,30.764455446384943,51.27409241064157,38.5598750752979
11,14,11,0.3670333333333326,29.659270672323366,180.5329755779347,10.450888094005835,15.840241489117645,52.254440470029266,55.40755740031753,41.30629616593851,97.10012551544568,81.26159220254495,64.42932821610668,72.16084760203944,46.389116315596766,19.758327319605996,35.22136609147174,19.75832731960611,16.32209648141361,10.866316014797341,10.866316014797395,9.449634805029007,29.20796212463506,51.543462572885346,44.96738380687917
12,14,12,0.4003999999999992,30.085243709636178,174.64139763948455,10.028414569878752,13.595208533339216,49.89754218270974,53.16772612209212,39.18822934619406,92.39859880837734,78.80876455657388,61.000464383955205,67.59510918222065,44.51385238829164,19.783934394796233,32.97322399132713,19.783934394796233,14.837950796097175,13.595208533339106,11.657795140925186,10.716297797181312,28.027240392628073,47.81117478742431,33.62622251156856
13,14,13,0.4337666666666658,32.207774883342864,175.93978825368004,10.18499269973279,13.807476615426639,50.48261015837489,53.9978576515356,41.354690749693106,97.07203099048049,83.26680833063178,64.46449569361812,71.99930687858648,46.88326959535868,20.930031069356573,34.32525095374467,19.255628583807948,15.906823612711037,12.189834093677604,10.58985114836099,10.04641491329113,26.790439768776366,48.55767208090714,36.14538195347737
14,14,14,0.4671333333333324,30.41249269347329,179.845529684083,12.132989888097956,15.365240549172386,52.092737773168444,55.40016265987927,38.47631799254366,96.20162260403943,80.84271018219012,63.33058466968896,69.99696200334029,46.66464133556019,21.665726334367264,34.99848100167026,18.3325376675416,16.665943334128656,15.365240549172386,11.784601546433128,12.499457500596463,31.66529233484448,51.664424335798856,58.71050170246683
15,14,15,0.5004999999999991,34.0713956482435,174.7000754717323,10.247764387660784,11.912784124685613,50.79374230584694,52.47037122668783,40.503466023931175,96.48619755928499,84.60593139569308,65.70416141153805,69.07360558648872,48.85694053678469,20.216665049704034,35.379163836982,20.216665049704034,15.162498787277968,13.582663703477744,11.912784124685668,11.79305461232741,30.324997574555994,48.85694053678469,44.093396679533306
16,14,16,0.5338666666666656,30.096417222073008,168.29864377358933,9.517322783246835,11.390738232615687,47.173258732986305,48.60462462895265,37.616454224316755,88.4262876524645,77.04949706576566,60.238571755823386,62.58552909695936,45.37450859529554,17.993339615375817,32.07508366219167,17.993339615375817,13.299424933103865,11.390738232615687,11.063663007151987,10.170148478255896,31.29276454847968,45.37450859529554,51.845982249569545
17,14,17,0.5672333333333321,28.033686303478454,175.59643231353286,9.415516514850795,11.268892144156764,51.174471757365346,51.29138868325179,38.69753449995811,87.13736181394347,75.89453756371759,60.36815381993483,61.91605519993311,46.43704139994986,17.026915179981643,30.9580275999665,17.02691517998153,12.38321103998669,10.945315624048337,11.268892144156764,10.835309659988297,30.9580275999665,44.88914001995147,37.438739683480584
18,14,18,0.6005999999999987,29.447204471072208,169.99488164352886,9.375587724841399,7.859308089415697,47.88078879113875,49.41902775340878,37.056257784844,83.43176859380813,75.57268830048754,59.34147940322396,58.57081083954586,46.24011382069409,16.954708400921163,29.28540541977293,18.49604552827759,10.789359891495224,10.898899348483516,11.221103663583031,10.018691327817066,30.826742547129356,41.61610243862464,30.98049284029665
19,14,19,0.6339666666666652,26.42427820023354,159.48233205877006,9.262336892949747,10.91576871106528,47.954898878863034,49.423244878762794,37.11361361762171,83.26091580856477,72.35763296266319,57.88960558093618,57.11774417319032,44.767961649257245,15.437228154916284,30.87445630983268,16.980950970408003,10.806059708441353,9.39009929923896,9.390099299238997,8.490475485204001,33.96190194081589,40.13679320278243,34.10195161514777
20,14,20,0.6673333333333318,29.771094652157245,169.17227806979673,7.978609177680417,12.615288780896705,48.531984949888155,50.095930865160675,38.7093812417124,88.74952731997784,76.14324255165265,60.24225883463225,54.765689849665705,46.942019871142065,13.300238963490187,36.771248899061334,21.12390894201394,8.606036976376004,12.615288780896648,12.51787196563788,10.953137969933152,37.5536158969137,45.377285875437394,37.68378479986034
21,14,21,0.7006999999999983,25.56048023038998,166.71686353741504,11.096355834721862,14.354539387603626,47.58222328029609,49.166565403230955,37.108432899423796,87.3584120461827,73.07381852297164,58.65216655495874,53.896585482935166,44.38542333888779,14.266743216071063,36.4594548855149,19.022324288094637,6.340774762698288,11.20901208170114,11.20901208170114,11.096355834721919,34.87426119484036,41.215035957538646,34.91026973431907
22,14,22,0.7340666666666649,29.531515160434736,167.11982676278242,7.881810180695103,10.930104134603914,47.918254666452185,51.009754967513345,38.23974684871508,86.41006032043002,75.48896816065066,59.51138079543239,52.55550511804415,44.82675436539057,11.593126128980316,36.325128537471755,20.867627032164705,5.410125526857428,10.930104134603914,10.930104134603946,10.82025105371497,34.00650331167566,40.18950391379849,29.40990236446555
23,14,23,0.7674333333333314,25.867605655685455,179.70361458362086,8.180055148702031,16.042408009806195,49.73146483039932,51.33570563138005,38.13236852537473,87.823942504025,72.04809574423155,57.75266883530253,51.33570563138005,48.12722402941881,12.83392640784507,36.89753842255436,17.646648810786928,6.416963203922478,12.933802827842714,12.833926407845013,13.636046808335323,40.10602002451566,41.710260825496334,33.72723140147562
24,14,24,0.800799999999998,26.89611444330225,168.1351351014478,9.557770451571761,14.228616039141698,48.70992127719933,51.852496843470135,36.98372202438038,87.5702237853708,73.36416528795957,58.92329186757979,50.28120906033473,48.70992127719933,13.355946156651385,36.92526290368335,19.641097289193226,5.49950724097414,11.110682466506605,9.557770451571724,9.427726698812762,37.71090679525105,40.85348236152197,34.60402388818273
25,14,25,0.8341666666666645,30.139783085927284,166.33174210480274,7.920559147847712,12.672894636556407,49.10746671665606,50.71632425360443,37.65390833696993,87.82896576358864,75.27448725576656,59.40419360885812,49.10746671665606,49.10746671665606,12.672894636556407,38.01868390966911,20.59345378440412,6.33644731827826,11.201362168464566,12.771517872118505,11.088782806986842,39.60279573923873,41.186907568808294,39.6027957392389
26,14,26,0.867533333333331,26.792818039038238,173.13048086590933,11.013299143211043,15.733284490301457,50.3465103689648,51.943671657817085,37.397590307640336,90.35344610652163,74.76207807742766,60.57314528766085,48.7731819199347,53.49316726702523,14.946620265786464,38.54654700123865,16.519948714816564,7.0799780206357354,11.013299143211043,11.125112153429383,10.226634918695993,40.90653967478397,34.61322587866334,34.64896489270514
27,14,27,0.9008999999999976,25.700945951516587,172.1450841914705,9.63785473181872,14.456782097728023,51.50218837284856,53.105463860966324,38.18153195404391,87.27448650203837,72.9236035818403,59.43343751288194,46.582964537123644,56.220819268942364,14.456782097728023,35.33880068333531,14.456782097728137,6.425236487879033,8.031545609848877,9.77079693919406,8.834700170833855,44.976655415153914,35.33880068333525,32.16631510018901
28,14,28,0.934266666666664,29.84947105506473,164.23712969363942,9.374356336130973,12.596412834380644,50.094121496114326,53.213178659948376,36.774357166783076,87.99475708901336,75.78812644371276,60.15211982350718,45.30938895796646,53.121352571409034,13.280338142852202,38.27862170586832,17.967516310917745,5.4683745294097434,9.503663911180219,9.374356336130973,8.593159974786772,42.18460351258949,35.93503262183549,28.123069008392804
29,14,29,0.9676333333333308,29.60932840790429,163.67089897911907,9.337390504008795,14.006085756013249,48.34348205937448,50.017782352145666,36.99120642679847,89.37161321905081,75.48927166814043,59.914922400723526,42.01825726803986,51.35564777204877,10.893622254676984,42.01825726803986,20.231012758685893,3.112463501336265,7.935256064329558,9.337390504008852,8.559274628674757,46.68695252004426,37.34956201603541,32.828744744438424
