,frame_seq,video_id,gap,time_seconds,m1,m3,m4,m5,m6,m7,m8,m9,m10,m11,m12,m13,m14,m15,m16,m17,e1,e2,e3,b1,b2,b3,label_measures,label_inf
0,0,12,0,0.0,13.038404810405298,69.0,11.0,16.0,18.0,20.0,15.0,55.00909015790027,39.01281840626232,32.5,31.0,31.0,16.0,24.0,8.0,5.0,9.055385138137416,10.0,9.5,32.0,32.0,33.0,{},{}
1,1,12,0,0.0333666666666666,13.038404810405298,69.0,11.0,16.0,18.0,20.0,15.0,55.00909015790027,39.01281840626232,32.5,31.0,31.0,16.0,24.0,8.0,5.0,9.055385138137416,10.0,9.5,32.0,32.0,33.0,{},{}
2,2,12,0,0.0667333333333332,15.033296378372908,70.0,11.0,16.0,18.0,21.0,15.0,57.0087712549569,41.01219330881976,33.5,32.0,32.0,17.0,25.0,8.0,6.0,8.06225774829855,9.0,9.0,32.0,32.0,32.0,{},{}
3,3,12,0,0.1000999999999998,16.0,70.00714249274856,11.04536101718726,16.0,18.0,21.02379604162864,15.0,58.00862004909271,42.01190307520001,34.0,32.0,33.0,17.5,25.5,8.5,6.5,8.06225774829855,9.0,8.5,31.0,31.0,32.01562118716424,{},{}
4,4,12,0,0.1334666666666664,18.027756377319943,69.02897942168927,11.0,15.0,18.0,20.024984394500787,14.0356688476182,58.034472514187634,43.04648650006177,34.0,32.0,34.0,19.0,25.0,9.0,8.0,8.0,8.0,8.5,31.0,31.0,31.0,{},{}
5,5,12,0,0.166833333333333,19.026297590440446,69.00724599634447,11.0,16.0,18.027756377319943,21.0,14.0356688476182,60.03332407921454,44.04543109109048,34.5,33.0,34.0,19.5,26.5,9.5,7.5,6.0,7.0,6.5,31.0,30.0,31.0,{},{}
6,6,12,0,0.2001999999999996,19.0,69.00724599634447,11.04536101718726,15.033296378372908,18.027756377319943,20.024984394500787,14.0,59.033888572581766,44.01136216933077,34.5,32.0,33.0,18.5,26.5,10.5,7.5,3.0,4.123105625617661,4.0,32.0,30.0,32.0624390837628,{},{}
7,7,12,0,0.2335666666666662,19.0,70.02856560004639,11.04536101718726,16.0312195418814,18.027756377319943,20.0,14.0,60.03332407921454,44.01136216933077,34.5,31.0,33.0,18.0,28.0,11.0,7.0,3.0,3.1622776601683795,3.0,33.0,31.0,31.064449134018133,{},{}
8,8,12,0,0.2669333333333328,20.0,69.02897942168927,11.04536101718726,15.033296378372908,18.0,20.024984394500787,13.0,59.033888572581766,44.01136216933077,34.0,30.0,32.0,18.0,28.0,12.0,7.0,3.1622776601683795,4.123105625617661,4.0,31.0,29.0,32.0624390837628,{},{}
9,9,12,0,0.3002999999999994,20.024984394500787,69.0,10.0,16.0,18.0,20.0,14.0,60.00833275470999,44.01136216933077,34.0,32.0,32.0,18.0,28.0,11.0,8.0,5.0990195135927845,5.0990195135927845,5.0,30.0,29.0,31.016124838541646,{},{}
10,10,12,0,0.333666666666666,20.0,68.00735254367721,10.0,15.033296378372908,18.027756377319943,20.0,14.0356688476182,59.033888572581766,44.01136216933077,34.0,31.0,32.0,17.5,27.5,11.5,7.5,7.071067811865476,7.0,6.5,30.0,30.0,31.016124838541646,{},{}
11,11,12,0,0.3670333333333326,21.0,68.00735254367721,10.0,15.033296378372908,18.027756377319943,20.0,14.0356688476182,60.03332407921454,45.0111097397076,34.5,31.0,32.0,17.5,28.5,12.5,7.5,8.06225774829855,8.0,8.0,30.0,29.0,31.016124838541646,{},{}
12,12,12,0,0.4003999999999992,21.0,67.02984409947557,10.0,14.0356688476182,17.0,20.024984394500787,13.038404810405298,58.034472514187634,44.01136216933077,33.5,29.0,31.0,17.0,28.0,13.0,7.0,7.071067811865476,8.0,7.5,30.0,28.0,31.0,{},{}
13,13,12,0,0.4337666666666658,20.024984394500787,66.12110101926616,10.04987562112089,15.033296378372908,17.029386365926403,20.024984394500787,12.041594578792296,57.14017850864661,42.1070065428546,32.0,27.0,31.0,17.0,28.0,12.0,6.0,8.06225774829855,9.055385138137416,8.5,30.0,28.0,30.0,{},{}
14,14,12,0,0.4671333333333324,17.029386365926403,66.18912297349165,10.0,15.132745950421556,18.027756377319943,19.026297590440446,12.16552506059644,54.230987451824994,39.11521443121589,30.5,26.0,31.0,16.5,25.5,8.5,5.5,8.06225774829855,8.0,8.0,30.0,26.0,30.0,{},{}
15,15,12,0,0.5004999999999991,13.038404810405298,65.27633568147036,9.055385138137416,15.132745950421556,18.110770276274835,19.235384061671343,13.038404810405298,50.24937810560445,35.12833614050059,28.5,25.0,31.0,15.0,22.0,6.0,5.0,7.071067811865476,8.06225774829855,8.0,31.0,26.0,29.068883707497267,{},{}
16,16,12,0,0.5338666666666656,10.198039027185567,65.27633568147036,10.04987562112089,15.033296378372908,17.26267650163207,19.235384061671343,12.041594578792296,47.265209192385896,32.2490309931942,27.0,23.0,29.0,14.0,21.0,5.0,3.0,7.280109889280518,8.06225774829855,8.5,32.0,25.0,30.066592756745816,{},{}
17,17,12,0,0.5672333333333321,10.04987562112089,65.27633568147036,9.055385138137416,15.033296378372908,17.11724276862369,18.110770276274835,12.041594578792296,46.17358552246078,31.144823004794876,26.0,23.0,29.0,14.0,20.0,4.0,4.0,8.06225774829855,8.0,8.0,31.0,25.0,30.066592756745816,{},{}
18,18,12,0,0.6005999999999987,9.055385138137416,63.198101237299845,9.055385138137416,15.033296378372908,16.1245154965971,18.110770276274835,12.041594578792296,45.17742799230607,30.14962686336267,25.5,23.0,28.0,13.5,19.5,3.5,3.5,9.055385138137416,9.055385138137416,9.0,30.0,25.0,28.0178514522438,{},{}
19,19,12,0,0.6339666666666652,10.0,62.03224967708329,8.06225774829855,14.0356688476182,16.0312195418814,17.029386365926403,12.041594578792296,44.10215414239989,30.066592756745816,25.0,24.0,26.0,13.0,19.0,4.0,5.0,8.06225774829855,7.0,7.0,29.0,26.0,29.017236257093817,{},{}
20,20,12,0,0.6673333333333318,11.04536101718726,60.00833275470999,8.0,14.0,16.0312195418814,17.0,13.0,46.01086828130936,32.01562118716424,26.5,26.0,27.0,13.5,19.5,5.5,5.5,8.06225774829855,8.0,7.5,28.0,28.0,27.0,{},{}
21,21,12,0,0.7006999999999983,10.0,58.00862004909271,8.0,13.038404810405298,15.033296378372908,17.0,13.0,44.01136216933077,31.0,26.0,26.0,25.0,12.5,18.5,5.5,5.5,8.0,7.0,7.0,26.0,29.0,28.0178514522438,{},{}
22,22,12,0,0.7340666666666649,10.0,58.077534382926416,8.0,13.0,14.0,16.0312195418814,14.0,45.0,32.0,27.0,28.0,25.0,12.5,18.5,5.5,4.5,7.0,8.0,7.5,24.0,29.0,27.018512172212592,{},{}
23,23,12,0,0.7674333333333314,8.0,56.1426753904728,8.06225774829855,12.041594578792296,14.0356688476182,16.0312195418814,15.033296378372908,43.10452412450461,31.064449134018133,27.0,27.0,23.0,10.0,18.0,6.0,3.0,7.0,7.0,7.0,23.0,29.0,28.16025568065745,{},{}
24,24,12,0,0.800799999999998,7.0,55.22680508593631,9.055385138137416,12.041594578792296,14.0356688476182,16.1245154965971,15.033296378372908,43.10452412450461,31.064449134018133,27.5,28.0,23.0,10.5,17.5,5.5,2.5,7.0,7.0,7.0,22.0,29.0,27.16615541441225,{},{}
25,25,12,0,0.8341666666666645,7.0,54.147945482723536,8.06225774829855,11.0,14.0356688476182,15.132745950421556,15.033296378372908,41.04875150354759,30.066592756745816,26.5,27.0,23.0,10.0,16.0,5.0,2.0,7.071067811865476,7.071067811865476,7.0,23.0,30.0,27.16615541441225,{},{}
26,26,12,0,0.867533333333331,3.1622776601683795,55.22680508593631,8.06225774829855,11.0,14.142135623730953,14.142135623730953,16.0312195418814,38.11823710509184,27.16615541441225,25.5,27.0,22.0,8.5,13.5,2.5,1.5,7.071067811865476,6.082762530298219,6.5,22.0,30.0,25.179356624028344,{},{}
27,27,12,0,0.9008999999999976,1.4142135623730951,55.326304774492215,8.0,10.04987562112089,14.0356688476182,14.0356688476182,16.0312195418814,35.12833614050059,25.079872407968907,24.5,27.0,21.0,8.0,11.0,2.0,1.0,8.0,7.071067811865476,7.0,22.0,30.0,26.1725046566048,{},{}
28,28,12,0,0.934266666666664,1.4142135623730951,55.326304774492215,8.0,10.04987562112089,14.0356688476182,14.0356688476182,16.0312195418814,35.12833614050059,25.079872407968907,24.5,27.0,21.0,8.0,11.0,2.0,1.0,8.0,7.071067811865476,7.0,22.0,30.0,26.1725046566048,{},{}
29,29,12,0,0.9676333333333308,2.23606797749979,56.43580423808985,8.06225774829855,9.0,14.0356688476182,15.033296378372908,15.033296378372908,34.132096331752024,25.179356624028344,24.0,26.0,19.0,7.5,11.5,2.5,0.5,7.0,8.06225774829855,8.0,21.0,30.0,25.179356624028344,{},{}
30,30,12,0,1.0009999999999972,3.1622776601683795,56.43580423808985,8.06225774829855,10.0,14.142135623730953,15.132745950421556,16.0312195418814,37.12142238654117,27.16615541441225,25.5,27.0,20.0,7.5,13.5,3.5,0.5,7.071067811865476,7.071067811865476,6.5,22.0,29.0,25.179356624028344,{},{}
31,31,12,0,1.0343666666666638,9.0,56.22277118748239,7.071067811865476,10.04987562112089,14.0356688476182,16.1245154965971,15.033296378372908,41.10960958218893,31.064449134018133,26.5,27.0,22.0,9.5,16.5,6.5,3.5,7.071067811865476,7.0,7.0,21.0,27.0,25.079872407968907,{},{}
32,32,12,0,1.0677333333333303,10.04987562112089,56.22277118748239,8.0,11.0,16.0312195418814,17.029386365926403,12.041594578792296,41.04875150354759,30.066592756745816,25.0,26.0,21.0,11.5,17.5,6.5,4.5,6.082762530298219,6.082762530298219,6.5,22.0,27.0,26.019223662515376,{},{}
33,33,12,0,1.1010999999999969,11.0,58.137767414994535,7.0,12.041594578792296,15.033296378372908,17.029386365926403,12.041594578792296,42.04759208325728,30.01666203960727,24.5,26.0,22.0,12.0,18.0,6.0,5.0,6.0,7.071067811865476,6.5,22.0,26.0,25.019992006393608,{},{}
34,34,12,0,1.1344666666666634,11.04536101718726,57.21887800367987,8.0,13.038404810405298,16.0312195418814,17.11724276862369,11.04536101718726,43.10452412450461,30.066592756745816,24.5,27.0,22.0,13.5,18.5,5.5,5.5,7.0,6.0,6.5,22.0,26.0,26.019223662515376,{},{}
35,35,12,0,1.16783333333333,11.04536101718726,56.22277118748239,8.0,13.038404810405298,16.0312195418814,17.11724276862369,11.180339887498947,43.18564576337837,30.14962686336267,24.5,27.0,22.0,13.5,18.5,5.5,5.5,7.0,6.082762530298219,6.5,21.0,27.0,25.079872407968907,{},{}
36,36,12,0,1.2011999999999965,9.0,54.3323108288245,8.06225774829855,12.041594578792296,14.0356688476182,16.0312195418814,12.16552506059644,41.19465984809196,29.154759474226505,24.5,27.0,21.0,12.0,17.0,6.0,4.0,7.0,7.0,6.5,19.0,27.0,25.079872407968907,{},{}
37,37,12,0,1.234566666666663,4.123105625617661,53.46026561849464,8.0,9.055385138137416,13.152946437965904,15.132745950421556,14.142135623730953,35.22782990761707,26.1725046566048,24.0,27.0,20.0,9.5,11.5,2.5,2.5,6.082762530298219,7.071067811865476,6.5,19.0,27.0,23.08679276123039,{},{}
38,38,12,0,1.2679333333333296,1.4142135623730951,53.46026561849464,8.0,9.055385138137416,13.152946437965904,14.142135623730953,14.142135623730953,32.2490309931942,23.194827009486403,22.5,25.0,18.0,7.5,10.5,1.5,1.5,7.071067811865476,6.082762530298219,6.0,20.0,28.0,24.186773244895647,{},{}
39,39,12,0,1.301299999999996,2.0,53.46026561849464,8.06225774829855,9.055385138137416,14.142135623730953,15.132745950421556,14.142135623730953,33.24154027718932,24.186773244895647,23.0,26.0,19.0,8.5,10.5,1.5,1.5,7.0,7.0,7.0,19.0,28.0,23.194827009486403,{},{}
40,40,12,0,1.334666666666663,7.071067811865476,56.56854249492381,7.071067811865476,10.04987562112089,15.132745950421556,16.1245154965971,13.152946437965904,37.33630940518894,27.29468812791236,23.5,27.0,19.0,10.0,14.0,5.0,4.0,6.082762530298219,6.082762530298219,5.5,17.0,28.0,25.317977802344327,{},{}
41,41,12,0,1.3680333333333292,7.071067811865476,57.706152185014034,9.0,12.041594578792296,15.132745950421556,16.278820596099706,10.44030650891055,38.3275357934736,26.30589287593181,22.5,27.0,18.0,12.5,15.5,3.5,4.5,7.071067811865476,7.071067811865476,7.0,17.0,29.0,24.33105012119288,{},{}
42,42,12,0,1.4013999999999958,11.04536101718726,59.682493245507096,8.06225774829855,11.180339887498947,15.297058540778355,17.26267650163207,10.198039027185567,40.44749683231337,29.27456233660889,23.5,27.0,18.0,12.5,17.5,7.5,5.5,7.071067811865476,6.082762530298219,6.0,18.0,29.0,25.317977802344327,{},{}
43,43,12,0,1.4347666666666623,11.04536101718726,59.682493245507096,8.06225774829855,11.04536101718726,16.278820596099706,17.26267650163207,10.198039027185567,40.311288741492746,29.27456233660889,23.5,27.0,18.0,12.5,17.5,7.5,6.5,6.082762530298219,7.071067811865476,7.0,18.0,29.0,24.33105012119288,{},{}
44,44,12,0,1.4681333333333288,11.180339887498947,60.67124524847005,9.055385138137416,12.041594578792296,16.1245154965971,17.26267650163207,9.219544457292889,41.43669871020132,29.42787793912432,23.5,27.0,18.0,13.5,18.5,7.5,5.5,6.082762530298219,5.0,5.5,17.0,28.0,25.317977802344327,{},{}
45,45,12,0,1.5014999999999954,17.11724276862369,58.30951894845301,8.0,13.038404810405298,16.1245154965971,18.110770276274835,10.44030650891055,48.373546489791295,35.35533905932738,26.5,28.0,22.0,15.0,23.0,10.0,8.0,6.0,5.0,5.0,18.0,28.0,25.179356624028344,{},{}
46,46,12,0,1.534866666666662,22.09072203437452,59.4138031100518,8.0,12.0,16.1245154965971,18.027756377319943,10.44030650891055,52.23983154643591,40.311288741492746,29.0,29.0,22.0,15.5,26.5,14.5,8.5,6.082762530298219,6.0,6.0,18.0,27.0,25.179356624028344,{},{}
47,47,12,0,1.5682333333333285,24.020824298928627,59.13543776789008,7.0,11.04536101718726,16.0312195418814,18.027756377319943,12.36931687685298,54.230987451824994,43.18564576337837,31.0,30.0,26.0,16.0,26.0,15.0,10.0,6.0,6.082762530298219,6.0,20.0,28.0,25.079872407968907,{},{}
48,48,12,0,1.601599999999995,21.02379604162864,60.20797289396148,8.06225774829855,12.041594578792296,16.1245154965971,18.027756377319943,10.198039027185567,51.24451190127583,39.20459156782532,28.5,29.0,24.0,16.5,24.5,12.5,9.5,6.0,6.0,6.0,19.0,26.0,26.0768096208106,{},{}
49,49,12,0,1.6349666666666616,17.029386365926403,59.21148537234985,8.0,12.041594578792296,17.11724276862369,18.027756377319943,10.198039027185567,47.16990566028302,35.12833614050059,26.5,28.0,23.0,15.5,21.5,9.5,8.5,6.082762530298219,6.082762530298219,6.5,20.0,27.0,25.079872407968907,{},{}
50,50,12,0,1.668333333333328,13.038404810405298,60.20797289396148,8.06225774829855,12.0,16.1245154965971,18.110770276274835,10.04987562112089,43.10452412450461,31.144823004794876,24.5,26.0,21.0,13.5,19.5,7.5,6.5,6.082762530298219,7.071067811865476,6.5,20.0,27.0,24.08318915758459,{},{}
51,51,12,0,1.7016999999999949,14.0356688476182,62.20128616033595,9.0,10.0,17.029386365926403,19.026297590440446,10.198039027185567,43.10452412450461,33.13608305156178,26.0,26.0,21.0,13.5,19.5,9.5,5.5,7.0,6.082762530298219,6.0,21.0,26.0,25.079872407968907,{},{}
52,52,12,0,1.7350666666666612,14.0356688476182,62.12889826803627,9.0,10.04987562112089,16.0312195418814,18.027756377319943,10.04987562112089,43.10452412450461,33.06055050963308,26.0,25.0,21.0,13.0,20.0,10.0,5.0,6.0,6.082762530298219,6.5,20.0,25.0,26.019223662515376,{},{}
53,53,12,0,1.7684333333333278,14.0356688476182,62.12889826803627,9.0,10.0,16.0312195418814,18.027756377319943,9.055385138137416,42.04759208325728,32.0624390837628,25.0,24.0,20.0,13.0,20.0,10.0,5.0,5.0990195135927845,6.0,6.0,21.0,26.0,26.0768096208106,{},{}
54,54,12,0,1.8017999999999943,14.0,63.07138812488592,8.0,11.04536101718726,17.029386365926403,18.0,10.04987562112089,43.04648650006177,32.01562118716424,25.0,24.0,21.0,12.5,20.5,9.5,4.5,6.0,6.0,6.0,22.0,25.0,26.019223662515376,{},{}
55,55,12,0,1.8351666666666608,14.0356688476182,62.07253821135398,8.0,10.0,16.0,18.0,10.04987562112089,42.04759208325728,32.0624390837628,25.0,24.0,21.0,12.5,19.5,9.5,4.5,6.0,6.0,6.0,22.0,25.0,27.0,{},{}
56,56,12,0,1.868533333333328,14.0356688476182,63.07138812488592,8.0,10.0,16.0312195418814,18.027756377319943,10.04987562112089,42.04759208325728,32.0624390837628,25.0,24.0,21.0,12.5,19.5,9.5,4.5,5.0,6.0,6.0,22.0,25.0,27.018512172212592,{},{}
57,57,12,0,1.901899999999994,12.0,62.07253821135398,8.0,11.04536101718726,16.0312195418814,17.0,10.04987562112089,41.04875150354759,30.01666203960727,24.0,24.0,21.0,12.5,18.5,7.5,4.5,6.0,6.0,6.0,22.0,24.0,27.018512172212592,{},{}
58,58,12,0,1.9352666666666605,10.0,62.03224967708329,8.0,13.038404810405298,16.0312195418814,18.027756377319943,11.04536101718726,42.04759208325728,29.017236257093817,24.0,23.0,21.0,11.0,20.0,7.0,4.0,6.0,6.0,6.0,23.0,25.0,26.0,{},{}
59,59,12,0,1.968633333333327,11.04536101718726,62.03224967708329,9.0,13.0,16.0,17.0,10.0,43.01162633521314,30.01666203960727,24.5,23.0,21.0,12.0,21.0,8.0,3.0,3.0,4.0,4.0,23.0,26.0,26.019223662515376,{},{}
60,60,12,0,2.0019999999999936,12.0,62.03224967708329,8.0,12.0,17.029386365926403,18.0,11.04536101718726,43.01162633521314,31.016124838541646,25.0,23.0,21.0,11.0,21.0,8.0,4.0,1.0,1.0,1.5,24.0,27.0,27.018512172212592,{},{}
61,61,12,0,2.0353666666666603,13.0,60.00833275470999,8.0,13.0,17.029386365926403,18.0,10.04987562112089,44.01136216933077,31.016124838541646,24.5,22.0,21.0,11.5,22.5,9.5,4.5,1.0,2.0,2.0,24.0,26.0,27.0,{},{}
62,62,12,0,2.068733333333327,13.038404810405298,62.00806399170998,9.0,13.0,17.0,19.0,10.0,45.0111097397076,32.01562118716424,25.5,23.0,22.0,12.5,22.5,8.5,3.5,1.0,2.0,2.0,26.0,26.0,27.0,{},{}
63,63,12,0,2.102099999999994,12.0,62.0,8.0,13.0,17.0,19.0,11.0,44.0,31.0,25.0,22.0,22.0,11.0,22.0,8.0,4.0,3.0,4.0,4.0,26.0,27.0,27.0,{},{}
64,64,12,0,2.1354666666666606,13.0,61.0,8.0,13.0,16.0,18.0,10.0,44.0,31.0,24.5,22.0,22.0,12.0,22.0,8.0,4.0,5.0990195135927845,5.0,5.0,26.0,26.0,27.0,{},{}
65,65,12,0,2.1688333333333274,12.041594578792296,60.0,7.071067811865476,13.0,16.0,17.0,11.0,43.0,30.0,24.0,21.0,21.0,10.0,22.0,8.0,3.0,6.082762530298219,6.0,6.0,26.0,27.0,28.0,{},{}
66,66,12,0,2.202199999999994,11.0,57.0087712549569,8.0,12.041594578792296,15.0,17.0,11.0,42.01190307520001,30.0,24.5,21.0,22.0,10.5,20.5,7.5,3.5,6.082762530298219,7.0,7.0,26.0,27.0,26.019223662515376,{},{}
67,67,12,0,2.235566666666661,10.0,55.03635162326805,7.0,13.038404810405298,14.0356688476182,16.0312195418814,13.0,43.01162633521314,30.0,25.0,22.0,24.0,10.0,20.0,6.0,3.0,7.071067811865476,8.0,8.0,27.0,27.0,26.019223662515376,{},{}
68,68,12,0,2.268933333333328,10.0,52.03844732503075,7.0,13.038404810405298,14.0356688476182,16.0312195418814,13.038404810405298,43.04648650006177,30.01666203960727,25.0,22.0,24.0,10.0,20.0,6.0,3.0,8.06225774829855,8.0,8.0,27.0,26.0,26.0,{},{}
69,69,12,0,2.3022999999999945,9.0,52.03844732503075,8.06225774829855,14.0,14.0356688476182,16.0312195418814,13.0,44.01136216933077,30.01666203960727,25.5,22.0,24.0,10.0,21.0,6.0,2.0,7.071067811865476,8.0,7.5,26.0,26.0,25.019992006393608,{},{}
70,70,12,0,2.335666666666661,9.055385138137416,51.0881590977792,8.0,14.0,14.0356688476182,16.0,14.0356688476182,45.044422518220834,31.064449134018133,26.5,22.0,25.0,9.5,21.5,6.5,1.5,8.06225774829855,8.0,8.0,28.0,26.0,25.0,{},{}
71,71,12,0,2.369033333333328,7.071067811865476,52.03844732503075,7.0,13.0,13.0,14.0,16.0,43.01162633521314,30.01666203960727,26.5,22.0,24.0,7.0,20.0,6.0,0.0,8.06225774829855,8.0,7.5,28.0,26.0,25.019992006393608,{},{}
72,72,12,0,2.4023999999999948,4.0,51.0881590977792,7.071067811865476,10.04987562112089,13.038404810405298,13.038404810405298,16.0,37.05401462729781,27.018512172212592,25.0,20.0,23.0,5.5,15.5,3.5,1.5,8.06225774829855,8.0,8.0,28.0,25.0,25.0,{},{}
73,73,12,0,2.435766666666661,1.0,50.08991914547278,7.0,9.055385138137416,13.038404810405298,13.038404810405298,16.0312195418814,33.06055050963308,24.020824298928627,23.5,19.0,22.0,4.5,12.5,2.5,2.5,8.06225774829855,9.0,8.5,28.0,25.0,24.020824298928627,{},{}
74,74,12,0,2.4691333333333283,1.0,52.08646657242167,8.06225774829855,9.055385138137416,12.041594578792296,13.038404810405298,15.0,33.06055050963308,24.020824298928627,23.5,19.0,22.0,5.5,12.5,2.5,2.5,8.246211251235321,9.055385138137416,8.5,28.0,24.0,25.019992006393608,{},{}
75,75,12,0,2.502499999999995,1.4142135623730951,53.03772242470448,7.071067811865476,10.0,13.038404810405298,14.0356688476182,16.0312195418814,34.132096331752024,24.186773244895647,23.5,20.0,22.0,5.0,13.0,2.0,2.0,7.280109889280518,8.0,7.5,29.0,25.0,25.079872407968907,{},{}
76,76,12,0,2.535866666666662,5.0,56.1426753904728,8.06225774829855,13.038404810405298,15.033296378372908,16.0312195418814,12.041594578792296,38.11823710509184,25.079872407968907,22.5,18.0,22.0,8.0,18.0,4.0,0.0,7.071067811865476,8.06225774829855,8.0,28.0,23.0,25.019992006393608,{},{}
77,77,12,0,2.5692333333333286,6.082762530298219,57.14017850864661,7.0,13.038404810405298,15.033296378372908,17.029386365926403,12.041594578792296,38.11823710509184,25.079872407968907,22.0,17.0,21.0,7.0,19.0,5.0,0.0,7.071067811865476,7.0,7.5,28.0,24.0,26.0768096208106,{},{}
78,78,12,0,2.602599999999996,6.082762530298219,57.14017850864661,8.0,13.038404810405298,16.0312195418814,17.029386365926403,11.180339887498947,38.2099463490856,25.179356624028344,22.0,16.0,20.0,7.0,20.0,6.0,1.0,8.246211251235321,7.071067811865476,7.5,28.0,23.0,26.0768096208106,{},{}
79,79,12,0,2.635966666666662,6.0,57.14017850864661,8.06225774829855,13.038404810405298,16.0312195418814,17.029386365926403,11.04536101718726,38.11823710509184,25.079872407968907,22.0,17.0,21.0,8.0,19.0,5.0,0.0,7.280109889280518,8.0,8.0,29.0,24.0,26.019223662515376,{},{}
80,80,12,0,2.669333333333329,6.0,57.14017850864661,6.0,13.038404810405298,15.033296378372908,17.0,12.041594578792296,37.05401462729781,24.020824298928627,21.0,15.0,19.0,5.0,20.0,6.0,1.0,8.246211251235321,8.0,8.0,28.0,23.0,26.019223662515376,{},{}
81,81,12,0,2.702699999999996,7.0,57.14017850864661,6.082762530298219,12.041594578792296,15.033296378372908,17.0,12.0,37.05401462729781,25.019992006393608,21.5,14.0,18.0,4.0,21.0,8.0,2.0,8.06225774829855,8.0,8.0,28.0,23.0,25.019992006393608,{},{}
82,82,12,0,2.7360666666666624,7.0,57.14017850864661,6.082762530298219,12.041594578792296,15.033296378372908,17.0,12.0,37.05401462729781,25.019992006393608,21.5,14.0,18.0,4.0,21.0,8.0,2.0,8.06225774829855,8.0,8.0,28.0,23.0,25.019992006393608,{},{}
83,83,12,0,2.769433333333329,9.0,58.077534382926416,5.0990195135927845,10.04987562112089,15.033296378372908,17.029386365926403,12.041594578792296,36.12478373637688,26.0768096208106,21.5,14.0,17.0,3.5,20.5,9.5,1.5,8.246211251235321,8.0,8.0,27.0,23.0,26.0768096208106,{},{}
84,84,12,0,2.802799999999996,6.082762530298219,57.07889277132134,5.0,12.041594578792296,15.033296378372908,16.0,12.041594578792296,35.12833614050059,23.08679276123039,20.0,13.0,16.0,2.5,20.5,7.5,2.5,7.280109889280518,8.06225774829855,8.0,28.0,23.0,26.019223662515376,{},{}
85,85,12,0,2.8361666666666627,7.071067811865476,57.14017850864661,5.0,11.04536101718726,15.033296378372908,16.0312195418814,12.16552506059644,35.22782990761707,24.186773244895647,20.5,13.0,17.0,3.0,20.0,8.0,2.0,8.06225774829855,8.0,8.0,28.0,23.0,26.019223662515376,{},{}
86,86,12,0,2.869533333333329,6.0,57.14017850864661,5.0990195135927845,11.04536101718726,15.033296378372908,16.0312195418814,12.041594578792296,34.132096331752024,23.08679276123039,20.0,13.0,17.0,3.0,19.0,7.0,2.0,8.246211251235321,8.0,8.0,28.0,23.0,26.0768096208106,{},{}
87,87,12,0,2.9028999999999963,5.0,57.14017850864661,6.082762530298219,12.041594578792296,15.033296378372908,17.029386365926403,12.041594578792296,35.12833614050059,23.08679276123039,20.5,13.0,17.0,3.0,20.0,7.0,2.0,8.246211251235321,9.0,9.0,27.0,22.0,26.0768096208106,{},{}
88,88,12,0,2.936266666666663,7.071067811865476,58.137767414994535,6.082762530298219,11.04536101718726,15.033296378372908,16.1245154965971,12.041594578792296,36.22154055254967,25.179356624028344,21.5,13.0,17.0,3.0,21.0,8.0,2.0,8.246211251235321,8.0,8.0,28.0,22.0,26.0768096208106,{},{}
89,89,12,0,2.96963333333333,5.0990195135927845,57.14017850864661,7.071067811865476,13.038404810405298,14.0356688476182,16.0,11.04536101718726,36.22154055254967,23.194827009486403,20.5,13.0,17.0,4.0,21.0,7.0,2.0,8.246211251235321,8.0,8.0,28.0,23.0,27.073972741361768,{},{}
90,90,12,0,3.002999999999997,8.06225774829855,57.14017850864661,6.0,11.04536101718726,15.033296378372908,17.029386365926403,11.04536101718726,36.12478373637688,25.079872407968907,21.0,13.0,17.0,4.0,21.0,8.0,2.0,8.246211251235321,8.0,8.0,29.0,23.0,26.0768096208106,{},{}
91,91,12,0,3.036366666666664,6.082762530298219,56.22277118748239,6.082762530298219,12.041594578792296,15.132745950421556,16.0312195418814,12.041594578792296,36.22154055254967,24.186773244895647,21.0,13.0,18.0,3.5,20.5,7.5,2.5,8.246211251235321,9.055385138137416,8.5,29.0,23.0,26.1725046566048,{},{}
92,92,12,0,3.06973333333333,7.071067811865476,57.14017850864661,5.0990195135927845,12.041594578792296,14.0356688476182,16.0312195418814,12.041594578792296,36.22154055254967,24.186773244895647,20.5,14.0,18.0,4.0,20.0,7.0,1.0,8.246211251235321,8.0,8.0,29.0,22.0,27.16615541441225,{},{}
93,93,12,0,3.103099999999997,8.06225774829855,57.14017850864661,5.0,12.041594578792296,15.033296378372908,17.029386365926403,12.16552506059644,37.21558813185679,25.179356624028344,21.0,13.0,17.0,3.0,22.0,9.0,2.0,8.246211251235321,9.0,9.0,29.0,23.0,26.0768096208106,{},{}
94,94,12,0,3.136466666666664,7.0,58.215118311311535,6.082762530298219,12.041594578792296,15.033296378372908,17.029386365926403,11.180339887498947,36.22154055254967,24.186773244895647,20.5,13.0,18.0,4.5,20.5,7.5,1.5,7.280109889280518,8.0,8.0,29.0,22.0,26.0768096208106,{},{}
95,95,12,0,3.1698333333333304,7.0,57.14017850864661,6.082762530298219,12.041594578792296,15.132745950421556,17.029386365926403,12.041594578792296,37.12142238654117,25.079872407968907,21.5,14.0,18.0,4.0,21.0,8.0,2.0,3.1622776601683795,4.123105625617661,4.0,29.0,23.0,26.1725046566048,{},{}
96,96,12,0,3.203199999999997,9.055385138137416,58.137767414994535,5.0990195135927845,11.04536101718726,15.132745950421556,16.0312195418814,12.041594578792296,37.21558813185679,26.1725046566048,21.5,14.0,18.0,4.0,21.0,9.0,2.0,2.8284271247461903,3.1622776601683795,3.0,29.0,23.0,27.16615541441225,{},{}
97,97,12,0,3.236566666666664,7.071067811865476,58.137767414994535,6.082762530298219,12.041594578792296,16.1245154965971,17.029386365926403,12.041594578792296,37.21558813185679,25.179356624028344,21.5,14.0,18.0,4.0,21.0,8.0,2.0,3.605551275463989,3.1622776601683795,2.5,30.0,24.0,27.16615541441225,{},{}
98,98,12,0,3.2699333333333307,7.071067811865476,57.21887800367987,6.082762530298219,12.041594578792296,15.033296378372908,17.11724276862369,12.041594578792296,37.21558813185679,25.179356624028344,21.5,14.0,19.0,4.5,20.5,6.5,0.5,3.605551275463989,4.0,3.5,29.0,23.0,27.16615541441225,{},{}
99,99,12,0,3.303299999999997,7.071067811865476,58.215118311311535,6.082762530298219,12.041594578792296,16.0312195418814,17.029386365926403,12.041594578792296,37.21558813185679,25.179356624028344,21.5,14.0,19.0,4.5,20.5,7.5,1.5,5.0990195135927845,5.0990195135927845,5.0,29.0,23.0,27.073972741361768,{},{}
100,100,12,0,3.336666666666664,9.0,58.137767414994535,5.0990195135927845,12.16552506059644,16.0312195418814,17.029386365926403,13.152946437965904,39.319206502675,27.16615541441225,22.5,16.0,20.0,5.0,21.0,8.0,0.0,6.082762530298219,7.071067811865476,6.5,29.0,22.0,27.073972741361768,{},{}
101,101,12,0,3.370033333333331,10.04987562112089,57.14017850864661,6.0,11.04536101718726,15.033296378372908,17.029386365926403,12.16552506059644,39.20459156782532,28.16025568065745,23.0,16.0,20.0,6.0,21.0,9.0,0.0,7.280109889280518,6.082762530298219,6.5,28.0,22.0,26.1725046566048,{},{}
102,102,12,0,3.4033999999999978,11.0,58.077534382926416,6.082762530298219,11.180339887498947,15.132745950421556,17.029386365926403,13.038404810405298,41.19465984809196,30.066592756745816,24.5,18.0,21.0,6.5,21.5,9.5,0.5,6.324555320336759,7.071067811865476,6.5,29.0,23.0,26.0768096208106,{},{}
103,103,12,0,3.4367666666666645,12.041594578792296,58.137767414994535,6.082762530298219,11.04536101718726,15.0,17.029386365926403,13.038404810405298,42.190046219457976,31.144823004794876,25.0,17.0,21.0,6.0,23.0,11.0,1.0,6.324555320336759,7.0,7.0,29.0,23.0,26.1725046566048,{},{}
104,104,12,0,3.470133333333332,14.0356688476182,58.034472514187634,6.082762530298219,10.04987562112089,16.0312195418814,18.027756377319943,12.041594578792296,42.190046219457976,32.14031735997639,25.0,19.0,21.0,8.0,22.0,10.0,2.0,6.324555320336759,7.0,7.0,29.0,22.0,27.073972741361768,{},{}
105,105,12,0,3.503499999999998,13.038404810405298,58.077534382926416,6.082762530298219,11.04536101718726,16.0312195418814,17.029386365926403,12.041594578792296,42.190046219457976,31.144823004794876,24.5,18.0,21.0,7.5,22.5,10.5,1.5,7.280109889280518,8.0,7.5,29.0,22.0,27.073972741361768,{},{}
106,106,12,0,3.536866666666665,14.0356688476182,58.034472514187634,6.082762530298219,11.04536101718726,16.0312195418814,18.0,12.041594578792296,43.18564576337837,32.14031735997639,25.0,19.0,21.0,8.0,23.0,11.0,2.0,7.071067811865476,8.06225774829855,7.5,28.0,22.0,26.0768096208106,{},{}
107,107,12,0,3.570233333333332,15.0,58.077534382926416,5.0990195135927845,10.04987562112089,16.0312195418814,17.0,13.152946437965904,43.18564576337837,33.13608305156178,25.5,19.0,22.0,7.5,22.5,11.5,2.5,7.280109889280518,8.06225774829855,7.5,27.0,21.0,25.179356624028344,{},{}
108,108,12,0,3.6035999999999984,15.033296378372908,58.034472514187634,5.0990195135927845,10.04987562112089,16.0312195418814,18.027756377319943,13.038404810405298,43.18564576337837,33.13608305156178,25.5,19.0,21.0,7.0,23.0,12.0,2.0,8.246211251235321,7.0,7.5,28.0,22.0,26.1725046566048,{},{}
109,109,12,0,3.636966666666665,15.033296378372908,58.077534382926416,6.0,10.04987562112089,16.0312195418814,17.029386365926403,12.16552506059644,43.18564576337837,33.13608305156178,25.5,19.0,22.0,8.5,22.5,11.5,2.5,7.280109889280518,7.071067811865476,7.5,28.0,22.0,25.179356624028344,{},{}
110,110,12,0,3.670333333333332,15.033296378372908,58.077534382926416,6.082762530298219,10.04987562112089,16.0312195418814,18.0,12.041594578792296,43.18564576337837,33.13608305156178,25.5,19.0,22.0,8.5,22.5,11.5,2.5,7.071067811865476,8.0,8.0,28.0,22.0,26.0768096208106,{},{}
111,111,12,0,3.703699999999999,15.033296378372908,59.033888572581766,6.0,10.04987562112089,15.0,17.0,12.041594578792296,43.10452412450461,33.06055050963308,25.5,19.0,21.0,8.0,23.0,12.0,3.0,7.071067811865476,8.06225774829855,8.0,28.0,22.0,26.0768096208106,{},{}
112,112,12,0,3.7370666666666654,15.033296378372908,59.00847396772772,6.0,10.04987562112089,16.0,18.0,12.16552506059644,43.18564576337837,33.13608305156178,25.5,20.0,21.0,8.5,22.5,11.5,3.5,6.082762530298219,7.071067811865476,7.0,28.0,22.0,25.079872407968907,{},{}
113,113,12,0,3.770433333333332,16.0312195418814,59.00847396772772,6.0,9.055385138137416,15.033296378372908,18.027756377319943,12.041594578792296,43.10452412450461,34.058772731852805,26.0,20.0,21.0,8.5,22.5,11.5,2.5,7.071067811865476,7.0,7.0,27.0,22.0,26.0768096208106,{},{}
114,114,12,0,3.803799999999999,16.0312195418814,58.034472514187634,6.0,10.04987562112089,16.0312195418814,18.0,12.041594578792296,44.10215414239989,34.058772731852805,26.0,20.0,22.0,9.0,23.0,12.0,3.0,8.06225774829855,8.06225774829855,7.5,26.0,21.0,26.0768096208106,{},{}
115,115,12,0,3.8371666666666657,15.033296378372908,59.00847396772772,6.0,10.04987562112089,16.0,18.027756377319943,13.038404810405298,44.10215414239989,34.058772731852805,26.5,22.0,23.0,9.5,21.5,10.5,4.5,8.246211251235321,7.071067811865476,7.5,27.0,22.0,25.079872407968907,{},{}
116,116,12,0,3.870533333333333,15.033296378372908,59.033888572581766,6.0,10.04987562112089,16.0312195418814,18.0,13.152946437965904,44.181444068749045,34.132096331752024,26.5,21.0,23.0,9.0,22.0,11.0,3.0,7.071067811865476,7.071067811865476,7.0,26.0,22.0,26.0768096208106,{},{}
117,117,12,0,3.9038999999999993,16.0312195418814,59.00847396772772,6.0,10.0,16.0312195418814,17.0,12.16552506059644,44.10215414239989,34.132096331752024,26.0,21.0,22.0,9.5,22.5,11.5,3.5,7.071067811865476,7.071067811865476,7.0,26.0,22.0,26.0768096208106,{},{}
118,118,12,0,3.937266666666666,16.0,58.034472514187634,7.071067811865476,9.055385138137416,16.0,17.029386365926403,12.0,44.04543109109048,35.0142828000232,27.0,22.0,24.0,11.0,21.0,11.0,5.0,7.071067811865476,7.071067811865476,7.0,25.0,22.0,25.079872407968907,{},{}
119,119,12,0,3.970633333333333,15.0,57.0350769263968,6.082762530298219,11.04536101718726,16.0312195418814,17.029386365926403,12.041594578792296,44.10215414239989,33.06055050963308,25.5,21.0,23.0,10.0,22.0,10.0,4.0,7.071067811865476,7.071067811865476,7.0,26.0,22.0,25.019992006393608,{},{}
120,120,12,0,4.004,14.0356688476182,55.03635162326805,6.0,10.04987562112089,14.0,15.0,13.038404810405298,43.10452412450461,33.06055050963308,26.0,22.0,24.0,10.0,20.0,9.0,4.0,7.071067811865476,7.0,7.5,26.0,22.0,25.019992006393608,{},{}
121,121,12,0,4.037366666666666,9.055385138137416,54.08326913195984,8.0,11.04536101718726,13.0,15.0,13.152946437965904,41.19465984809196,30.14962686336267,25.5,21.0,24.0,9.5,18.5,6.5,1.5,7.071067811865476,7.0,6.5,26.0,22.0,24.020824298928627,{},{}
122,122,12,0,4.070733333333333,6.0,51.03920062069938,8.06225774829855,11.04536101718726,13.0,14.0,14.0,39.05124837953327,28.0178514522438,25.0,22.0,24.0,9.0,16.0,5.0,1.0,7.071067811865476,8.06225774829855,7.5,27.0,22.0,24.020824298928627,{},{}
123,123,12,0,4.1041,3.0,50.039984012787215,7.071067811865476,11.04536101718726,12.0,13.0,16.0312195418814,37.12142238654117,26.0768096208106,24.5,22.0,24.0,7.0,14.0,3.0,0.0,7.071067811865476,7.0,7.0,27.0,22.0,25.019992006393608,{},{}
124,124,12,0,4.137466666666667,1.4142135623730951,51.03920062069938,8.0,9.0,12.0,14.0,15.033296378372908,33.06055050963308,24.08318915758459,23.5,21.0,23.0,7.0,11.0,1.0,1.0,7.071067811865476,7.071067811865476,7.0,26.0,21.0,24.020824298928627,{},{}
125,125,12,0,4.170833333333333,1.4142135623730951,52.03844732503075,8.0,10.0,12.0,14.0,15.033296378372908,34.058772731852805,24.08318915758459,23.5,21.0,23.0,7.0,12.0,2.0,1.0,8.06225774829855,8.06225774829855,7.5,26.0,22.0,25.019992006393608,{},{}
126,126,12,0,4.2042,2.0,51.0098029794274,8.06225774829855,9.055385138137416,12.041594578792296,13.0,16.0,35.05709628591621,26.019223662515376,25.0,22.0,23.0,6.5,12.5,2.5,1.5,7.071067811865476,7.0,7.0,26.0,22.0,24.020824298928627,{},{}
127,127,12,0,4.237566666666667,7.0,54.00925846556311,8.06225774829855,11.04536101718726,13.038404810405298,15.033296378372908,15.0,41.04875150354759,30.01666203960727,26.5,23.0,24.0,8.5,17.5,6.5,0.5,7.071067811865476,7.0,6.5,26.0,22.0,24.020824298928627,{},{}
128,128,12,0,4.270933333333334,13.0,56.00892785976178,6.082762530298219,10.04987562112089,15.0,17.0,15.0,44.04543109109048,34.0147027033899,27.5,24.0,25.0,9.5,19.5,8.5,3.5,7.0,8.0,7.5,26.0,23.0,25.019992006393608,{},{}
129,129,12,0,4.3043000000000005,14.0,57.0087712549569,7.071067811865476,10.0,15.033296378372908,17.0,13.0,44.01136216933077,34.0147027033899,27.0,24.0,25.0,11.5,19.5,8.5,4.5,7.071067811865476,8.0,7.5,25.0,22.0,26.0768096208106,{},{}
130,130,12,0,4.337666666666667,11.04536101718726,57.0087712549569,7.0,11.0,15.033296378372908,17.029386365926403,13.0,42.01190307520001,31.016124838541646,25.5,24.0,25.0,11.5,17.5,6.5,4.5,7.071067811865476,7.0,7.0,26.0,22.0,25.079872407968907,{},{}
131,131,12,0,4.371033333333334,10.04987562112089,58.00862004909271,7.0,11.0,15.033296378372908,17.0,13.038404810405298,41.04875150354759,30.066592756745816,25.0,23.0,24.0,10.5,17.5,6.5,3.5,7.071067811865476,7.071067811865476,6.5,26.0,22.0,25.079872407968907,{},{}
132,132,12,0,4.404400000000001,11.04536101718726,58.077534382926416,7.0,10.0,15.033296378372908,17.029386365926403,12.041594578792296,40.049968789001575,30.066592756745816,24.5,22.0,25.0,11.5,16.5,5.5,4.5,7.071067811865476,8.06225774829855,7.5,27.0,21.0,26.0768096208106,{},{}
133,133,12,0,4.437766666666668,10.0,57.14017850864661,8.06225774829855,11.04536101718726,15.033296378372908,17.029386365926403,11.04536101718726,40.11234224026316,29.068883707497267,24.0,22.0,26.0,13.0,16.0,4.0,5.0,7.280109889280518,7.071067811865476,7.0,27.0,19.0,26.1725046566048,{},{}
134,134,12,0,4.471133333333334,10.04987562112089,56.22277118748239,7.0,9.055385138137416,14.0356688476182,16.0312195418814,12.041594578792296,38.11823710509184,29.068883707497267,24.0,23.0,28.0,13.5,12.5,2.5,5.5,7.280109889280518,7.071067811865476,6.5,28.0,19.0,25.317977802344327,{},{}
135,135,12,0,4.504500000000001,7.071067811865476,55.22680508593631,8.06225774829855,8.06225774829855,14.0356688476182,14.0356688476182,11.04536101718726,34.23448553724738,26.1725046566048,22.5,22.0,27.0,13.5,9.5,0.5,5.5,6.082762530298219,7.071067811865476,6.5,30.0,19.0,25.317977802344327,{},{}
136,136,12,0,4.537866666666668,6.0,57.3149195236284,7.071067811865476,8.246211251235321,14.0356688476182,14.142135623730953,12.041594578792296,33.24154027718932,25.079872407968907,22.0,22.0,28.0,13.0,8.0,1.0,5.0,6.082762530298219,7.280109889280518,6.5,30.0,19.0,26.30589287593181,{},{}
137,137,12,0,4.571233333333335,7.0,57.42821606144492,8.06225774829855,9.219544457292889,14.142135623730953,15.132745950421556,11.04536101718726,35.22782990761707,26.0768096208106,22.5,21.0,28.0,13.5,10.5,0.5,4.5,7.071067811865476,7.280109889280518,7.0,30.0,19.0,25.317977802344327,{},{}
138,138,12,0,4.604600000000001,11.04536101718726,58.30951894845301,9.0,10.04987562112089,14.142135623730953,15.132745950421556,9.219544457292889,39.20459156782532,29.154759474226505,23.5,22.0,28.0,16.0,14.0,3.0,6.0,7.071067811865476,7.071067811865476,7.0,31.0,19.0,26.1725046566048,{},{}
139,139,12,0,4.637966666666668,12.0,58.30951894845301,9.055385138137416,11.04536101718726,14.0356688476182,16.1245154965971,10.04987562112089,42.1070065428546,31.064449134018133,25.0,22.0,28.0,15.0,17.0,5.0,6.0,6.082762530298219,7.071067811865476,6.5,30.0,20.0,26.476404589747453,{},{}
140,140,12,0,4.671333333333335,11.0,57.3149195236284,9.055385138137416,12.041594578792296,15.132745950421556,16.1245154965971,10.04987562112089,42.1070065428546,30.066592756745816,24.5,22.0,28.0,15.0,17.0,4.0,5.0,6.082762530298219,6.0,6.0,30.0,20.0,28.284271247461906,{},{}
141,141,12,0,4.704700000000002,11.04536101718726,58.215118311311535,8.06225774829855,11.04536101718726,15.132745950421556,17.029386365926403,11.0,41.10960958218893,30.066592756745816,24.5,21.0,26.0,12.5,17.5,5.5,3.5,7.071067811865476,6.082762530298219,6.5,30.0,21.0,27.16615541441225,{},{}
142,142,12,0,4.738066666666668,9.055385138137416,58.215118311311535,9.055385138137416,12.041594578792296,15.033296378372908,16.1245154965971,10.04987562112089,40.19950248448356,28.16025568065745,23.5,21.0,26.0,13.5,16.5,3.5,4.5,6.324555320336759,7.071067811865476,7.0,30.0,22.0,26.1725046566048,{},{}
143,143,12,0,4.771433333333335,8.0,58.215118311311535,8.06225774829855,12.041594578792296,15.132745950421556,16.0312195418814,11.180339887498947,39.20459156782532,27.16615541441225,23.0,21.0,26.0,12.5,15.5,2.5,3.5,7.071067811865476,7.071067811865476,6.5,29.0,21.0,27.073972741361768,{},{}
144,144,12,0,4.804800000000002,9.0,57.21887800367987,8.06225774829855,11.04536101718726,16.0312195418814,17.029386365926403,11.04536101718726,39.11521443121589,28.0713376952364,23.5,20.0,25.0,11.5,16.5,4.5,3.5,7.280109889280518,7.071067811865476,7.0,31.0,23.0,27.16615541441225,{},{}
145,145,12,0,4.838166666666669,8.06225774829855,57.21887800367987,8.06225774829855,12.041594578792296,15.033296378372908,17.029386365926403,11.04536101718726,39.20459156782532,27.16615541441225,23.0,19.0,24.0,10.5,17.5,4.5,2.5,6.324555320336759,7.071067811865476,7.0,30.0,23.0,27.073972741361768,{},{}
146,146,12,0,4.871533333333336,8.0,57.14017850864661,7.071067811865476,11.04536101718726,16.0312195418814,17.029386365926403,12.041594578792296,38.11823710509184,27.073972741361768,23.0,18.0,22.0,8.0,18.0,6.0,1.0,7.280109889280518,8.0,7.5,30.0,23.0,26.0768096208106,{},{}
147,147,12,0,4.904900000000002,7.071067811865476,58.137767414994535,7.0,12.041594578792296,16.0312195418814,17.029386365926403,12.16552506059644,38.2099463490856,26.1725046566048,22.5,17.0,21.0,7.0,19.0,6.0,0.0,8.06225774829855,8.0,7.5,29.0,24.0,27.16615541441225,{},{}
148,148,12,0,4.938266666666669,8.0,59.07622195096772,6.082762530298219,13.038404810405298,15.033296378372908,17.0,13.038404810405298,40.11234224026316,27.073972741361768,23.0,16.0,19.0,4.5,22.5,8.5,1.5,8.06225774829855,8.0,7.5,30.0,25.0,26.0768096208106,{},{}
149,149,12,0,4.971633333333336,9.055385138137416,58.077534382926416,6.0,12.041594578792296,15.0,18.027756377319943,13.152946437965904,40.19950248448356,28.16025568065745,23.5,16.0,19.0,4.5,22.5,9.5,0.5,8.246211251235321,9.0,8.5,29.0,24.0,26.0768096208106,{},{}
150,150,12,0,5.005000000000003,11.04536101718726,59.07622195096772,5.0,12.041594578792296,16.0312195418814,18.027756377319943,14.0356688476182,42.1070065428546,30.066592756745816,24.5,17.0,20.0,4.5,23.5,9.5,0.5,8.246211251235321,8.0,8.0,30.0,24.0,26.0768096208106,{},{}
151,151,12,0,5.038366666666669,10.04987562112089,59.13543776789008,6.082762530298219,12.041594578792296,16.0312195418814,17.029386365926403,13.038404810405298,41.19465984809196,29.154759474226505,24.0,16.0,20.0,5.0,23.0,10.0,1.0,8.246211251235321,8.06225774829855,8.0,30.0,24.0,26.0768096208106,{},{}
152,152,12,0,5.071733333333336,10.04987562112089,59.07622195096772,6.082762530298219,11.04536101718726,16.0312195418814,18.027756377319943,13.152946437965904,40.311288741492746,29.27456233660889,24.0,16.0,19.0,4.5,22.5,9.5,0.5,8.246211251235321,8.0,8.0,31.0,25.0,27.073972741361768,{},{}
153,153,12,0,5.105100000000003,10.0,59.13543776789008,6.082762530298219,11.180339887498947,16.0312195418814,17.029386365926403,13.152946437965904,40.311288741492746,29.154759474226505,24.0,16.0,20.0,5.0,22.0,9.0,1.0,8.246211251235321,9.0,8.5,30.0,24.0,27.073972741361768,{},{}
154,154,12,0,5.13846666666667,9.055385138137416,58.137767414994535,6.082762530298219,12.041594578792296,15.033296378372908,17.029386365926403,13.152946437965904,40.311288741492746,28.284271247461906,23.5,16.0,20.0,5.0,22.0,8.0,1.0,8.246211251235321,9.0,8.5,29.0,23.0,27.16615541441225,{},{}
155,155,12,0,5.171833333333336,8.0,58.137767414994535,6.082762530298219,12.16552506059644,15.033296378372908,17.029386365926403,13.152946437965904,39.319206502675,27.16615541441225,23.0,16.0,20.0,5.0,21.0,8.0,1.0,5.0990195135927845,6.082762530298219,5.5,30.0,23.0,28.0713376952364,{},{}
156,156,12,0,5.205200000000003,8.06225774829855,58.137767414994535,6.082762530298219,12.041594578792296,15.132745950421556,17.029386365926403,13.152946437965904,39.319206502675,27.29468812791236,23.0,16.0,20.0,5.0,21.0,8.0,1.0,3.1622776601683795,3.1622776601683795,3.0,30.0,23.0,26.0768096208106,{},{}
157,157,12,0,5.23856666666667,9.055385138137416,60.13318551349163,6.082762530298219,11.04536101718726,16.0312195418814,17.029386365926403,12.041594578792296,38.2099463490856,27.16615541441225,22.5,15.0,19.0,5.0,21.0,9.0,1.0,3.1622776601683795,3.1622776601683795,2.5,30.0,22.0,26.1725046566048,{},{}
158,158,12,0,5.271933333333337,9.055385138137416,59.21148537234985,6.082762530298219,11.180339887498947,16.0312195418814,17.029386365926403,12.041594578792296,38.3275357934736,27.16615541441225,22.5,15.0,20.0,5.5,20.5,8.5,0.5,3.1622776601683795,3.1622776601683795,3.0,30.0,22.0,27.16615541441225,{},{}
159,159,12,0,5.305300000000004,9.055385138137416,59.13543776789008,5.0990195135927845,11.04536101718726,17.029386365926403,18.027756377319943,13.152946437965904,38.3275357934736,27.29468812791236,22.5,16.0,20.0,5.0,20.0,8.0,0.0,3.1622776601683795,4.123105625617661,3.5,29.0,22.0,26.1725046566048,{},{}
160,160,12,0,5.33866666666667,6.0,58.137767414994535,7.071067811865476,12.041594578792296,15.033296378372908,17.029386365926403,12.16552506059644,37.21558813185679,25.179356624028344,22.0,16.0,20.0,6.0,19.0,6.0,0.0,5.0990195135927845,5.0990195135927845,5.0,30.0,22.0,26.1725046566048,{},{}
161,161,12,0,5.372033333333337,7.0,59.07622195096772,7.071067811865476,12.041594578792296,15.033296378372908,17.0,12.16552506059644,38.2099463490856,26.1725046566048,22.5,17.0,20.0,6.5,19.5,6.5,0.5,6.082762530298219,6.082762530298219,6.0,29.0,22.0,27.16615541441225,{},{}
162,162,12,0,5.405400000000004,7.071067811865476,58.137767414994535,7.071067811865476,12.041594578792296,16.0312195418814,17.029386365926403,12.041594578792296,38.2099463490856,26.1725046566048,22.5,17.0,21.0,7.0,19.0,6.0,0.0,6.324555320336759,6.082762530298219,6.5,29.0,22.0,25.079872407968907,{},{}
163,163,12,0,5.438766666666671,8.0,58.137767414994535,6.082762530298219,12.041594578792296,16.0312195418814,17.029386365926403,13.038404810405298,39.11521443121589,27.073972741361768,23.0,18.0,22.0,7.0,19.0,7.0,1.0,6.324555320336759,6.082762530298219,6.5,29.0,22.0,26.0768096208106,{},{}
164,164,12,0,5.472133333333337,9.0,58.137767414994535,6.082762530298219,13.038404810405298,16.1245154965971,17.029386365926403,13.152946437965904,41.19465984809196,28.16025568065745,23.5,18.0,22.0,7.0,21.0,7.0,0.0,6.324555320336759,6.0,6.5,29.0,22.0,26.1725046566048,{},{}
165,165,12,0,5.505500000000004,11.04536101718726,58.137767414994535,6.082762530298219,13.038404810405298,16.0312195418814,18.110770276274835,13.152946437965904,43.28972164382672,30.265491900843116,24.5,19.0,23.0,8.0,22.0,8.0,2.0,6.324555320336759,7.071067811865476,7.0,29.0,22.0,25.079872407968907,{},{}
166,166,12,0,5.538866666666671,13.0,59.13543776789008,6.082762530298219,13.038404810405298,17.029386365926403,18.027756377319943,13.152946437965904,45.17742799230607,32.14031735997639,25.5,20.0,24.0,9.0,23.0,9.0,3.0,7.280109889280518,7.071067811865476,6.5,29.0,22.0,26.0768096208106,{},{}
167,167,12,0,5.572233333333338,14.0,59.07622195096772,7.071067811865476,13.038404810405298,17.029386365926403,18.027756377319943,13.152946437965904,47.16990566028302,34.132096331752024,27.0,21.0,24.0,9.5,24.5,10.5,2.5,7.280109889280518,8.0,7.5,29.0,22.0,26.0768096208106,{},{}
168,168,12,0,5.605600000000004,15.033296378372908,59.07622195096772,7.071067811865476,12.041594578792296,16.0312195418814,18.027756377319943,13.038404810405298,47.16990566028302,35.12833614050059,27.5,22.0,25.0,10.5,23.5,10.5,3.5,7.280109889280518,8.0,7.5,28.0,22.0,27.16615541441225,{},{}
169,169,12,0,5.638966666666671,12.041594578792296,57.07889277132134,7.0,13.038404810405298,17.029386365926403,18.027756377319943,13.152946437965904,45.17742799230607,32.14031735997639,26.0,22.0,25.0,10.5,21.5,7.5,3.5,7.071067811865476,7.0,7.0,30.0,23.0,27.073972741361768,{},{}
170,170,12,0,5.672333333333338,11.04536101718726,56.1426753904728,7.071067811865476,11.04536101718726,15.033296378372908,16.0312195418814,14.142135623730953,43.28972164382672,32.2490309931942,26.5,21.0,25.0,9.0,20.0,8.0,2.0,7.280109889280518,8.06225774829855,8.0,30.0,23.0,26.1725046566048,{},{}
171,171,12,0,5.705700000000005,9.055385138137416,55.14526271584895,8.06225774829855,11.04536101718726,14.0356688476182,16.0312195418814,15.132745950421556,43.28972164382672,32.2490309931942,27.5,22.0,26.0,9.0,19.0,7.0,1.0,7.071067811865476,8.06225774829855,7.5,30.0,23.0,26.0768096208106,{},{}
172,172,12,0,5.739066666666671,11.04536101718726,54.08326913195984,8.06225774829855,12.041594578792296,14.0356688476182,16.0312195418814,15.132745950421556,46.2709412050371,34.23448553724738,28.5,24.0,27.0,10.5,20.5,8.5,2.5,8.06225774829855,8.06225774829855,8.0,30.0,24.0,27.073972741361768,{},{}
173,173,12,0,5.772433333333338,13.038404810405298,53.08483775994799,9.0,12.041594578792296,13.038404810405298,15.0,14.142135623730953,48.16637831516918,36.12478373637688,29.5,26.0,29.0,13.5,20.5,7.5,4.5,8.06225774829855,8.06225774829855,8.0,30.0,24.0,26.1725046566048,{},{}
174,174,12,0,5.805800000000005,13.038404810405298,51.0881590977792,8.0,12.041594578792296,13.038404810405298,14.0,15.132745950421556,48.16637831516918,36.12478373637688,29.5,26.0,29.0,12.5,20.5,7.5,3.5,8.06225774829855,8.0,8.0,30.0,24.0,27.073972741361768,{},{}
175,175,12,0,5.839166666666672,10.0,50.08991914547278,8.06225774829855,11.04536101718726,12.041594578792296,14.0,16.0312195418814,45.09988913511872,34.058772731852805,29.0,26.0,29.0,11.5,17.5,5.5,3.5,7.071067811865476,7.071067811865476,7.0,29.0,24.0,27.073972741361768,{},{}
176,176,12,0,5.8725333333333385,5.0990195135927845,49.04079934095692,9.0,11.0,12.041594578792296,14.0,15.033296378372908,40.049968789001575,29.068883707497267,26.5,25.0,27.0,11.0,14.0,3.0,2.0,7.0,7.071067811865476,7.5,28.0,23.0,26.019223662515376,{},{}
177,177,12,0,5.905900000000005,3.0,50.0,8.0,10.0,13.0,13.038404810405298,15.033296378372908,36.013886210738214,26.019223662515376,24.5,26.0,26.0,11.0,10.0,0.0,3.0,7.071067811865476,7.071067811865476,7.0,27.0,23.0,26.0768096208106,{},{}
178,178,12,0,5.939266666666672,1.0,50.0,8.0,10.0,13.0,13.038404810405298,15.033296378372908,34.0147027033899,24.020824298928627,23.5,26.0,26.0,11.0,8.0,2.0,3.0,7.0,7.071067811865476,7.0,28.0,24.0,26.0768096208106,{},{}
179,179,12,0,5.972633333333339,1.0,50.039984012787215,8.0,9.0,13.038404810405298,13.0,15.033296378372908,32.0624390837628,23.08679276123039,23.0,26.0,24.0,10.0,7.0,2.0,3.0,7.0,7.0,7.0,25.0,23.0,26.0,{},{}
180,180,12,0,6.006000000000006,2.23606797749979,50.039984012787215,7.0,9.0,13.0,13.038404810405298,15.033296378372908,33.06055050963308,24.08318915758459,23.0,26.0,24.0,10.0,8.0,1.0,3.0,7.0,7.0,6.5,25.0,24.0,24.0,{},{}
181,181,12,0,6.039366666666672,2.23606797749979,48.04164859785725,7.0,9.055385138137416,13.038404810405298,13.038404810405298,15.033296378372908,33.13608305156178,24.08318915758459,23.0,26.0,24.0,10.0,8.0,1.0,3.0,7.071067811865476,7.0,7.0,24.0,25.0,26.0,{},{}
182,182,12,0,6.072733333333339,4.0,47.09564735726647,9.0,11.04536101718726,12.0,12.041594578792296,13.152946437965904,37.12142238654117,26.0768096208106,24.0,28.0,25.0,13.5,10.5,0.5,4.5,7.071067811865476,7.0,6.5,23.0,26.0,26.019223662515376,{},{}
183,183,12,0,6.106100000000006,9.0,46.17358552246078,8.0,11.04536101718726,12.0,13.038404810405298,12.16552506059644,40.11234224026316,29.068883707497267,24.5,30.0,26.0,16.0,12.0,1.0,8.0,6.082762530298219,7.071067811865476,7.0,23.0,26.0,26.0768096208106,{},{}
184,184,12,0,6.139466666666673,12.0,46.09772228646444,7.0,10.04987562112089,12.041594578792296,13.038404810405298,11.180339887498947,40.11234224026316,30.066592756745816,24.0,29.0,26.0,16.5,12.5,2.5,9.5,6.082762530298219,7.0,7.0,23.0,27.0,26.019223662515376,{},{}
185,185,12,0,6.172833333333339,11.0,48.0936586256442,7.0,11.04536101718726,13.038404810405298,15.033296378372908,11.180339887498947,40.11234224026316,29.068883707497267,23.5,29.0,26.0,16.5,12.5,1.5,9.5,6.082762530298219,7.071067811865476,7.0,22.0,25.0,25.019992006393608,{},{}
186,186,12,0,6.206200000000006,11.0,48.04164859785725,7.0,10.04987562112089,13.038404810405298,14.0356688476182,11.04536101718726,39.05124837953327,29.017236257093817,23.5,28.0,26.0,16.0,12.0,2.0,9.0,7.0,6.0,6.0,23.0,26.0,26.019223662515376,{},{}
187,187,12,0,6.239566666666673,11.0,48.04164859785725,7.0,10.0,12.041594578792296,14.0356688476182,10.198039027185567,38.05259518088089,28.0713376952364,22.5,28.0,26.0,17.0,11.0,1.0,10.0,7.0,7.0,7.0,23.0,25.0,26.0768096208106,{},{}
188,188,12,0,6.27293333333334,10.0,48.04164859785725,7.0,11.0,13.0,14.0356688476182,11.180339887498947,39.05124837953327,28.0713376952364,23.0,28.0,26.0,16.0,12.0,1.0,9.0,7.0,7.071067811865476,7.0,23.0,25.0,25.019992006393608,{},{}
189,189,12,0,6.306300000000007,9.055385138137416,49.04079934095692,8.0,10.0,14.0356688476182,14.0,11.04536101718726,38.05259518088089,28.0713376952364,23.5,28.0,26.0,16.0,11.0,1.0,9.0,7.0,7.0,7.0,22.0,24.0,25.019992006393608,{},{}
190,190,12,0,6.339666666666673,10.0,51.03920062069938,8.0,10.0,14.0,15.0,11.04536101718726,39.01281840626232,29.017236257093817,24.0,28.0,26.0,16.0,12.0,2.0,8.0,7.0,6.0,6.0,23.0,24.0,26.0,{},{}
191,191,12,0,6.37303333333334,12.0,52.03844732503075,8.0,11.04536101718726,14.0356688476182,15.0,11.04536101718726,42.04759208325728,31.016124838541646,25.0,28.0,26.0,16.0,15.0,4.0,9.0,7.0,7.0,7.0,22.0,23.0,26.0,{},{}
192,192,12,0,6.406400000000007,14.0,54.037024344425184,8.0,11.0,14.0,16.0312195418814,11.04536101718726,44.01136216933077,33.015148038438355,26.0,28.0,26.0,16.0,17.0,6.0,8.0,7.071067811865476,7.0,6.5,23.0,24.0,25.0,{},{}
193,193,12,0,6.4397666666666735,18.0,56.0357029044876,8.0,10.04987562112089,14.0356688476182,17.029386365926403,11.04536101718726,47.042533945356304,37.01351104664349,28.0,29.0,27.0,17.0,19.0,9.0,9.0,6.0,6.0,6.0,23.0,23.0,26.0,{},{}
194,194,12,0,6.47313333333334,19.0,57.0087712549569,8.0,11.0,15.0,17.029386365926403,11.04536101718726,49.01020301937138,38.01315561749642,28.5,28.0,27.0,16.5,21.5,10.5,8.5,6.0,7.0,6.5,23.0,23.0,26.019223662515376,{},{}
195,195,12,0,6.506500000000007,21.0,57.0087712549569,8.0,11.0,16.0,18.0,11.0,51.0,40.0,29.5,29.0,28.0,17.5,22.5,11.5,9.5,6.0,6.0,6.5,23.0,23.0,27.0,{},{}
196,196,12,0,6.539866666666674,21.0,58.00862004909271,8.0,11.0,16.0312195418814,18.027756377319943,12.0,52.0,41.0,30.5,29.0,28.0,16.5,23.5,12.5,9.5,3.0,4.0,3.5,24.0,23.0,26.0,{},{}
197,197,12,0,6.573233333333341,21.0,58.00862004909271,7.0,11.0,16.0,17.0,12.0,51.0,40.0,29.5,28.0,27.0,15.5,23.5,12.5,8.5,2.0,2.23606797749979,1.5,25.0,24.0,26.0,{},{}
198,198,12,0,6.606600000000007,21.0,59.0,7.0,10.0,16.0,18.027756377319943,12.0,50.0,40.0,29.5,27.0,27.0,15.0,23.0,12.0,8.0,2.0,2.0,1.5,25.0,24.0,27.018512172212592,{},{}
199,199,12,0,6.639966666666674,20.0,59.0,7.071067811865476,11.0,16.0,18.0,12.0,50.00999900019995,39.01281840626232,29.0,27.0,27.0,15.0,23.0,11.0,8.0,2.0,3.1622776601683795,2.5,25.0,24.0,27.018512172212592,{},{}
200,200,12,0,6.673333333333341,19.0,59.0,7.0,10.0,16.0,19.026297590440446,13.038404810405298,49.01020301937138,39.01281840626232,29.5,27.0,27.0,14.0,22.0,11.0,7.0,4.123105625617661,4.0,4.0,25.0,23.0,26.019223662515376,{},{}
201,201,12,0,6.706700000000008,17.029386365926403,60.00833275470999,8.0,11.0,16.0,17.029386365926403,11.0,47.01063709417264,36.013886210738214,27.5,25.0,26.0,14.5,21.5,10.5,6.5,5.0,6.0,5.5,26.0,24.0,25.019992006393608,{},{}
202,202,12,0,6.740066666666674,14.0,59.00847396772772,8.06225774829855,11.04536101718726,15.0,17.0,12.041594578792296,45.0111097397076,34.0,27.0,25.0,26.0,13.5,19.5,8.5,5.5,5.0,6.082762530298219,5.5,26.0,24.0,26.019223662515376,{},{}
203,203,12,0,6.773433333333341,12.0,59.00847396772772,8.0,11.04536101718726,16.0,17.029386365926403,12.0,43.01162633521314,32.0,26.0,24.0,25.0,12.5,18.5,7.5,4.5,6.082762530298219,6.0,5.5,25.0,24.0,26.019223662515376,{},{}
204,204,12,0,6.806800000000008,13.0,58.00862004909271,8.0,11.04536101718726,15.0,17.0,11.0,43.01162633521314,32.0,25.5,24.0,25.0,13.5,18.5,6.5,5.5,5.0,6.082762530298219,6.0,25.0,23.0,26.0,{},{}
205,205,12,0,6.840166666666675,13.0,58.00862004909271,8.0,12.041594578792296,15.0,17.0,12.041594578792296,45.044422518220834,33.015148038438355,26.5,25.0,26.0,13.5,19.5,6.5,5.5,5.0990195135927845,5.0,5.0,26.0,24.0,25.0,{},{}
206,206,12,0,6.8735333333333415,12.041594578792296,57.0087712549569,8.0,13.0,16.0312195418814,17.0,11.04536101718726,44.04543109109048,31.064449134018133,25.0,24.0,25.0,13.5,19.5,6.5,4.5,5.0990195135927845,5.0990195135927845,5.0,26.0,24.0,25.019992006393608,{},{}
207,207,12,0,6.906900000000008,10.0,58.00862004909271,9.0,12.041594578792296,16.0312195418814,17.029386365926403,11.04536101718726,42.04759208325728,30.01666203960727,25.0,23.0,24.0,12.5,18.5,5.5,3.5,4.123105625617661,6.0,5.5,26.0,24.0,25.0,{},{}
208,208,12,0,6.940266666666675,9.0,60.00833275470999,8.0,12.041594578792296,16.0,17.029386365926403,12.0,41.01219330881976,29.0,24.5,23.0,24.0,11.5,17.5,4.5,3.5,3.1622776601683795,2.23606797749979,2.0,27.0,25.0,27.018512172212592,{},{}
209,209,12,0,6.973633333333342,8.0,60.00833275470999,9.055385138137416,13.0,16.0,17.0,11.04536101718726,41.0,28.0,24.0,22.0,23.0,11.5,18.5,4.5,3.5,2.0,2.23606797749979,2.0,29.0,24.0,25.079872407968907,{},{}
210,210,12,0,7.0070000000000086,7.0,59.033888572581766,9.055385138137416,13.0,16.0,17.0,11.04536101718726,40.0,27.0,23.5,21.0,23.0,11.0,18.0,5.0,3.0,2.23606797749979,2.0,2.0,31.0,26.0,26.0768096208106,{},{}
211,211,12,0,7.040366666666675,8.06225774829855,60.00833275470999,8.0,13.0,15.033296378372908,18.027756377319943,11.0,40.01249804748511,27.018512172212592,23.0,21.0,22.0,10.5,18.5,4.5,2.5,1.0,2.23606797749979,2.0,29.0,26.0,27.018512172212592,{},{}
212,212,12,0,7.073733333333342,7.071067811865476,59.07622195096772,8.0,14.0,15.033296378372908,17.029386365926403,11.0,40.01249804748511,26.019223662515376,22.5,19.0,22.0,9.5,19.5,5.5,1.5,5.0,5.0990195135927845,5.0,28.0,25.0,27.018512172212592,{},{}
213,213,12,0,7.107100000000009,6.0,58.034472514187634,8.0,13.0,16.0312195418814,17.029386365926403,11.04536101718726,38.01315561749642,25.019992006393608,22.0,18.0,20.0,8.0,19.0,5.0,0.0,5.0990195135927845,6.082762530298219,5.5,28.0,26.0,27.073972741361768,{},{}
214,214,12,0,7.140466666666676,7.0,58.00862004909271,8.06225774829855,13.0,16.0312195418814,17.029386365926403,11.04536101718726,39.0,26.0,22.5,19.0,20.0,8.5,19.5,5.5,0.5,6.082762530298219,6.0,6.5,27.0,26.0,27.018512172212592,{},{}
215,215,12,0,7.173833333333342,7.0,59.00847396772772,8.0,12.041594578792296,15.033296378372908,17.029386365926403,11.0,38.01315561749642,26.0,22.5,18.0,19.0,7.5,19.5,6.5,0.5,7.071067811865476,8.0,7.5,26.0,26.0,26.0,{},{}
216,216,12,0,7.207200000000009,7.0,58.0,7.0,13.038404810405298,16.0,17.0,11.0,38.01315561749642,25.0,21.5,18.0,18.0,7.0,20.0,6.0,0.0,8.246211251235321,8.0,8.0,26.0,26.0,26.0,{},{}
217,217,12,0,7.240566666666676,8.0,58.0,7.0,12.0,15.0,16.0312195418814,11.0,38.0,26.0,22.0,18.0,18.0,7.0,20.0,7.0,0.0,8.06225774829855,7.0,7.5,26.0,26.0,27.0,{},{}
218,218,12,0,7.273933333333343,8.06225774829855,57.0087712549569,7.0,13.038404810405298,15.0,16.0,12.0,40.0,27.018512172212592,23.0,18.0,19.0,6.5,21.5,7.5,0.5,8.246211251235321,7.071067811865476,7.0,26.0,26.0,27.0,{},{}
219,219,12,0,7.3073000000000095,9.055385138137416,58.00862004909271,7.071067811865476,12.041594578792296,15.0,16.0312195418814,12.041594578792296,40.0,28.0178514522438,23.5,18.0,19.0,6.5,21.5,8.5,0.5,8.06225774829855,9.0,8.5,27.0,27.0,27.0,{},{}
220,220,12,0,7.340666666666676,9.0,57.0087712549569,7.0,13.0,15.033296378372908,16.0312195418814,12.0,41.0,28.0,23.5,18.0,19.0,6.5,22.5,8.5,0.5,8.06225774829855,8.0,8.0,27.0,27.0,27.018512172212592,{},{}
221,221,12,0,7.374033333333343,8.0,57.0350769263968,7.071067811865476,13.0,15.033296378372908,16.0,12.0,40.01249804748511,27.018512172212592,23.0,18.0,20.0,7.0,21.0,7.0,0.0,8.246211251235321,8.0,8.0,26.0,26.0,27.0,{},{}
222,222,12,0,7.40740000000001,8.0,57.0350769263968,7.0,13.038404810405298,15.033296378372908,16.0312195418814,12.0,40.01249804748511,27.0,23.0,18.0,20.0,7.0,21.0,7.0,0.0,7.280109889280518,8.06225774829855,8.0,27.0,26.0,27.0,{},{}
223,223,12,0,7.440766666666676,9.0,56.00892785976178,7.0,12.041594578792296,14.0356688476182,16.0312195418814,12.0,40.01249804748511,28.0,23.5,19.0,20.0,7.5,20.5,7.5,0.5,8.06225774829855,8.06225774829855,8.5,27.0,26.0,27.0,{},{}
224,224,12,0,7.474133333333343,9.0,56.0357029044876,7.0,12.041594578792296,14.0356688476182,16.0312195418814,12.0,40.01249804748511,28.0,23.5,18.0,20.0,7.0,21.0,8.0,0.0,7.071067811865476,8.0,8.0,27.0,26.0,26.019223662515376,{},{}
225,225,12,0,7.50750000000001,8.06225774829855,55.00909015790027,7.071067811865476,12.041594578792296,15.0,16.0312195418814,13.0,40.01249804748511,28.0,24.0,19.0,20.0,6.5,20.5,7.5,0.5,7.071067811865476,9.0,9.0,27.0,26.0,26.0,{},{}
226,226,12,0,7.540866666666677,8.0,53.009433122794285,7.0,12.041594578792296,14.0,15.033296378372908,14.0,41.01219330881976,29.0,25.0,20.0,21.0,6.5,20.5,7.5,0.5,7.280109889280518,8.0,8.0,27.0,26.0,26.0,{},{}
227,227,12,0,7.574233333333344,9.0,53.009433122794285,7.0,12.0,14.0,15.033296378372908,14.0,42.0,30.0,25.5,20.0,21.0,6.5,21.5,7.5,0.5,8.246211251235321,9.0,9.0,27.0,26.0,26.0,{},{}
228,228,12,0,7.60760000000001,8.0,52.009614495783374,7.0,11.0,12.041594578792296,14.0356688476182,15.033296378372908,41.01219330881976,30.01666203960727,26.0,21.0,22.0,6.5,19.5,6.5,0.5,8.06225774829855,8.06225774829855,8.0,27.0,27.0,27.0,{},{}
229,229,12,0,7.640966666666677,8.0,51.0098029794274,7.071067811865476,12.0,13.038404810405298,14.0356688476182,16.0,43.01162633521314,31.016124838541646,27.0,22.0,23.0,6.5,20.5,7.5,0.5,8.06225774829855,9.0,9.0,28.0,27.0,26.0,{},{}
230,230,12,0,7.674333333333344,8.0,50.0,6.0,11.0,12.0,14.0356688476182,16.0,41.0,30.0,26.0,22.0,22.0,6.0,19.0,7.0,0.0,8.246211251235321,8.0,8.0,27.0,27.0,26.0,{},{}
231,231,12,0,7.707700000000011,5.0,50.00999900019995,6.0,10.04987562112089,12.0,13.038404810405298,18.0,39.01281840626232,29.0,26.5,21.0,22.0,3.5,17.5,5.5,1.5,7.280109889280518,8.0,8.0,27.0,27.0,27.0,{},{}
232,232,12,0,7.741066666666677,2.0,49.01020301937138,6.0,9.0,12.041594578792296,13.038404810405298,18.027756377319943,35.0142828000232,26.019223662515376,25.0,21.0,22.0,3.5,13.5,2.5,2.5,8.06225774829855,8.0,8.5,27.0,27.0,25.019992006393608,{},{}
233,233,12,0,7.774433333333344,1.0,50.00999900019995,6.082762530298219,9.055385138137416,12.041594578792296,13.038404810405298,17.0,33.06055050963308,24.020824298928627,23.5,20.0,21.0,3.5,12.5,2.5,2.5,8.06225774829855,8.0,8.0,27.0,26.0,25.019992006393608,{},{}
234,234,12,0,7.807800000000011,0.0,50.039984012787215,6.082762530298219,9.0,13.038404810405298,13.038404810405298,18.0,33.015148038438355,24.020824298928627,24.0,20.0,22.0,3.0,12.0,2.0,2.0,7.280109889280518,8.0,8.0,27.0,26.0,25.019992006393608,{},{}
235,235,12,0,7.841166666666678,1.0,53.03772242470448,6.0,10.04987562112089,14.0356688476182,15.033296378372908,17.0,34.0147027033899,24.0,23.5,20.0,22.0,4.0,13.0,2.0,2.0,8.06225774829855,8.0,8.0,26.0,26.0,25.019992006393608,{},{}
236,236,12,0,7.874533333333344,5.0,51.0098029794274,7.071067811865476,10.04987562112089,14.0356688476182,15.033296378372908,16.0,38.05259518088089,28.0178514522438,25.5,22.0,23.0,6.5,15.5,4.5,0.5,8.06225774829855,8.0,8.0,27.0,26.0,26.0,{},{}
237,237,12,0,7.907900000000011,12.0,55.00909015790027,7.071067811865476,12.0,15.033296378372908,16.0,15.0,46.01086828130936,34.0147027033899,28.0,23.0,24.0,8.5,22.5,10.5,1.5,8.246211251235321,8.0,8.0,27.0,26.0,26.0,{},{}
238,238,12,0,7.941266666666678,14.0,55.00909015790027,7.0,12.041594578792296,15.0,17.0,16.0312195418814,49.04079934095692,37.01351104664349,30.0,25.0,26.0,9.5,23.5,10.5,2.5,7.071067811865476,9.0,8.5,29.0,26.0,27.0,{},{}
239,239,12,0,7.974633333333345,11.0,53.03772242470448,8.0,12.041594578792296,13.038404810405298,14.0,16.0312195418814,47.042533945356304,35.0142828000232,29.5,25.0,27.0,10.0,21.0,8.0,2.0,7.071067811865476,8.06225774829855,8.0,29.0,26.0,26.019223662515376,{},{}
240,240,12,0,8.008000000000012,6.0,51.03920062069938,8.0,10.04987562112089,14.0356688476182,14.0356688476182,16.0312195418814,40.049968789001575,30.01666203960727,27.0,24.0,26.0,9.0,15.0,4.0,1.0,7.071067811865476,8.06225774829855,8.0,28.0,24.0,27.018512172212592,{},{}
241,241,12,0,8.041366666666677,4.0,51.03920062069938,8.0,10.04987562112089,12.0,14.0356688476182,15.0,37.01351104664349,27.0,25.0,24.0,26.0,10.0,12.0,1.0,2.0,7.071067811865476,8.06225774829855,8.0,28.0,23.0,26.0768096208106,{},{}
242,242,12,0,8.074733333333343,4.0,51.03920062069938,8.0,10.04987562112089,13.038404810405298,14.0356688476182,15.033296378372908,37.05401462729781,27.018512172212592,25.0,24.0,26.0,10.0,12.0,2.0,1.0,7.071067811865476,8.0,7.5,28.0,24.0,26.019223662515376,{},{}
243,243,12,0,8.10810000000001,6.082762530298219,52.009614495783374,8.0,10.0,14.0356688476182,14.0,13.0,37.01351104664349,27.018512172212592,24.0,24.0,25.0,11.5,12.5,1.5,3.5,7.071067811865476,7.0,7.0,27.0,23.0,27.073972741361768,{},{}
244,244,12,0,8.141466666666675,7.071067811865476,52.009614495783374,8.0,10.0,14.0356688476182,14.0,12.0,37.01351104664349,27.018512172212592,23.5,24.0,25.0,12.5,12.5,2.5,4.5,8.06225774829855,8.06225774829855,7.5,27.0,23.0,27.073972741361768,{},{}
245,245,12,0,8.174833333333341,9.0,52.0,7.0,10.04987562112089,14.0,15.0,12.0,38.01315561749642,28.0,23.5,24.0,24.0,12.0,14.0,4.0,5.0,7.071067811865476,8.06225774829855,7.5,27.0,24.0,27.018512172212592,{},{}
246,246,12,0,8.208200000000007,10.04987562112089,52.009614495783374,7.0,11.0,13.0,14.0,12.041594578792296,40.0,29.0,24.0,25.0,24.0,12.5,15.5,4.5,5.5,7.0,8.0,7.5,26.0,26.0,27.018512172212592,{},{}
247,247,12,0,8.241566666666673,13.0,51.15662224971465,7.071067811865476,11.04536101718726,13.038404810405298,15.033296378372908,12.041594578792296,43.10452412450461,32.0624390837628,25.5,29.0,25.0,15.0,16.0,5.0,8.0,7.0,7.071067811865476,6.5,24.0,29.0,27.073972741361768,{},{}
248,248,12,0,8.274933333333339,14.0356688476182,52.3450093132096,6.0,10.04987562112089,13.152946437965904,15.033296378372908,13.341664064126334,43.28972164382672,33.24154027718932,26.0,29.0,23.0,13.0,17.0,7.0,8.0,6.0,6.082762530298219,6.5,21.0,30.0,27.16615541441225,{},{}
249,249,12,0,8.308300000000004,11.04536101718726,51.47815070493501,7.071067811865476,9.055385138137416,14.142135623730953,15.132745950421556,11.180339887498947,38.3275357934736,29.27456233660889,23.5,28.0,21.0,13.5,13.5,4.5,7.5,7.071067811865476,7.071067811865476,7.0,20.0,31.0,25.495097567963924,{},{}
250,250,12,0,8.34166666666667,6.082762530298219,51.62363799656123,8.06225774829855,9.055385138137416,13.152946437965904,13.038404810405298,11.180339887498947,34.36568055487916,25.317977802344327,22.0,28.0,20.0,13.0,10.0,1.0,6.0,7.071067811865476,7.071067811865476,7.0,18.0,30.0,24.33105012119288,{},{}
251,251,12,0,8.375033333333336,5.0990195135927845,51.47815070493501,8.06225774829855,10.04987562112089,13.038404810405298,13.152946437965904,11.04536101718726,34.23448553724738,24.186773244895647,21.5,27.0,20.0,12.5,10.5,1.5,5.5,7.0,6.082762530298219,6.5,19.0,30.0,24.33105012119288,{},{}
252,252,12,0,8.408400000000002,7.071067811865476,50.48762224545735,8.0,11.04536101718726,12.16552506059644,13.038404810405298,10.198039027185567,36.22154055254967,25.179356624028344,21.5,27.0,20.0,13.5,12.5,2.5,6.5,6.082762530298219,7.071067811865476,7.0,19.0,30.0,24.33105012119288,{},{}
253,253,12,0,8.441766666666668,7.071067811865476,49.49747468305833,8.0,11.04536101718726,12.16552506059644,14.0356688476182,10.198039027185567,36.22154055254967,25.179356624028344,21.5,26.0,19.0,12.5,13.5,2.5,5.5,6.082762530298219,6.082762530298219,6.0,19.0,29.0,22.360679774997894,{},{}
254,254,12,0,8.475133333333334,4.123105625617661,49.49747468305833,9.0,13.038404810405298,12.16552506059644,13.038404810405298,11.180339887498947,37.21558813185679,24.186773244895647,22.0,27.0,20.0,12.5,13.5,1.5,4.5,7.071067811865476,6.082762530298219,6.0,19.0,29.0,24.33105012119288,{},{}
255,255,12,0,8.5085,2.23606797749979,49.49747468305833,10.0,13.038404810405298,12.16552506059644,12.16552506059644,12.16552506059644,37.21558813185679,24.186773244895647,23.0,27.0,20.0,11.5,13.5,1.5,2.5,6.0,6.082762530298219,6.0,20.0,30.0,24.33105012119288,{},{}
256,256,12,0,8.541866666666666,2.23606797749979,48.507731342539614,9.055385138137416,11.04536101718726,12.041594578792296,13.152946437965904,14.0356688476182,36.22154055254967,25.179356624028344,24.0,27.0,20.0,9.5,12.5,1.5,1.5,6.0,6.0,6.0,20.0,29.0,23.194827009486403,{},{}
257,257,12,0,8.575233333333331,3.0,50.48762224545735,8.06225774829855,11.04536101718726,12.16552506059644,13.038404810405298,14.0356688476182,36.12478373637688,25.079872407968907,23.5,27.0,20.0,9.5,12.5,1.5,2.5,7.071067811865476,7.071067811865476,7.0,19.0,29.0,24.186773244895647,{},{}
258,258,12,0,8.608599999999997,2.23606797749979,49.36598018878993,8.06225774829855,11.04536101718726,12.16552506059644,13.152946437965904,14.0356688476182,35.22782990761707,24.186773244895647,23.0,26.0,20.0,9.0,12.0,1.0,2.0,6.0,7.0,7.0,19.0,28.0,24.33105012119288,{},{}
259,259,12,0,8.641966666666663,2.23606797749979,50.35871324805669,8.0,11.04536101718726,12.041594578792296,14.142135623730953,14.142135623730953,35.22782990761707,24.186773244895647,23.0,26.0,20.0,9.0,12.0,2.0,1.0,6.0,7.071067811865476,7.0,20.0,29.0,24.186773244895647,{},{}
260,260,12,0,8.67533333333333,3.1622776601683795,49.36598018878993,8.0,11.04536101718726,12.16552506059644,14.0356688476182,14.142135623730953,36.22154055254967,25.179356624028344,23.5,27.0,21.0,10.0,12.0,1.0,3.0,6.082762530298219,6.0,6.0,20.0,29.0,24.33105012119288,{},{}
261,261,12,0,8.708699999999995,6.082762530298219,50.35871324805669,7.0,11.04536101718726,12.041594578792296,14.0356688476182,13.038404810405298,37.12142238654117,26.0768096208106,23.0,27.0,21.0,11.0,13.0,2.0,4.0,6.0,6.0,6.5,19.0,28.0,25.179356624028344,{},{}
262,262,12,0,8.74206666666666,6.082762530298219,52.23983154643591,8.0,11.04536101718726,13.152946437965904,14.0356688476182,12.041594578792296,37.12142238654117,26.0768096208106,23.0,26.0,21.0,11.5,13.5,2.5,4.5,7.0,7.0,7.0,21.0,29.0,24.08318915758459,{},{}
263,263,12,0,8.775433333333327,5.0990195135927845,53.23532661682466,8.0,11.04536101718726,13.038404810405298,14.0356688476182,12.16552506059644,36.22154055254967,25.179356624028344,22.5,26.0,21.0,11.5,12.5,1.5,4.5,6.0,6.0,6.0,21.0,29.0,24.186773244895647,{},{}
264,264,12,0,8.808799999999993,7.071067811865476,54.230987451824994,8.0,11.0,14.0356688476182,14.0356688476182,11.180339887498947,37.12142238654117,26.1725046566048,22.5,26.0,21.0,12.5,13.5,2.5,4.5,7.0,6.0,6.5,21.0,28.0,25.079872407968907,{},{}
265,265,12,0,8.842166666666659,7.071067811865476,54.230987451824994,9.0,11.0,14.142135623730953,14.0356688476182,11.180339887498947,38.11823710509184,27.16615541441225,23.5,26.0,21.0,12.5,14.5,3.5,4.5,6.0,6.082762530298219,6.0,22.0,29.0,25.179356624028344,{},{}
266,266,12,0,8.875533333333324,8.0,54.147945482723536,8.06225774829855,12.041594578792296,14.0356688476182,15.0,11.180339887498947,39.20459156782532,27.16615541441225,23.0,25.0,21.0,12.0,16.0,4.0,4.0,6.0,7.0,6.5,22.0,28.0,25.179356624028344,{},{}
267,267,12,0,8.90889999999999,8.0,55.14526271584895,8.0,12.041594578792296,14.0356688476182,15.033296378372908,11.180339887498947,39.11521443121589,27.073972741361768,23.0,25.0,21.0,12.0,16.0,4.0,5.0,6.0,7.071067811865476,6.5,22.0,28.0,25.079872407968907,{},{}
268,268,12,0,8.942266666666656,8.06225774829855,56.1426753904728,9.055385138137416,12.0,14.0356688476182,16.0312195418814,11.04536101718726,40.11234224026316,28.16025568065745,24.0,25.0,21.0,12.0,17.0,5.0,4.0,3.0,4.0,3.5,22.0,27.0,25.079872407968907,{},{}
269,269,12,0,8.975633333333322,9.055385138137416,56.1426753904728,8.0,12.0,15.033296378372908,16.0,11.04536101718726,40.049968789001575,28.0713376952364,23.5,25.0,21.0,12.0,17.0,4.0,4.0,1.0,3.0,2.5,24.0,27.0,26.0768096208106,{},{}
270,270,12,0,9.008999999999988,8.06225774829855,56.08029957123981,8.0,13.038404810405298,15.033296378372908,16.0312195418814,11.04536101718726,40.01249804748511,27.073972741361768,23.0,24.0,21.0,11.5,17.5,4.5,4.5,2.0,3.0,2.5,26.0,28.0,26.019223662515376,{},{}
271,271,12,0,9.042366666666654,9.0,56.0357029044876,8.0,12.0,15.0,16.0,11.0,40.0,28.0,23.5,23.0,21.0,11.0,18.0,5.0,3.0,3.0,3.0,3.5,25.0,27.0,27.018512172212592,{},{}
272,272,12,0,9.07573333333332,10.0,57.0350769263968,8.0,11.0,14.0,16.0,11.0,40.0,29.0,24.0,23.0,21.0,11.0,18.0,6.0,3.0,5.0990195135927845,5.0990195135927845,5.0,26.0,27.0,28.0178514522438,{},{}
273,273,12,0,9.109099999999986,9.0,57.0087712549569,8.0,11.0,14.0356688476182,16.0,12.0,40.0,29.0,24.5,23.0,22.0,10.5,17.5,5.5,3.5,6.082762530298219,6.0,6.0,26.0,28.0,26.019223662515376,{},{}
274,274,12,0,9.142466666666651,10.0,57.0087712549569,8.0,11.04536101718726,14.0356688476182,16.0,12.041594578792296,41.0,30.01666203960727,25.0,23.0,22.0,10.5,18.5,6.5,3.5,6.082762530298219,7.0,7.0,27.0,28.0,28.0178514522438,{},{}
275,275,12,0,9.175833333333316,11.04536101718726,56.0,7.071067811865476,12.041594578792296,14.0,16.0312195418814,12.041594578792296,42.0,30.01666203960727,24.5,22.0,22.0,10.0,20.0,8.0,3.0,8.06225774829855,8.0,8.0,27.0,29.0,28.0178514522438,{},{}
276,276,12,0,9.209199999999983,10.0,56.0,7.0,12.0,14.0,15.033296378372908,15.0,44.0,32.0,27.0,23.0,23.0,8.0,21.0,8.0,1.0,8.06225774829855,8.06225774829855,8.0,27.0,28.0,28.0178514522438,{},{}
277,277,12,0,9.242566666666647,9.0,55.00909015790027,7.0,13.038404810405298,13.038404810405298,15.033296378372908,16.0,45.0111097397076,32.0,27.5,22.0,23.0,6.5,22.5,8.5,0.5,8.246211251235321,9.0,8.5,28.0,28.0,26.019223662515376,{},{}
278,278,12,0,9.275933333333317,9.0,54.00925846556311,7.0,12.041594578792296,13.038404810405298,15.033296378372908,16.0312195418814,44.0,32.01562118716424,27.5,22.0,23.0,6.5,21.5,8.5,0.5,9.219544457292889,8.0,8.0,28.0,27.0,28.0,{},{}
279,279,12,0,9.30929999999998,6.0,53.0,7.071067811865476,11.0,12.0,14.0,17.029386365926403,41.0,30.0,27.0,22.0,22.0,5.0,19.0,7.0,1.0,9.219544457292889,8.0,8.0,28.0,27.0,28.0,{},{}
280,280,12,0,9.342666666666648,3.0,54.0,7.0,10.04987562112089,13.0,14.0,16.0,36.013886210738214,26.0,24.5,21.0,21.0,5.0,15.0,4.0,1.0,8.06225774829855,8.0,8.0,27.0,27.0,27.0,{},{}
281,281,12,0,9.376033333333313,2.0,54.00925846556311,6.0,9.055385138137416,13.0,14.0,16.0,33.015148038438355,24.0,23.0,20.0,21.0,4.5,12.5,2.5,1.5,8.06225774829855,9.0,8.5,28.0,27.0,28.0,{},{}
282,282,12,0,9.409399999999978,0.0,53.009433122794285,8.0,10.04987562112089,13.0,14.0356688476182,15.0,33.015148038438355,23.0,23.0,20.0,21.0,5.5,12.5,1.5,1.5,9.219544457292889,9.0,9.0,28.0,28.0,27.0,{},{}
283,283,12,0,9.442766666666644,1.0,53.009433122794285,8.06225774829855,10.04987562112089,13.0,13.038404810405298,15.033296378372908,34.0147027033899,24.0,23.5,20.0,21.0,5.5,13.5,2.5,1.5,8.06225774829855,9.0,9.0,28.0,27.0,27.0,"{'smile': ['m3', 'm12']}","{'smile': [283, 321]}"
284,284,12,0,9.47613333333331,2.23606797749979,53.009433122794285,7.0,11.0,13.038404810405298,14.0356688476182,16.0,36.013886210738214,25.019992006393608,24.0,20.0,21.0,4.5,15.5,3.5,2.5,8.246211251235321,8.0,8.0,28.0,27.0,26.0,"{'smile': ['m3', 'm12']}","{'smile': [283, 321]}"
285,285,12,0,9.509499999999976,4.123105625617661,53.009433122794285,6.0,11.04536101718726,14.0,15.0,17.0,38.05259518088089,27.018512172212592,25.0,21.0,22.0,4.5,16.5,4.5,1.5,8.246211251235321,8.0,8.0,28.0,28.0,27.0,"{'smile': ['m3', 'm12']}","{'smile': [283, 321]}"
286,286,12,0,9.542866666666642,6.082762530298219,53.009433122794285,6.0,10.04987562112089,13.038404810405298,15.033296378372908,16.0,38.05259518088089,28.0178514522438,25.0,21.0,22.0,5.5,16.5,5.5,0.5,8.06225774829855,8.0,8.0,26.0,26.0,28.0,"{'smile': ['m3', 'm12']}","{'smile': [283, 321]}"
287,287,12,0,9.576233333333308,9.0,56.0357029044876,6.082762530298219,10.04987562112089,14.0356688476182,16.0312195418814,15.033296378372908,40.01249804748511,30.0,25.5,21.0,23.0,7.0,18.0,6.0,1.0,8.06225774829855,8.0,8.0,26.0,26.0,27.0,"{'smile': ['m3', 'm12']}","{'smile': [283, 321]}"
288,288,12,0,9.609599999999974,12.0,60.07495318350236,5.0,10.04987562112089,16.0,17.029386365926403,13.0,40.01249804748511,30.0,24.0,19.0,22.0,7.5,19.5,7.5,2.5,7.280109889280518,8.0,8.0,27.0,26.0,27.018512172212592,"{'smile': ['m3', 'm12']}","{'smile': [283, 321]}"
289,289,12,0,9.64296666666664,12.0,62.03224967708329,6.082762530298219,12.0,16.0312195418814,18.027756377319943,12.041594578792296,42.0,30.0,24.0,19.0,21.0,8.0,22.0,9.0,2.0,7.280109889280518,8.0,8.0,27.0,25.0,28.0178514522438,"{'smile': ['m3', 'm12']}","{'smile': [283, 321]}"
290,290,12,0,9.676333333333304,12.0,65.06919393998976,7.071067811865476,12.041594578792296,17.029386365926403,18.027756377319943,11.04536101718726,42.01190307520001,30.0,24.0,19.0,22.0,9.5,21.5,8.5,2.5,7.280109889280518,8.0,7.5,28.0,25.0,27.018512172212592,"{'smile': ['m3', 'm12']}","{'smile': [283, 321]}"
291,291,12,0,9.709699999999971,13.0,66.12110101926616,6.082762530298219,12.041594578792296,17.029386365926403,19.026297590440446,11.04536101718726,42.01190307520001,30.0,23.5,18.0,22.0,9.0,22.0,9.0,3.0,7.280109889280518,7.0,7.0,28.0,24.0,27.073972741361768,"{'smile': ['m3', 'm12']}","{'smile': [283, 321]}"
292,292,12,0,9.743066666666635,13.0,67.11929677819934,6.082762530298219,13.152946437965904,18.027756377319943,19.1049731745428,11.0,43.10452412450461,30.01666203960727,23.5,17.0,21.0,8.0,24.0,10.0,2.0,7.280109889280518,7.0,7.0,29.0,24.0,28.0713376952364,"{'smile': ['m3', 'm12']}","{'smile': [283, 321]}"
293,293,12,0,9.776433333333305,13.038404810405298,69.1158447825099,6.0,12.041594578792296,18.027756377319943,20.024984394500787,11.04536101718726,42.1070065428546,30.066592756745816,23.5,16.0,20.0,7.0,24.0,11.0,1.0,7.280109889280518,7.0,7.0,30.0,24.0,29.068883707497267,"{'smile': ['m3', 'm12']}","{'smile': [283, 321]}"
294,294,12,0,9.809799999999967,12.041594578792296,70.178344238091,6.0,13.038404810405298,19.026297590440446,21.095023109728988,11.04536101718726,42.1070065428546,29.068883707497267,23.0,15.0,20.0,6.5,24.5,10.5,0.5,6.324555320336759,7.071067811865476,6.5,29.0,23.0,29.154759474226505,"{'smile': ['m3', 'm12']}","{'smile': [283, 321]}"
295,295,12,0,9.843166666666637,13.038404810405298,71.11258679024411,6.0,12.041594578792296,19.026297590440446,21.095023109728988,11.04536101718726,42.1070065428546,30.066592756745816,23.5,15.0,19.0,6.0,25.0,11.0,0.0,6.324555320336759,6.0,6.0,29.0,23.0,29.068883707497267,"{'smile': ['m3', 'm12']}","{'smile': [283, 321]}"
296,296,12,0,9.8765333333333,13.038404810405298,72.06247289678588,7.0,12.041594578792296,19.026297590440446,21.02379604162864,11.04536101718726,43.10452412450461,31.064449134018133,24.5,17.0,20.0,7.5,24.5,11.5,0.5,6.324555320336759,6.0,6.0,29.0,24.0,27.073972741361768,"{'smile': ['m3', 'm12']}","{'smile': [283, 321]}"
297,297,12,0,9.909899999999968,14.0356688476182,73.02739212103907,7.071067811865476,12.0,20.024984394500787,21.02379604162864,12.041594578792296,45.09988913511872,33.13608305156178,26.0,19.0,21.0,8.0,25.0,13.0,2.0,7.071067811865476,7.0,7.0,28.0,24.0,28.0178514522438,"{'smile': ['m3', 'm12']}","{'smile': [283, 321]}"
298,298,12,0,9.943266666666633,15.033296378372908,73.0,7.0,13.038404810405298,20.0,22.0,12.0,47.042533945356304,34.0147027033899,26.5,21.0,21.0,9.0,26.0,12.0,3.0,6.082762530298219,6.0,6.0,28.0,25.0,28.0713376952364,"{'smile': ['m3', 'm12']}","{'smile': [283, 321]}"
299,299,12,0,9.976633333333298,17.029386365926403,73.00684899377592,7.0,13.0,19.0,21.02379604162864,12.0,49.01020301937138,36.013886210738214,27.5,23.0,22.0,10.5,26.5,13.5,4.5,6.082762530298219,5.0,5.0,27.0,25.0,28.0178514522438,"{'smile': ['m3', 'm12']}","{'smile': [283, 321]}"
300,300,12,0,10.009999999999964,19.0,74.02702209328699,7.0,13.0,20.0,21.02379604162864,12.041594578792296,51.0098029794274,38.01315561749642,28.5,24.0,22.0,11.0,28.0,14.0,5.0,5.0990195135927845,6.0,5.5,27.0,27.0,29.0,"{'smile': ['m3', 'm12']}","{'smile': [283, 321]}"
301,301,12,0,10.04336666666663,20.0,73.02739212103907,7.0,12.0,19.026297590440446,21.02379604162864,12.041594578792296,51.0098029794274,39.01281840626232,29.0,25.0,23.0,12.0,27.0,14.0,6.0,5.0,6.0,5.5,26.0,26.0,29.0,"{'smile': ['m3', 'm12']}","{'smile': [283, 321]}"
302,302,12,0,10.076733333333296,19.0,73.06161783043132,8.0,12.0,20.0,22.02271554554524,12.041594578792296,51.0098029794274,39.01281840626232,29.5,26.0,23.0,12.5,26.5,13.5,5.5,5.0,5.0,5.0,26.0,26.0,28.0,"{'smile': ['m3', 'm12']}","{'smile': [283, 321]}"
303,303,12,0,10.110099999999962,20.024984394500787,73.06161783043132,7.0,11.0,20.024984394500787,21.02379604162864,12.0,50.00999900019995,39.01281840626232,29.0,26.0,23.0,12.5,25.5,14.5,6.5,5.0,6.0,5.5,25.0,26.0,28.0178514522438,"{'smile': ['m3', 'm12']}","{'smile': [283, 321]}"
304,304,12,0,10.143466666666628,18.0,72.06247289678588,6.0,12.0,20.0,22.02271554554524,13.0,49.0,37.0,28.0,25.0,22.0,10.5,25.5,13.5,5.5,5.0,4.0,4.0,25.0,26.0,29.017236257093817,"{'smile': ['m3', 'm12']}","{'smile': [283, 321]}"
305,305,12,0,10.176833333333294,19.026297590440446,71.06335201775947,6.0,11.04536101718726,19.026297590440446,21.02379604162864,12.041594578792296,48.010415536631214,37.0,27.5,24.0,21.0,10.5,25.5,14.5,5.5,2.0,2.23606797749979,2.0,26.0,27.0,28.0,"{'smile': ['m3', 'm12']}","{'smile': [283, 321]}"
306,306,12,0,10.21019999999996,18.0,71.06335201775947,7.0,12.0,19.0,21.02379604162864,11.0,48.0,36.0,27.0,23.0,20.0,10.5,26.5,14.5,4.5,2.0,2.0,2.0,26.0,27.0,27.0,"{'smile': ['m3', 'm12']}","{'smile': [283, 321]}"
307,307,12,0,10.243566666666624,18.0,71.06335201775947,6.0,12.041594578792296,19.0,21.0,12.0,48.010415536631214,36.0,27.0,23.0,20.0,9.5,26.5,14.5,3.5,1.0,1.0,1.0,25.0,26.0,28.0,"{'smile': ['m3', 'm12']}","{'smile': [283, 321]}"
308,308,12,0,10.276933333333291,18.0,71.02816342831905,6.0,11.0,18.027756377319943,20.024984394500787,12.0,47.0,36.0,27.0,22.0,20.0,9.0,26.0,15.0,4.0,2.0,3.0,3.0,26.0,27.0,27.0,"{'smile': ['m3', 'm12']}","{'smile': [283, 321]}"
309,309,12,0,10.310299999999955,17.0,70.06425622241343,6.0,11.0,19.026297590440446,21.02379604162864,12.0,46.0,35.0,26.5,22.0,19.0,8.5,25.5,14.5,3.5,4.123105625617661,4.0,4.0,25.0,26.0,27.0,"{'smile': ['m3', 'm12']}","{'smile': [283, 321]}"
310,310,12,0,10.343666666666625,17.0,69.02897942168927,6.0,11.0,19.026297590440446,21.02379604162864,11.0,45.0,34.0,25.5,21.0,19.0,9.0,25.0,14.0,4.0,5.0,5.0,5.0,25.0,25.0,27.0,"{'smile': ['m3', 'm12']}","{'smile': [283, 321]}"
311,311,12,0,10.377033333333287,17.0,70.06425622241343,6.0,11.0,19.026297590440446,21.02379604162864,11.04536101718726,45.0111097397076,34.0147027033899,25.5,20.0,17.0,7.5,26.5,14.5,2.5,5.0,5.0,4.5,25.0,26.0,26.0,"{'smile': ['m3', 'm12']}","{'smile': [283, 321]}"
312,312,12,0,10.410399999999957,16.0,68.06614430096654,6.0,11.0,18.0,20.024984394500787,12.0,45.0,34.0,26.0,21.0,18.0,7.5,25.5,13.5,2.5,5.0990195135927845,6.0,5.5,25.0,25.0,26.0,"{'smile': ['m3', 'm12']}","{'smile': [283, 321]}"
313,313,12,0,10.44376666666662,15.0,67.06713054842886,6.0,12.0,18.027756377319943,19.026297590440446,11.0,44.0,32.0,24.5,20.0,17.0,7.5,25.5,13.5,2.5,5.0,6.0,6.0,25.0,25.0,27.0,"{'smile': ['m3', 'm12']}","{'smile': [283, 321]}"
314,314,12,0,10.477133333333288,14.0,65.03076195155643,6.0,12.0,17.029386365926403,18.027756377319943,11.0,43.0,31.0,24.0,20.0,18.0,8.0,24.0,12.0,3.0,5.0,5.0,5.0,25.0,25.0,27.018512172212592,"{'smile': ['m3', 'm12']}","{'smile': [283, 321]}"
315,315,12,0,10.510499999999952,13.0,63.0317380372777,6.0,12.0,16.0312195418814,18.027756377319943,11.0,42.0,30.0,23.5,20.0,18.0,8.0,23.0,11.0,3.0,5.0,6.0,5.5,25.0,26.0,25.0,"{'smile': ['m3', 'm12']}","{'smile': [283, 321]}"
316,316,12,0,10.543866666666618,11.04536101718726,62.03224967708329,6.082762530298219,13.038404810405298,17.0,18.027756377319943,12.041594578792296,42.0,29.017236257093817,23.5,21.0,19.0,8.0,22.0,9.0,2.0,6.0,6.0,5.5,25.0,26.0,26.0,"{'smile': ['m3', 'm12']}","{'smile': [283, 321]}"
317,317,12,0,10.577233333333284,10.0,61.07372593840988,7.0,12.0,15.0,17.0,12.0,41.0,29.0,24.0,21.0,18.0,7.5,21.5,8.5,1.5,6.0,6.0,5.5,25.0,26.0,27.018512172212592,"{'smile': ['m3', 'm12']}","{'smile': [283, 321]}"
318,318,12,0,10.61059999999995,8.0,60.03332407921454,7.0,12.0,15.0,17.0,12.0,39.0,27.0,23.0,20.0,18.0,7.0,20.0,7.0,1.0,5.0,6.0,6.0,25.0,25.0,26.0,"{'smile': ['m3', 'm12']}","{'smile': [283, 321]}"
319,319,12,0,10.643966666666616,6.082762530298219,59.033888572581766,6.0,12.0,15.0,17.029386365926403,14.0,38.01315561749642,26.019223662515376,23.0,20.0,18.0,5.0,19.0,7.0,1.0,6.082762530298219,6.082762530298219,6.0,25.0,26.0,25.0,"{'smile': ['m3', 'm12']}","{'smile': [283, 321]}"
320,320,12,0,10.677333333333282,3.0,58.034472514187634,7.0,11.0,15.033296378372908,17.029386365926403,15.0,36.0,25.0,23.5,20.0,18.0,4.0,17.0,6.0,2.0,6.0,5.0,5.0,25.0,26.0,25.0,"{'smile': ['m3', 'm12']}","{'smile': [283, 321]}"
321,321,12,0,10.710699999999948,2.23606797749979,59.00847396772772,7.071067811865476,10.0,15.033296378372908,16.0,15.033296378372908,34.0147027033899,24.020824298928627,23.0,19.0,18.0,3.5,15.5,4.5,2.5,6.0,7.0,7.0,24.0,25.0,25.019992006393608,"{'smile': ['m3', 'm12']}","{'smile': [283, 321]}"
322,322,12,0,10.744066666666614,0.0,58.00862004909271,7.0,11.0,15.033296378372908,16.0,15.0,33.0,22.0,22.0,19.0,18.0,3.5,14.5,3.5,2.5,6.082762530298219,6.082762530298219,6.0,24.0,25.0,24.020824298928627,{},{}
323,323,12,0,10.77743333333328,0.0,57.0087712549569,7.0,10.0,14.0,16.0,15.0,32.0,22.0,22.0,19.0,18.0,3.5,13.5,2.5,2.5,6.0,6.0,6.0,25.0,25.0,25.0,{},{}
324,324,12,0,10.810799999999944,1.0,58.00862004909271,7.0,10.0,14.0,15.0,15.0,32.01562118716424,22.02271554554524,22.0,19.0,18.0,3.5,13.5,2.5,2.5,6.082762530298219,6.0,6.0,25.0,25.0,25.0,{},{}
325,325,12,0,10.844166666666611,1.4142135623730951,57.0087712549569,7.0,11.0,14.0,15.0,15.033296378372908,32.0,21.0,21.5,19.0,18.0,3.5,13.5,2.5,2.5,6.0,6.0,6.0,25.0,25.0,25.0,{},{}
326,326,12,0,10.877533333333275,0.0,58.00862004909271,7.0,10.0,14.0,16.0,15.0,32.0,22.0,22.0,19.0,18.0,3.5,13.5,2.5,2.5,6.082762530298219,6.0,5.5,26.0,25.0,24.020824298928627,{},{}
327,327,12,0,10.910899999999945,1.0,59.0,7.0,10.0,15.033296378372908,16.0,15.033296378372908,33.015148038438355,23.021728866442675,22.5,19.0,19.0,4.0,14.0,3.0,2.0,5.0990195135927845,5.0,5.0,25.0,25.0,25.019992006393608,{},{}
328,328,12,0,10.944266666666609,0.0,58.00862004909271,8.0,12.0,15.0,16.0312195418814,15.0,35.0,23.0,23.0,20.0,19.0,4.5,15.5,3.5,2.5,2.0,3.1622776601683795,2.5,26.0,26.0,25.0,{},{}
329,329,12,0,10.977633333333277,5.0,57.0087712549569,6.0,11.0,14.0,16.0,15.0,37.0,26.0,23.5,21.0,20.0,5.5,16.5,5.5,0.5,1.0,2.23606797749979,2.0,26.0,26.0,24.020824298928627,{},{}
330,330,12,0,11.01099999999994,8.0,58.00862004909271,7.071067811865476,11.0,15.033296378372908,17.029386365926403,13.038404810405298,39.0,28.0,24.0,21.0,20.0,7.5,18.5,6.5,1.5,3.0,3.0,2.5,26.0,26.0,25.0,{},{}
331,331,12,0,11.044366666666606,10.0,58.00862004909271,7.0,11.0,16.0312195418814,16.0312195418814,13.038404810405298,41.01219330881976,30.01666203960727,25.0,21.0,20.0,7.5,20.5,9.5,1.5,3.0,3.0,3.0,25.0,26.0,25.0,{},{}
332,332,12,0,11.077733333333272,12.0,58.00862004909271,6.0,11.0,15.0,17.0,14.0,43.0,32.0,26.0,22.0,21.0,7.5,21.5,9.5,1.5,4.0,4.0,4.0,25.0,25.0,25.0,{},{}
333,333,12,0,11.111099999999938,12.0,58.034472514187634,7.0,12.0,16.0,17.029386365926403,13.0,44.0,32.0,26.0,23.0,21.0,9.0,22.0,10.0,3.0,4.0,4.0,3.5,25.0,26.0,25.0,{},{}
334,334,12,0,11.144466666666604,13.0,57.0087712549569,6.0,12.0,15.0,17.029386365926403,13.0,44.0,32.0,25.5,22.0,21.0,8.5,22.5,10.5,2.5,4.0,4.0,4.0,26.0,26.0,25.0,{},{}
335,335,12,0,11.17783333333327,14.0356688476182,57.0087712549569,7.0,12.0,16.0312195418814,17.0,13.038404810405298,46.0,34.0,27.0,23.0,22.0,9.5,23.5,10.5,3.5,4.0,5.0,4.5,25.0,25.0,25.0,{},{}
336,336,12,0,11.211199999999936,14.0,57.0350769263968,7.0,12.041594578792296,16.0312195418814,17.029386365926403,13.038404810405298,46.0,34.0147027033899,27.0,24.0,22.0,10.0,23.0,11.0,4.0,4.0,5.0,4.0,24.0,24.0,24.020824298928627,{},{}
337,337,12,0,11.244566666666602,15.0,58.034472514187634,7.0,12.0,16.0312195418814,17.029386365926403,13.038404810405298,47.01063709417264,35.0142828000232,27.5,24.0,22.0,10.0,24.0,12.0,4.0,4.0,5.0,4.0,25.0,25.0,25.0,{},{}
338,338,12,0,11.277933333333268,15.0,58.00862004909271,7.0,12.0,16.0,18.027756377319943,13.0,47.0,35.0,27.5,24.0,23.0,10.5,23.5,11.5,3.5,4.0,5.0990195135927845,4.0,24.0,24.0,25.0,{},{}
339,339,12,0,11.311299999999934,15.033296378372908,57.0350769263968,7.071067811865476,13.0,15.0,17.029386365926403,13.038404810405298,48.010415536631214,35.0142828000232,27.5,25.0,23.0,11.0,24.0,11.0,4.0,5.0,5.0990195135927845,5.0,24.0,24.0,25.019992006393608,{},{}
340,340,12,0,11.3446666666666,15.0,57.0350769263968,7.0,14.0356688476182,15.0,17.029386365926403,12.041594578792296,48.0,34.0147027033899,26.5,24.0,22.0,11.0,25.0,11.0,4.0,4.0,5.0,4.5,24.0,24.0,25.0,{},{}
341,341,12,0,11.378033333333263,14.0,57.0350769263968,8.0,14.0,16.0,17.029386365926403,12.0,48.0,34.0,27.0,24.0,22.0,11.0,25.0,11.0,4.0,4.123105625617661,4.0,4.0,24.0,24.0,25.0,{},{}
342,342,12,0,11.411399999999931,17.0,58.00862004909271,6.0,13.0,16.0,18.0,13.0,49.0,36.0,27.5,24.0,23.0,10.5,25.5,12.5,4.5,5.0,4.0,4.0,24.0,24.0,25.019992006393608,{},{}
343,343,12,0,11.444766666666595,17.0,58.00862004909271,7.0,12.0,15.033296378372908,18.0,13.0,49.0,37.0,28.5,24.0,23.0,10.5,25.5,12.5,4.5,5.0990195135927845,5.0,4.5,25.0,25.0,26.019223662515376,{},{}
344,344,12,0,11.478133333333265,16.0,60.00833275470999,7.0,13.0,16.0,18.0,13.0,49.0,36.0,28.0,24.0,23.0,10.5,25.5,12.5,3.5,5.0990195135927845,5.0,4.5,25.0,24.0,25.019992006393608,{},{}
345,345,12,0,11.511499999999929,17.029386365926403,59.00847396772772,6.0,11.04536101718726,17.0,18.027756377319943,13.0,47.0,36.013886210738214,27.5,23.0,22.0,9.5,24.5,12.5,3.5,5.0,5.0990195135927845,4.5,25.0,24.0,26.019223662515376,{},{}
346,346,12,0,11.544866666666596,16.0,59.00847396772772,7.0,11.0,16.0,18.0,13.0,47.0,36.0,28.0,23.0,22.0,9.5,24.5,12.5,3.5,5.0,5.0,5.0,25.0,24.0,26.0,{},{}
347,347,12,0,11.57823333333326,14.0,57.0,7.0,12.041594578792296,16.0,17.0,13.038404810405298,46.0,34.0147027033899,27.0,23.0,23.0,10.0,23.0,11.0,3.0,5.0,5.0990195135927845,4.5,25.0,24.0,25.0,{},{}
348,348,12,0,11.611599999999926,12.041594578792296,58.0,7.071067811865476,11.04536101718726,15.0,17.0,14.0356688476182,44.0,33.015148038438355,27.0,22.0,22.0,8.0,22.0,10.0,2.0,5.0,5.0,4.5,25.0,24.0,24.0,{},{}
349,349,12,0,11.644966666666592,8.0,54.00925846556311,7.0,11.0,14.0356688476182,15.0,16.0,42.0,31.0,27.0,23.0,22.0,6.5,19.5,7.5,0.5,5.0,5.0,4.5,25.0,24.0,25.0,{},{}
350,350,12,0,11.678333333333258,3.0,53.0,7.0,11.0,14.0,14.0,16.0312195418814,37.01351104664349,26.019223662515376,24.5,22.0,22.0,6.0,15.0,4.0,1.0,5.0990195135927845,6.0,5.0,25.0,24.0,23.021728866442675,{},{}
351,351,12,0,11.711699999999924,2.0,52.009614495783374,6.0,10.0,14.0,15.033296378372908,17.029386365926403,35.0142828000232,25.019992006393608,24.0,22.0,21.0,4.5,13.5,2.5,1.5,5.0,6.082762530298219,5.5,26.0,25.0,23.021728866442675,{},{}
352,352,12,0,11.74506666666659,0.0,52.009614495783374,8.06225774829855,11.0,13.0,15.0,16.0312195418814,35.0,24.0,24.0,22.0,21.0,5.5,13.5,2.5,1.5,5.0,5.0990195135927845,5.0,25.0,25.0,23.021728866442675,{},{}
353,353,12,0,11.778433333333256,4.123105625617661,52.03844732503075,7.071067811865476,12.041594578792296,15.033296378372908,15.0,15.033296378372908,38.0,26.019223662515376,24.0,23.0,21.0,7.0,16.0,4.0,1.0,5.0990195135927845,5.0,4.5,26.0,26.0,25.0,{},{}
354,354,12,0,11.811799999999922,4.0,51.0098029794274,7.0,12.0,14.0,15.0,16.0,39.0,27.0,25.0,24.0,23.0,7.5,15.5,3.5,1.5,4.0,6.0,5.0,25.0,26.0,24.0,{},{}
355,355,12,0,11.845166666666588,3.1622776601683795,52.009614495783374,7.071067811865476,11.0,13.0,15.033296378372908,16.0312195418814,37.01351104664349,26.019223662515376,24.5,23.0,22.0,6.5,14.5,2.5,0.5,5.0990195135927845,5.0,5.0,26.0,27.0,25.0,{},{}
356,356,12,0,11.878533333333252,1.4142135623730951,50.00999900019995,7.071067811865476,11.04536101718726,13.0,14.0,17.029386365926403,36.0,25.019992006393608,24.5,23.0,22.0,5.5,13.5,1.5,0.5,5.0990195135927845,6.0,5.5,26.0,27.0,23.0,{},{}
357,357,12,0,11.91189999999992,1.0,52.03844732503075,7.0,11.0,14.0,14.0,17.029386365926403,36.013886210738214,25.019992006393608,24.5,24.0,22.0,6.0,13.0,1.0,1.0,6.082762530298219,5.0,5.0,27.0,27.0,23.0,{},{}
358,358,12,0,11.945266666666583,1.0,50.0,7.0,11.04536101718726,13.0,15.0,16.0312195418814,35.0,24.020824298928627,23.5,23.0,23.0,7.0,12.0,0.0,0.0,6.082762530298219,6.082762530298219,5.5,27.0,28.0,24.0,{},{}
359,359,12,0,11.978633333333253,2.0,48.010415536631214,7.0,11.0,13.0,14.0356688476182,16.1245154965971,36.05551275463989,25.079872407968907,24.0,24.0,23.0,7.5,12.5,0.5,1.5,6.0,5.0,5.0,26.0,27.0,24.0,{},{}
360,360,12,0,12.011999999999915,2.0,48.010415536631214,8.0,11.04536101718726,13.0,14.0,15.033296378372908,36.05551275463989,25.019992006393608,24.0,24.0,23.0,8.5,12.5,1.5,1.5,6.0,5.0990195135927845,5.0,27.0,28.0,23.021728866442675,{},{}
361,361,12,0,12.045366666666585,6.0,49.04079934095692,6.0,11.0,12.0,14.0356688476182,14.0356688476182,37.01351104664349,26.019223662515376,23.0,25.0,23.0,10.0,13.0,2.0,4.0,6.0,6.0,5.5,27.0,28.0,23.0,{},{}
362,362,12,0,12.078733333333249,8.06225774829855,51.0098029794274,7.071067811865476,11.04536101718726,13.0,15.0,12.041594578792296,38.0,27.018512172212592,23.0,24.0,23.0,11.5,14.5,3.5,4.5,4.0,6.082762530298219,5.0,28.0,29.0,25.0,{},{}
363,363,12,0,12.112099999999916,7.071067811865476,54.00925846556311,8.06225774829855,12.0,15.033296378372908,16.0,12.041594578792296,39.01281840626232,27.018512172212592,23.5,24.0,23.0,11.5,15.5,3.5,4.5,5.0,5.0,5.0,27.0,28.0,26.0,{},{}
364,364,12,0,12.14546666666658,7.071067811865476,56.0357029044876,8.0,13.0,15.0,16.0,12.0,40.01249804748511,27.018512172212592,23.5,25.0,23.0,12.0,16.0,3.0,4.0,5.0,5.0,4.5,27.0,28.0,26.0,{},{}
365,365,12,0,12.178833333333246,8.0,56.0357029044876,8.0,13.0,15.0,17.029386365926403,12.041594578792296,41.01219330881976,28.0178514522438,24.0,25.0,23.0,12.0,17.0,4.0,4.0,5.0,5.0990195135927845,5.0,27.0,28.0,27.0,{},{}
366,366,12,0,12.212199999999912,11.0,58.034472514187634,8.0,13.0,15.0,17.029386365926403,12.0,44.0,31.0,25.5,25.0,23.0,12.0,20.0,7.0,4.0,5.0,6.082762530298219,5.5,27.0,28.0,27.0,{},{}
367,367,12,0,12.245566666666578,11.04536101718726,58.034472514187634,8.06225774829855,13.0,15.0,17.0,12.041594578792296,44.01136216933077,31.016124838541646,25.5,25.0,23.0,12.0,20.0,7.0,4.0,5.0,5.0990195135927845,5.0,27.0,28.0,26.0,{},{}
368,368,12,0,12.278933333333244,8.06225774829855,57.0350769263968,8.06225774829855,14.0356688476182,15.0,17.029386365926403,13.038404810405298,43.0,29.017236257093817,25.0,26.0,24.0,12.0,18.0,4.0,4.0,5.0990195135927845,6.0,5.0,27.0,28.0,27.0,{},{}
369,369,12,0,12.31229999999991,7.071067811865476,56.08029957123981,8.06225774829855,13.0,15.033296378372908,17.029386365926403,13.038404810405298,41.01219330881976,28.0178514522438,24.5,25.0,22.0,10.5,17.5,4.5,3.5,4.0,4.0,3.5,28.0,28.0,27.0,{},{}
370,370,12,0,12.345666666666576,8.0,53.03772242470448,7.071067811865476,12.0,14.0,15.033296378372908,13.038404810405298,40.0,28.0,24.0,24.0,22.0,10.0,17.0,5.0,3.0,2.0,2.23606797749979,2.0,29.0,29.0,27.0,{},{}
371,371,12,0,12.379033333333242,4.0,52.03844732503075,8.0,13.0,14.0,15.0,13.0,38.0,25.0,23.0,24.0,22.0,10.0,15.0,2.0,2.0,2.0,3.0,3.0,27.0,27.0,26.019223662515376,{},{}
372,372,12,0,12.412399999999908,3.0,52.03844732503075,8.0,13.0,14.0,15.033296378372908,14.0,38.0,25.0,23.5,24.0,22.0,9.0,15.0,2.0,2.0,3.1622776601683795,4.123105625617661,3.5,28.0,28.0,26.019223662515376,{},{}
373,373,12,0,12.445766666666572,5.0,53.08483775994799,7.0,12.0,14.0,15.033296378372908,14.0,38.0,26.0,23.5,24.0,21.0,8.5,15.5,3.5,1.5,2.0,3.1622776601683795,2.5,29.0,28.0,27.018512172212592,{},{}
374,374,12,0,12.47913333333324,3.0,52.03844732503075,7.0,12.0,13.0,15.0,15.0,37.0,25.0,23.5,24.0,22.0,8.0,14.0,2.0,1.0,3.1622776601683795,4.123105625617661,3.5,28.0,27.0,27.0,{},{}
375,375,12,0,12.512499999999903,4.0,52.009614495783374,7.0,11.0,13.0,15.0,15.0,37.0,26.0,24.0,23.0,22.0,7.5,14.5,2.5,0.5,5.0,5.0,5.0,27.0,27.0,28.0,{},{}
376,376,12,0,12.545866666666573,2.0,51.03920062069938,7.0,12.0,12.0,14.0,16.0,37.0,25.0,24.0,24.0,22.0,7.0,14.0,2.0,1.0,6.082762530298219,6.0,6.0,27.0,27.0,27.0,{},{}
377,377,12,0,12.579233333333235,3.0,50.00999900019995,7.071067811865476,12.0,13.0,14.0356688476182,16.0312195418814,38.0,26.0,24.5,24.0,23.0,7.5,14.5,1.5,0.5,6.082762530298219,7.0,7.0,28.0,28.0,27.0,{},{}
378,378,12,0,12.612599999999905,3.1622776601683795,51.0098029794274,7.0,12.0,13.0,14.0,16.0,38.01315561749642,26.019223662515376,24.5,24.0,23.0,7.5,14.5,1.5,0.5,7.071067811865476,8.0,8.0,27.0,27.0,27.0,{},{}
379,379,12,0,12.645966666666569,3.0,51.0,7.0,12.0,12.0,13.0,16.0,38.0,26.0,24.5,23.0,23.0,7.0,15.0,2.0,0.0,7.071067811865476,7.0,7.0,28.0,28.0,26.0,{},{}
380,380,12,0,12.679333333333236,1.0,50.0,7.0,11.04536101718726,12.0,13.038404810405298,18.0,37.01351104664349,26.0,25.5,23.0,23.0,5.0,14.0,3.0,1.0,8.06225774829855,8.0,8.0,28.0,27.0,27.018512172212592,{},{}
381,381,12,0,12.7126999999999,2.0,50.0,7.0,11.04536101718726,13.0,14.0,17.0,37.01351104664349,26.0,25.0,23.0,23.0,6.0,14.0,2.0,1.0,8.06225774829855,8.0,8.0,28.0,27.0,26.019223662515376,{},{}
382,382,12,0,12.746066666666566,2.0,50.0,7.071067811865476,10.0,13.038404810405298,14.0356688476182,16.0,35.0142828000232,25.019992006393608,24.0,22.0,22.0,6.0,13.0,2.0,1.0,8.06225774829855,8.0,8.5,29.0,28.0,25.0,{},{}
383,383,12,0,12.779433333333232,2.0,50.0,7.0,11.04536101718726,12.041594578792296,13.038404810405298,16.0312195418814,36.05551275463989,25.019992006393608,24.0,22.0,22.0,6.0,14.0,2.0,1.0,8.06225774829855,9.0,8.5,29.0,28.0,25.0,{},{}
384,384,12,0,12.812799999999898,7.071067811865476,50.00999900019995,5.0,10.0,13.0,14.0,15.033296378372908,37.05401462729781,27.073972741361768,23.5,22.0,23.0,7.5,14.5,3.5,2.5,8.06225774829855,8.0,8.0,29.0,27.0,26.0,{},{}
385,385,12,0,12.846166666666564,9.055385138137416,51.03920062069938,5.0,12.0,13.0,15.0,14.0356688476182,40.049968789001575,28.0713376952364,23.5,22.0,24.0,9.0,17.0,5.0,4.0,8.06225774829855,9.0,9.0,30.0,27.0,27.018512172212592,{},{}
386,386,12,0,12.87953333333323,11.04536101718726,51.03920062069938,5.0990195135927845,10.0,13.038404810405298,15.033296378372908,14.0356688476182,40.11234224026316,30.14962686336267,24.5,22.0,24.0,9.0,17.0,6.0,4.0,8.06225774829855,8.0,8.0,29.0,25.0,26.019223662515376,{},{}
387,387,12,0,12.912899999999896,9.055385138137416,52.03844732503075,5.0990195135927845,11.04536101718726,14.0,15.033296378372908,14.0356688476182,39.20459156782532,28.16025568065745,23.5,22.0,24.0,9.0,16.0,5.0,4.0,8.246211251235321,9.055385138137416,9.0,30.0,25.0,26.0768096208106,{},{}
388,388,12,0,12.946266666666562,7.0,50.039984012787215,6.082762530298219,11.180339887498947,13.038404810405298,15.0,13.038404810405298,37.21558813185679,26.0768096208106,22.5,21.0,23.0,9.0,15.0,4.0,3.0,8.06225774829855,9.055385138137416,8.5,31.0,27.0,26.019223662515376,{},{}
389,389,12,0,12.979633333333227,8.0,49.09175083453431,5.0990195135927845,11.04536101718726,13.038404810405298,14.0,14.0356688476182,38.11823710509184,27.073972741361768,23.0,21.0,24.0,8.5,15.5,3.5,3.5,8.246211251235321,9.0,8.5,31.0,25.0,26.1725046566048,{},{}
390,390,12,0,13.012999999999892,5.0,46.09772228646444,7.071067811865476,12.041594578792296,11.04536101718726,13.038404810405298,14.142135623730953,38.2099463490856,26.1725046566048,23.5,22.0,25.0,9.5,14.5,2.5,2.5,8.246211251235321,8.0,8.0,31.0,25.0,27.073972741361768,{},{}
391,391,12,0,13.04636666666656,6.082762530298219,45.17742799230607,7.071067811865476,12.041594578792296,11.04536101718726,12.041594578792296,14.0356688476182,39.20459156782532,27.16615541441225,24.0,23.0,27.0,11.0,14.0,2.0,4.0,8.246211251235321,9.055385138137416,9.0,31.0,25.0,26.1725046566048,{},{}
392,392,12,0,13.079733333333223,5.0990195135927845,44.10215414239989,8.06225774829855,12.041594578792296,11.04536101718726,12.041594578792296,14.0356688476182,39.20459156782532,27.16615541441225,24.5,24.0,27.0,11.5,13.5,0.5,3.5,8.06225774829855,8.06225774829855,8.5,31.0,23.0,27.16615541441225,{},{}
393,393,12,0,13.113099999999893,6.082762530298219,44.28317965096906,8.06225774829855,13.038404810405298,11.04536101718726,12.041594578792296,14.0356688476182,41.19465984809196,28.16025568065745,25.0,24.0,29.0,12.5,14.5,0.5,3.5,8.06225774829855,8.06225774829855,8.0,33.0,23.0,26.30589287593181,{},{}
394,394,12,0,13.146466666666557,7.071067811865476,42.42640687119285,8.06225774829855,13.038404810405298,10.198039027185567,12.16552506059644,15.033296378372908,43.18564576337837,30.14962686336267,26.5,25.0,31.0,13.0,15.0,1.0,4.0,8.06225774829855,8.06225774829855,8.0,33.0,22.0,26.30589287593181,{},{}
395,395,12,0,13.179833333333224,7.071067811865476,43.56604182158393,8.06225774829855,12.041594578792296,10.198039027185567,12.041594578792296,15.132745950421556,42.2965719651132,30.265491900843116,26.5,24.0,31.0,12.5,14.5,0.5,3.5,8.246211251235321,8.06225774829855,8.0,33.0,22.0,27.29468812791236,{},{}
396,396,12,0,13.213199999999889,4.123105625617661,43.56604182158393,9.055385138137416,11.04536101718726,10.198039027185567,12.16552506059644,14.0356688476182,38.2099463490856,27.16615541441225,25.0,23.0,30.0,12.5,11.5,1.5,2.5,8.246211251235321,8.06225774829855,7.5,33.0,21.0,26.476404589747453,{},{}
397,397,12,0,13.246566666666554,3.1622776601683795,48.507731342539614,9.055385138137416,11.180339887498947,12.16552506059644,13.152946437965904,13.038404810405298,36.345563690772494,25.179356624028344,23.5,20.0,27.0,10.5,12.5,0.5,1.5,8.246211251235321,8.06225774829855,7.5,34.0,21.0,25.495097567963924,{},{}
398,398,12,0,13.27993333333322,5.0990195135927845,49.64876634922564,7.071067811865476,11.180339887498947,12.16552506059644,13.152946437965904,13.152946437965904,36.49657518178932,25.317977802344327,22.5,19.0,27.0,10.0,13.0,1.0,2.0,8.246211251235321,8.246211251235321,8.0,33.0,20.0,27.459060435491963,{},{}
399,399,12,0,13.313299999999886,6.082762530298219,51.47815070493501,7.071067811865476,11.180339887498947,12.16552506059644,13.152946437965904,12.16552506059644,36.49657518178932,25.317977802344327,22.0,19.0,26.0,10.5,13.5,1.5,2.5,7.280109889280518,7.071067811865476,7.0,33.0,21.0,25.495097567963924,{},{}
400,400,12,0,13.346666666666552,8.06225774829855,50.48762224545735,7.071067811865476,11.180339887498947,13.152946437965904,14.0356688476182,11.180339887498947,37.48332962798263,26.30589287593181,22.0,20.0,27.0,12.5,13.5,1.5,4.5,7.280109889280518,7.071067811865476,7.5,32.0,21.0,25.179356624028344,{},{}
401,401,12,0,13.380033333333218,9.055385138137416,50.48762224545735,6.324555320336759,11.04536101718726,13.152946437965904,14.0356688476182,12.041594578792296,38.3275357934736,27.29468812791236,22.5,21.0,28.0,12.5,13.5,1.5,5.5,8.246211251235321,8.06225774829855,7.5,32.0,21.0,24.33105012119288,{},{}
402,402,12,0,13.413399999999884,10.04987562112089,49.36598018878993,6.082762530298219,11.180339887498947,12.16552506059644,14.0356688476182,12.16552506059644,39.45883931389772,28.284271247461906,23.0,21.0,27.0,12.0,15.0,3.0,5.0,8.246211251235321,8.06225774829855,8.0,31.0,21.0,25.317977802344327,{},{}
403,403,12,0,13.44676666666655,11.04536101718726,49.25444142409901,6.0,10.198039027185567,13.152946437965904,14.142135623730953,11.180339887498947,38.3275357934736,28.16025568065745,22.5,21.0,26.0,12.5,14.5,3.5,5.5,7.280109889280518,8.06225774829855,7.5,30.0,21.0,23.194827009486403,{},{}
404,404,12,0,13.480133333333216,11.0,49.25444142409901,6.082762530298219,11.180339887498947,13.038404810405298,14.0356688476182,12.16552506059644,40.311288741492746,29.154759474226505,23.5,22.0,27.0,12.5,15.5,3.5,5.5,8.06225774829855,8.06225774829855,7.5,31.0,22.0,24.186773244895647,{},{}
405,405,12,0,13.51349999999988,11.04536101718726,50.24937810560445,6.082762530298219,11.04536101718726,13.152946437965904,14.0356688476182,11.180339887498947,39.319206502675,28.284271247461906,22.5,21.0,26.0,12.5,15.5,3.5,5.5,7.071067811865476,8.06225774829855,7.5,30.0,21.0,25.179356624028344,{},{}
406,406,12,0,13.546866666666547,11.0,49.25444142409901,6.082762530298219,11.180339887498947,13.152946437965904,14.0356688476182,12.16552506059644,40.311288741492746,29.154759474226505,23.5,22.0,27.0,12.5,15.5,3.5,5.5,8.246211251235321,8.06225774829855,8.0,30.0,21.0,25.179356624028344,{},{}
407,407,12,0,13.580233333333211,10.04987562112089,50.35871324805669,7.071067811865476,11.04536101718726,13.152946437965904,14.0356688476182,11.04536101718726,39.20459156782532,28.16025568065745,23.0,21.0,27.0,13.0,15.0,3.0,5.0,7.071067811865476,8.06225774829855,8.0,30.0,21.0,24.08318915758459,{},{}
408,408,12,0,13.61359999999988,10.04987562112089,52.3450093132096,7.071067811865476,11.04536101718726,14.142135623730953,14.0356688476182,11.04536101718726,39.20459156782532,28.16025568065745,23.0,20.0,26.0,12.0,16.0,4.0,4.0,7.280109889280518,8.0,8.0,30.0,21.0,25.179356624028344,{},{}
409,409,12,0,13.646966666666543,10.04987562112089,52.3450093132096,7.071067811865476,11.04536101718726,14.142135623730953,15.033296378372908,11.04536101718726,39.20459156782532,28.16025568065745,23.0,20.0,26.0,12.0,16.0,4.0,4.0,8.246211251235321,7.071067811865476,7.0,30.0,21.0,26.30589287593181,{},{}
410,410,12,0,13.68033333333321,9.0,54.3323108288245,7.071067811865476,11.180339887498947,14.0356688476182,15.033296378372908,11.04536101718726,38.2099463490856,27.073972741361768,22.5,19.0,25.0,11.0,16.0,4.0,4.0,8.246211251235321,7.071067811865476,7.0,30.0,20.0,24.33105012119288,{},{}
411,411,12,0,13.713699999999877,9.055385138137416,55.326304774492215,8.06225774829855,12.041594578792296,14.142135623730953,16.0312195418814,10.04987562112089,39.20459156782532,27.16615541441225,22.5,19.0,25.0,12.0,17.0,4.0,3.0,8.246211251235321,8.06225774829855,8.0,30.0,21.0,26.1725046566048,{},{}
412,412,12,0,13.747066666666544,8.06225774829855,57.21887800367987,7.0,13.038404810405298,15.033296378372908,16.0312195418814,11.180339887498947,39.20459156782532,26.1725046566048,22.0,19.0,24.0,10.5,17.5,4.5,2.5,7.280109889280518,8.06225774829855,8.0,31.0,21.0,25.317977802344327,{},{}
413,413,12,0,13.780433333333209,8.0,57.21887800367987,8.06225774829855,14.142135623730953,15.132745950421556,16.1245154965971,11.180339887498947,41.30375285612676,27.16615541441225,23.0,20.0,25.0,11.5,18.5,3.5,2.5,7.280109889280518,8.246211251235321,8.0,30.0,21.0,26.30589287593181,{},{}
414,414,12,0,13.813799999999874,11.04536101718726,56.32051136131489,8.06225774829855,13.152946437965904,16.1245154965971,17.029386365926403,11.04536101718726,43.28972164382672,30.14962686336267,24.5,21.0,27.0,13.0,19.0,4.0,4.0,7.280109889280518,8.06225774829855,8.0,30.0,21.0,25.179356624028344,{},{}
415,415,12,0,13.84716666666654,11.04536101718726,55.326304774492215,8.0,13.152946437965904,15.132745950421556,17.029386365926403,11.180339887498947,43.28972164382672,30.14962686336267,24.5,21.0,27.0,13.0,19.0,5.0,4.0,8.246211251235321,9.055385138137416,9.0,30.0,21.0,27.29468812791236,{},{}
416,416,12,0,13.880533333333206,6.082762530298219,53.33854141237835,8.0,12.16552506059644,13.152946437965904,15.132745950421556,15.132745950421556,41.30375285612676,29.154759474226505,26.0,19.0,25.0,7.0,19.0,5.0,2.0,8.06225774829855,8.06225774829855,8.0,30.0,21.0,25.179356624028344,{},{}
417,417,12,0,13.913899999999872,2.23606797749979,51.35172830587107,8.06225774829855,12.041594578792296,13.152946437965904,14.0356688476182,15.132745950421556,37.33630940518894,25.317977802344327,24.0,18.0,24.0,6.0,16.0,3.0,3.0,8.246211251235321,8.06225774829855,8.5,30.0,21.0,25.179356624028344,{},{}
418,418,12,0,13.947266666666538,2.23606797749979,51.35172830587107,8.0,11.180339887498947,12.16552506059644,13.038404810405298,16.1245154965971,37.33630940518894,26.1725046566048,25.0,19.0,25.0,6.0,15.0,2.0,3.0,8.06225774829855,9.055385138137416,9.0,29.0,20.0,25.317977802344327,{},{}
419,419,12,0,13.980633333333204,2.23606797749979,51.35172830587107,8.0,11.04536101718726,13.038404810405298,13.038404810405298,16.1245154965971,37.21558813185679,26.1725046566048,25.0,19.0,25.0,6.0,15.0,3.0,2.0,8.246211251235321,8.06225774829855,8.5,29.0,20.0,24.33105012119288,{},{}
420,420,12,0,14.01399999999987,4.123105625617661,54.230987451824994,9.0,12.16552506059644,13.152946437965904,15.033296378372908,14.142135623730953,39.319206502675,27.16615541441225,25.0,20.0,25.0,8.5,16.5,3.5,1.5,8.246211251235321,8.06225774829855,8.0,30.0,22.0,26.30589287593181,{},{}
421,421,12,0,14.047366666666536,7.071067811865476,57.21887800367987,8.0,12.16552506059644,15.033296378372908,16.0312195418814,13.152946437965904,40.311288741492746,28.16025568065745,24.5,20.0,25.0,9.5,17.5,4.5,1.5,8.06225774829855,8.06225774829855,8.0,29.0,21.0,27.16615541441225,{},{}
422,422,12,0,14.0807333333332,8.06225774829855,57.21887800367987,8.06225774829855,13.038404810405298,14.0356688476182,16.0312195418814,13.038404810405298,42.190046219457976,29.154759474226505,25.0,21.0,26.0,10.5,18.5,4.5,2.5,8.246211251235321,9.055385138137416,9.0,28.0,20.0,25.179356624028344,{},{}
423,423,12,0,14.114099999999867,9.055385138137416,56.22277118748239,8.06225774829855,13.038404810405298,15.033296378372908,16.0312195418814,12.16552506059644,42.2965719651132,29.27456233660889,24.5,21.0,26.0,11.5,18.5,5.5,3.5,8.246211251235321,9.055385138137416,9.0,29.0,21.0,26.1725046566048,{},{}
424,424,12,0,14.147466666666531,9.055385138137416,56.22277118748239,7.071067811865476,13.038404810405298,15.033296378372908,17.029386365926403,12.16552506059644,41.30375285612676,28.284271247461906,23.5,21.0,26.0,11.5,17.5,3.5,3.5,8.246211251235321,8.06225774829855,8.5,29.0,21.0,25.179356624028344,{},{}
425,425,12,0,14.1808333333332,7.071067811865476,55.14526271584895,8.06225774829855,14.0356688476182,14.0356688476182,15.033296378372908,11.04536101718726,40.19950248448356,26.1725046566048,22.5,21.0,25.0,12.0,17.0,3.0,3.0,8.246211251235321,9.055385138137416,9.0,29.0,21.0,25.179356624028344,{},{}
426,426,12,0,14.214199999999863,10.04987562112089,54.147945482723536,7.0,12.041594578792296,13.038404810405298,14.0,11.180339887498947,40.19950248448356,28.16025568065745,23.0,21.0,25.0,12.0,17.0,4.0,4.0,8.246211251235321,8.06225774829855,8.0,30.0,22.0,26.1725046566048,{},{}
427,427,12,0,14.24756666666653,9.055385138137416,53.150729063673246,8.0,12.041594578792296,13.038404810405298,14.0356688476182,10.04987562112089,39.11521443121589,27.073972741361768,22.5,21.0,25.0,13.0,16.0,3.0,4.0,8.246211251235321,8.06225774829855,8.5,30.0,23.0,26.0768096208106,{},{}
428,428,12,0,14.280933333333197,8.0,51.0881590977792,8.06225774829855,12.041594578792296,13.038404810405298,14.0356688476182,10.04987562112089,38.11823710509184,26.0768096208106,22.0,21.0,24.0,12.5,15.5,2.5,3.5,5.0990195135927845,6.082762530298219,6.5,29.0,23.0,26.1725046566048,{},{}
429,429,12,0,14.314299999999864,8.06225774829855,52.08646657242167,7.071067811865476,12.0,13.038404810405298,15.0,12.041594578792296,39.11521443121589,27.16615541441225,23.0,21.0,24.0,10.5,16.5,3.5,3.5,3.0,3.1622776601683795,2.5,29.0,24.0,25.079872407968907,{},{}
430,430,12,0,14.347666666666528,9.055385138137416,50.08991914547278,7.0,12.041594578792296,13.038404810405298,14.0356688476182,12.041594578792296,40.11234224026316,28.0713376952364,23.5,22.0,25.0,11.5,16.5,3.5,3.5,2.0,2.8284271247461903,2.0,29.0,24.0,25.079872407968907,{},{}
431,431,12,0,14.381033333333194,6.0,51.0881590977792,7.071067811865476,13.038404810405298,13.038404810405298,14.0356688476182,13.038404810405298,39.11521443121589,26.0768096208106,23.0,22.0,25.0,10.5,15.5,1.5,2.5,2.0,2.8284271247461903,2.5,29.0,24.0,25.079872407968907,{},{}
432,432,12,0,14.41439999999986,2.0,49.04079934095692,9.055385138137416,13.0,12.041594578792296,14.0,14.0356688476182,38.05259518088089,25.079872407968907,24.0,23.0,25.0,10.0,14.0,0.0,1.0,4.123105625617661,4.123105625617661,4.0,29.0,25.0,26.0768096208106,{},{}
433,433,12,0,14.447766666666526,2.0,50.039984012787215,8.0,11.04536101718726,13.038404810405298,14.0,16.0312195418814,37.05401462729781,26.019223662515376,25.0,23.0,25.0,8.0,13.0,1.0,0.0,5.0990195135927845,6.082762530298219,5.5,29.0,25.0,25.019992006393608,{},{}
434,434,12,0,14.481133333333192,1.0,50.039984012787215,8.06225774829855,11.0,13.038404810405298,14.0356688476182,16.0,36.013886210738214,25.019992006393608,24.5,23.0,25.0,8.0,12.0,0.0,0.0,6.082762530298219,7.071067811865476,6.5,29.0,25.0,27.018512172212592,{},{}
435,435,12,0,14.514499999999858,1.0,50.00999900019995,8.06225774829855,11.0,13.038404810405298,14.0,16.0,36.013886210738214,25.019992006393608,24.5,23.0,24.0,7.5,12.5,0.5,0.5,7.071067811865476,7.0,6.5,28.0,25.0,25.019992006393608,{},{}
436,436,12,0,14.547866666666524,1.0,51.0098029794274,8.06225774829855,11.0,13.038404810405298,13.038404810405298,16.0,36.013886210738214,25.019992006393608,24.5,23.0,24.0,7.5,12.5,1.5,0.5,7.0,7.0,7.0,28.0,26.0,25.019992006393608,{},{}
437,437,12,0,14.58123333333319,2.0,50.0,8.0,11.04536101718726,13.038404810405298,13.0,16.0312195418814,37.05401462729781,26.019223662515376,25.0,24.0,24.0,8.0,13.0,1.0,0.0,7.071067811865476,8.0,8.0,29.0,27.0,26.0,{},{}
438,438,12,0,14.614599999999855,7.0,49.0,7.0,11.04536101718726,12.0,13.0,16.0,41.01219330881976,30.0,26.5,26.0,26.0,10.0,15.0,4.0,3.0,7.0,8.0,7.5,28.0,28.0,26.019223662515376,{},{}
439,439,12,0,14.64796666666652,10.0,50.00999900019995,6.0,11.0,12.0,14.0,14.0,41.0,30.0,25.0,26.0,25.0,11.5,15.5,4.5,5.5,7.071067811865476,8.0,8.0,27.0,28.0,27.0,{},{}
440,440,12,0,14.681333333333187,10.0,50.039984012787215,6.082762530298219,11.0,13.0,15.033296378372908,13.038404810405298,40.0,29.0,24.0,26.0,24.0,12.0,15.0,4.0,6.0,7.071067811865476,8.0,8.0,27.0,29.0,26.0,{},{}
441,441,12,0,14.714699999999851,9.0,50.00999900019995,6.0,11.0,13.0,14.0,13.0,39.0,28.0,23.5,25.0,24.0,11.5,14.5,3.5,5.5,8.06225774829855,7.0,7.5,27.0,31.0,26.019223662515376,{},{}
442,442,12,0,14.74806666666652,9.0,51.03920062069938,7.0,11.0,13.0,14.0,12.041594578792296,39.01281840626232,28.0178514522438,23.5,25.0,23.0,12.0,15.0,3.0,5.0,8.0,8.0,8.0,27.0,30.0,26.019223662515376,{},{}
443,443,12,0,14.781433333333185,8.0,52.03844732503075,7.0,12.0,14.0,14.0,12.0,39.0,27.0,23.0,25.0,23.0,12.0,15.0,3.0,5.0,8.0,8.06225774829855,8.0,27.0,31.0,26.019223662515376,{},{}
444,444,12,0,14.81479999999985,8.06225774829855,52.009614495783374,8.0,12.0,14.0,15.0,11.0,39.01281840626232,27.018512172212592,23.0,24.0,23.0,12.5,15.5,2.5,4.5,8.0,9.0,9.0,27.0,31.0,27.073972741361768,{},{}
445,445,12,0,14.848166666666517,8.06225774829855,51.0098029794274,7.0,12.0,13.0,15.0,12.0,39.01281840626232,27.018512172212592,23.0,25.0,24.0,12.5,14.5,1.5,5.5,8.0,8.0,8.5,26.0,30.0,27.018512172212592,{},{}
446,446,12,0,14.881533333333184,8.0,50.039984012787215,7.0,12.0,13.0,15.0,12.041594578792296,39.01281840626232,27.018512172212592,23.0,25.0,23.0,12.0,15.0,2.0,5.0,8.06225774829855,8.0,8.5,26.0,30.0,27.018512172212592,{},{}
447,447,12,0,14.914899999999848,9.055385138137416,51.0098029794274,7.0,12.0,14.0,15.0,12.0,40.01249804748511,28.0178514522438,23.5,25.0,24.0,12.5,15.5,3.5,5.5,8.06225774829855,8.0,8.0,27.0,30.0,27.018512172212592,{},{}
448,448,12,0,14.948266666666514,12.0,51.0098029794274,6.0,12.041594578792296,13.0,15.0,12.0,42.01190307520001,30.0,24.0,24.0,23.0,11.5,18.5,5.5,5.5,7.071067811865476,8.0,8.0,26.0,30.0,27.018512172212592,{},{}
449,449,12,0,14.98163333333318,12.0,53.03772242470448,7.0,12.0,13.0,15.0,12.0,43.0,31.0,25.0,25.0,23.0,12.0,19.0,7.0,5.0,8.06225774829855,9.0,8.5,26.0,30.0,27.018512172212592,{},{}
450,450,12,0,15.014999999999846,14.0,53.0,6.0,11.0,14.0,16.0,13.0,44.0,33.0,26.0,24.0,24.0,11.0,20.0,8.0,5.0,8.0,8.06225774829855,8.0,27.0,30.0,26.019223662515376,{},{}
451,451,12,0,15.048366666666512,14.0,54.00925846556311,7.0,11.0,14.0,16.0,12.0,44.0,33.0,26.0,24.0,23.0,11.5,20.5,8.5,4.5,8.06225774829855,8.0,8.0,26.0,29.0,27.018512172212592,{},{}
452,452,12,0,15.081733333333178,13.038404810405298,53.009433122794285,7.0,11.0,14.0,15.0,12.0,43.01162633521314,32.01562118716424,25.5,24.0,23.0,11.5,19.5,7.5,4.5,8.06225774829855,8.0,8.0,26.0,28.0,27.073972741361768,{},{}
453,453,12,0,15.115099999999844,12.0,54.00925846556311,6.0,11.0,13.0,15.033296378372908,13.038404810405298,42.01190307520001,31.016124838541646,25.0,24.0,23.0,10.5,18.5,6.5,4.5,8.06225774829855,7.071067811865476,7.5,26.0,28.0,27.018512172212592,{},{}
454,454,12,0,15.14846666666651,10.0,53.0,7.0,11.0,14.0,15.0,12.0,40.0,29.0,24.0,23.0,23.0,11.0,17.0,5.0,5.0,8.06225774829855,9.0,8.5,27.0,28.0,27.018512172212592,{},{}
455,455,12,0,15.181833333333175,9.0,54.0,7.0,13.0,13.0,15.0,11.04536101718726,40.01249804748511,27.018512172212592,22.5,23.0,23.0,12.0,17.0,4.0,5.0,7.071067811865476,8.06225774829855,8.0,27.0,28.0,25.0,{},{}
456,456,12,0,15.21519999999984,9.0,54.00925846556311,7.0,12.041594578792296,13.0,15.033296378372908,12.0,40.01249804748511,28.0,23.5,23.0,24.0,11.5,16.5,3.5,4.5,8.06225774829855,8.0,8.0,27.0,27.0,25.019992006393608,{},{}
457,457,12,0,15.248566666666507,9.0,54.037024344425184,7.0,13.038404810405298,13.038404810405298,14.0356688476182,11.04536101718726,40.049968789001575,27.018512172212592,22.5,22.0,24.0,12.0,17.0,3.0,4.0,8.06225774829855,8.0,8.0,29.0,28.0,27.018512172212592,{},{}
458,458,12,0,15.281933333333171,8.0,52.23983154643591,7.071067811865476,13.038404810405298,13.038404810405298,14.0356688476182,12.041594578792296,40.11234224026316,27.073972741361768,23.0,21.0,26.0,11.5,16.5,2.5,4.5,8.06225774829855,9.055385138137416,8.5,30.0,25.0,25.079872407968907,{},{}
459,459,12,0,15.31529999999984,9.0,52.3450093132096,7.071067811865476,12.16552506059644,13.152946437965904,15.132745950421556,11.180339887498947,39.319206502675,27.16615541441225,22.5,20.0,26.0,12.0,16.0,3.0,4.0,7.280109889280518,8.06225774829855,8.0,32.0,24.0,25.179356624028344,{},{}
460,460,12,0,15.348666666666505,10.04987562112089,51.62363799656123,6.082762530298219,12.041594578792296,13.152946437965904,14.142135623730953,12.16552506059644,40.311288741492746,28.284271247461906,23.0,20.0,28.0,12.0,16.0,3.0,5.0,8.246211251235321,8.06225774829855,8.0,33.0,22.0,25.317977802344327,{},{}
461,461,12,0,15.38203333333317,10.198039027185567,51.97114584074513,8.06225774829855,13.152946437965904,13.341664064126334,15.297058540778355,11.40175425099138,42.7551166528639,29.61418578992169,24.0,19.0,29.0,13.0,18.0,3.0,4.0,8.246211251235321,9.219544457292889,8.5,34.0,20.0,24.73863375370596,{},{}
462,462,12,0,15.415399999999837,10.198039027185567,53.150729063673246,7.071067811865476,13.341664064126334,13.601470508735444,15.297058540778355,11.40175425099138,41.97618372363071,28.635642126552707,23.0,17.0,28.0,11.5,18.5,3.5,2.5,8.54400374531753,8.06225774829855,8.0,36.0,18.0,26.248809496813376,{},{}
463,463,12,0,15.448766666666502,10.198039027185567,53.60037313302959,8.246211251235321,12.16552506059644,13.341664064126334,15.524174696260024,11.704699910719626,42.20189569201838,30.083217912982647,24.0,16.0,29.0,11.5,18.5,4.5,2.5,8.54400374531753,8.246211251235321,8.0,36.0,16.0,25.0,{},{}
464,464,12,0,15.482133333333168,9.486832980505138,54.81788029466298,8.06225774829855,12.36931687685298,14.317821063276352,16.492422502470642,10.770329614269007,40.52159917870962,28.16025568065745,22.5,14.0,28.0,11.0,18.0,4.0,2.0,7.615773105863909,8.246211251235321,7.5,36.0,15.0,26.248809496813376,{},{}
465,465,12,0,15.515499999999834,10.198039027185567,54.81788029466298,7.280109889280518,12.36931687685298,14.560219778561036,15.524174696260024,11.704699910719626,41.48493702538308,29.120439557122072,23.0,14.0,28.0,10.0,19.0,5.0,1.0,8.94427190999916,8.246211251235321,7.5,37.0,14.0,26.570660511172846,{},{}
466,466,12,0,15.5488666666665,10.198039027185567,53.85164807134504,7.280109889280518,12.36931687685298,14.560219778561036,16.492422502470642,10.770329614269007,40.52159917870962,28.16025568065745,22.0,14.0,28.0,11.0,18.0,3.0,2.0,8.06225774829855,8.54400374531753,8.0,37.0,14.0,27.51363298439521,{},{}
467,467,12,0,15.582233333333166,9.219544457292889,54.81788029466298,7.280109889280518,13.341664064126334,15.524174696260024,16.492422502470642,10.770329614269007,40.52159917870962,27.202941017470888,21.5,14.0,28.0,11.0,18.0,3.0,2.0,7.615773105863909,8.246211251235321,7.5,37.0,15.0,26.248809496813376,{},{}
468,468,12,0,15.615599999999832,9.219544457292889,55.54277630799526,7.280109889280518,13.341664064126334,14.560219778561036,15.524174696260024,11.704699910719626,41.48493702538308,28.16025568065745,22.5,15.0,28.0,10.5,18.5,3.5,1.5,8.54400374531753,8.246211251235321,8.0,36.0,14.0,26.248809496813376,{},{}
469,469,12,0,15.648966666666498,9.219544457292889,54.57105459856901,7.071067811865476,11.40175425099138,14.317821063276352,16.278820596099706,11.704699910719626,39.293765408777,27.892651361962702,22.5,15.0,28.0,10.5,16.5,3.5,2.5,7.615773105863909,7.280109889280518,7.0,35.0,14.0,25.29822128134704,{},{}
470,470,12,0,15.682333333333164,9.055385138137416,53.36665625650534,7.280109889280518,11.40175425099138,15.297058540778355,15.297058540778355,11.40175425099138,39.05124837953327,27.65863337187866,22.5,16.0,28.0,11.0,16.0,3.0,3.0,8.54400374531753,8.246211251235321,8.0,36.0,15.0,25.0,{},{}
471,471,12,0,15.71569999999983,9.219544457292889,51.419840528729765,7.071067811865476,12.16552506059644,14.317821063276352,14.560219778561036,11.40175425099138,39.81205847478876,27.65863337187866,22.5,16.0,28.0,11.0,17.0,3.0,3.0,7.280109889280518,8.246211251235321,8.0,35.0,15.0,25.0,{},{}
472,472,12,0,15.749066666666495,9.055385138137416,50.69516742254631,6.324555320336759,11.40175425099138,13.341664064126334,14.560219778561036,12.36931687685298,39.05124837953327,27.65863337187866,22.5,16.0,29.0,10.5,15.5,2.5,3.5,7.615773105863909,7.280109889280518,7.5,35.0,16.0,25.0,{},{}
473,473,12,0,15.78243333333316,12.16552506059644,49.47726750741192,6.082762530298219,11.180339887498947,13.152946437965904,14.317821063276352,11.40175425099138,40.79215610874228,29.61418578992169,23.0,17.0,29.0,12.0,17.0,4.0,5.0,8.54400374531753,8.06225774829855,7.5,36.0,16.0,25.0,{},{}
474,474,12,0,15.815799999999829,14.142135623730953,50.44799302251776,6.082762530298219,10.44030650891055,13.341664064126334,14.317821063276352,11.40175425099138,41.97618372363071,31.575306807693888,24.0,17.0,29.0,12.0,18.0,6.0,4.0,7.615773105863909,7.280109889280518,7.5,35.0,16.0,25.0,{},{}
475,475,12,0,15.849166666666491,12.041594578792296,52.172789842982326,6.324555320336759,11.40175425099138,13.152946437965904,15.297058540778355,12.36931687685298,41.97618372363071,30.59411708155671,24.0,18.0,29.0,11.5,17.5,4.5,4.5,7.280109889280518,8.246211251235321,8.0,34.0,15.0,24.04163056034261,{},{}
476,476,12,0,15.88253333333316,10.04987562112089,53.150729063673246,8.246211251235321,12.36931687685298,13.341664064126334,15.297058540778355,11.180339887498947,41.77319714841085,29.42787793912432,24.0,18.0,29.0,12.5,17.5,4.5,3.5,8.246211251235321,8.246211251235321,8.0,33.0,16.0,25.70992026436488,{},{}
