,video_id,frame_seq,gap,time_seconds,m1,m3,m4,m5,m6,m7,m8,m9,m10,m11,m12,m13,m14,m15,m16,m17,e1,e2,e3,b1,b2,b3,m_0_16,m_1_15,m_2_14,m_3_13
0,12,0,0,0.0,13.038404810405298,69.0,11.0,16.0,18.0,20.0,15.0,55.00909015790027,39.01281840626232,32.5,31.0,31.0,16.0,24.0,8.0,5.0,9.055385138137417,10.0,9.5,32.0,32.0,33.0,167.01197561851666,166.01204775557707,161.02794788483146,154.02921800749363
1,12,1,0,0.0333666666666666,13.038404810405298,69.0,11.0,16.0,18.0,20.0,15.0,55.00909015790027,39.01281840626232,32.5,31.0,31.0,16.0,24.0,8.0,5.0,9.055385138137417,10.0,9.5,32.0,32.0,33.0,167.01197561851666,166.01204775557707,161.02794788483146,154.02921800749363
2,12,2,0,0.0667333333333332,15.033296378372908,70.0,11.0,16.0,18.0,21.0,15.0,57.0087712549569,41.012193308819754,33.5,32.0,32.0,17.0,25.0,8.0,6.0,8.06225774829855,9.0,9.0,32.0,32.0,32.0,167.0029939851379,165.00303027520434,160.0281225285106,153.0294089382822
3,12,3,0,0.1000999999999998,16.0,70.00714249274856,11.045361017187261,16.0,18.0,21.02379604162864,15.0,58.008620049092706,42.01190307520001,34.0,32.0,33.0,17.5,25.5,8.5,6.5,8.06225774829855,9.0,8.5,31.0,31.0,32.01562118716424,166.00301202086666,165.0272704737008,159.05030650709227,152.0526224699857
4,12,4,0,0.1334666666666664,18.027756377319946,69.02897942168927,11.0,15.0,18.0,20.024984394500787,14.035668847618199,58.034472514187634,43.04648650006177,34.0,32.0,34.0,19.0,25.0,9.0,8.0,8.0,8.0,8.5,31.0,31.0,31.0,166.01204775557707,164.02743672934722,158.05062480104277,152.0526224699857
5,12,5,0,0.166833333333333,19.026297590440446,69.00724599634447,11.0,16.0,18.027756377319946,21.0,14.035668847618199,60.03332407921454,44.04543109109048,34.5,33.0,34.0,19.5,26.5,9.5,7.5,6.0,7.0,6.5,31.0,30.0,31.0,165.04847772699995,163.07666908543356,157.07959765672945,151.11915828246265
6,12,6,0,0.2001999999999996,19.0,69.00724599634447,11.045361017187261,15.033296378372908,18.027756377319946,20.024984394500787,14.0,59.033888572581766,44.01136216933077,34.5,32.0,33.0,18.5,26.5,10.5,7.5,3.0,4.123105625617661,4.0,32.0,30.0,32.0624390837628,164.04877323527901,162.077142126828,156.08010763707205,150.08331019803634
7,12,7,0,0.2335666666666662,19.0,70.02856560004639,11.045361017187261,16.0312195418814,18.027756377319946,20.0,14.0,60.03332407921454,44.01136216933077,34.5,31.0,33.0,18.0,28.0,11.0,7.0,3.0,3.1622776601683795,3.0,33.0,31.0,31.064449134018133,162.077142126828,161.07762104029226,156.11534197509224,150.11995203836165
8,12,8,0,0.2669333333333328,20.0,69.02897942168927,11.045361017187261,15.033296378372908,18.0,20.024984394500787,13.0,59.033888572581766,44.01136216933077,34.0,30.0,32.0,18.0,28.0,12.0,7.0,3.1622776601683795,4.123105625617661,4.0,31.0,29.0,32.0624390837628,163.04907236779974,161.0496817755316,155.08062419270823,147.12239802287073
9,12,9,0,0.3002999999999994,20.024984394500787,69.0,10.0,16.0,18.0,20.0,14.0,60.00833275470999,44.01136216933077,34.0,32.0,32.0,18.0,28.0,11.0,8.0,5.0990195135927845,5.0990195135927845,5.0,30.0,29.0,31.016124838541646,162.01234520862909,160.0281225285106,154.0519392932137,146.05478424207814
10,12,10,0,0.333666666666666,20.0,68.00735254367721,10.0,15.033296378372908,18.027756377319946,20.0,14.035668847618199,59.033888572581766,44.01136216933077,34.0,31.0,32.0,17.5,27.5,11.5,7.5,7.0710678118654755,7.0,6.5,30.0,30.0,31.016124838541646,159.02829936838285,158.05062480104277,153.05227865013967,146.08559134972896
11,12,11,0,0.3670333333333326,21.0,68.00735254367721,10.0,15.033296378372908,18.027756377319946,20.0,14.035668847618199,60.03332407921454,45.0111097397076,34.5,31.0,32.0,17.5,28.5,12.5,7.5,8.06225774829855,8.0,8.0,30.0,29.0,31.016124838541646,159.05030650709227,157.05094714773293,153.08167754502824,145.1240848377691
12,12,12,0,0.4003999999999992,21.0,67.02984409947557,10.0,14.035668847618199,17.0,20.024984394500787,13.038404810405298,58.034472514187634,44.01136216933077,33.5,29.0,31.0,17.0,28.0,13.0,7.0,7.0710678118654755,8.0,7.5,30.0,28.0,31.0,158.15498727514097,156.20499351813308,151.21177202850313,144.2809758769326
13,12,13,0,0.4337666666666658,20.024984394500787,66.12110101926616,10.04987562112089,15.033296378372908,17.029386365926403,20.024984394500787,12.041594578792296,57.14017850864661,42.1070065428546,32.0,27.0,31.0,17.0,28.0,12.0,6.0,8.06225774829855,9.055385138137417,8.5,30.0,28.0,30.0,157.25775020646836,154.3243337908834,150.4027925272666,143.50261321662404
14,12,14,0,0.4671333333333324,17.029386365926403,66.18912297349165,10.0,15.132745950421556,18.027756377319946,19.026297590440446,12.165525060596439,54.230987451824994,39.11521443121589,30.5,26.0,31.0,16.5,25.5,8.5,5.5,8.06225774829855,8.0,8.0,30.0,26.0,30.0,157.45793088949188,155.63097378092831,149.6562728387955,142.79005567615695
15,12,15,0,0.5004999999999991,13.038404810405298,65.27633568147036,9.055385138137417,15.132745950421556,18.110770276274835,19.235384061671343,13.038404810405298,50.24937810560445,35.12833614050059,28.5,25.0,31.0,15.0,22.0,6.0,5.0,7.0710678118654755,8.06225774829855,8.0,31.0,26.0,29.068883707497267,154.82893786369524,154.17522498767434,148.22280526288793,141.2834031300209
16,12,16,0,0.5338666666666656,10.198039027185569,65.27633568147036,10.04987562112089,15.033296378372908,17.26267650163207,19.235384061671343,12.041594578792296,47.265209192385896,32.2490309931942,27.0,23.0,29.0,14.0,21.0,5.0,3.0,7.280109889280518,8.06225774829855,8.5,32.0,25.0,30.066592756745816,154.93547043850222,154.17522498767434,150.20652449211386,142.41137595009747
17,12,17,0,0.5672333333333321,10.04987562112089,65.27633568147036,9.055385138137417,15.033296378372908,17.11724276862369,18.110770276274835,12.041594578792296,46.17358552246078,31.144823004794873,26.0,23.0,29.0,14.0,20.0,4.0,4.0,8.06225774829855,8.0,8.0,31.0,25.0,30.066592756745816,153.83432646844463,152.9477034806342,149.09057649630307,142.1442928857856
18,12,18,0,0.6005999999999987,9.055385138137417,63.198101237299845,9.055385138137417,15.033296378372908,16.1245154965971,18.110770276274835,12.041594578792296,45.17742799230607,30.14962686336267,25.5,23.0,28.0,13.5,19.5,3.5,3.5,9.055385138137417,9.055385138137417,9.0,30.0,25.0,28.0178514522438,152.55490814785344,150.74813431681335,146.76852523616907,140.80127840328723
19,12,19,0,0.6339666666666652,10.0,62.03224967708329,8.06225774829855,14.035668847618199,16.0312195418814,17.029386365926403,12.041594578792296,44.10215414239989,30.066592756745816,25.0,24.0,26.0,13.0,19.0,4.0,5.0,8.06225774829855,7.0,7.0,29.0,26.0,29.017236257093817,152.11837495845134,150.2131818450032,145.27904184706065,140.28898745090436
20,12,20,0,0.6673333333333318,11.045361017187261,60.00833275470999,8.0,14.0,16.0312195418814,17.0,13.0,46.010868281309364,32.01562118716424,26.5,26.0,27.0,13.5,19.5,5.5,5.5,8.06225774829855,8.0,7.5,28.0,28.0,27.0,151.00331122197287,149.03019828209315,145.03103116229988,138.05795884337854
21,12,21,0,0.7006999999999983,10.0,58.008620049092706,8.0,13.038404810405298,15.033296378372908,17.0,13.0,44.01136216933077,31.0,26.0,26.0,25.0,12.5,18.5,5.5,5.5,8.0,7.0,7.0,26.0,29.0,28.0178514522438,148.00337833982033,147.0,142.00352108310554,136.03308421115798
22,12,22,0,0.7340666666666649,10.0,58.077534382926416,8.0,13.0,14.0,16.0312195418814,14.0,45.0,32.0,27.0,28.0,25.0,12.5,18.5,5.5,4.5,7.0,8.0,7.5,24.0,29.0,27.018512172212592,148.12157169028418,147.05441169852742,143.0314650697531,137.01459776242822
23,12,23,0,0.7674333333333314,8.0,56.142675390472796,8.06225774829855,12.041594578792296,14.035668847618199,16.0312195418814,15.033296378372908,43.104524124504614,31.064449134018133,27.0,27.0,23.0,10.0,18.0,6.0,3.0,7.0,7.0,7.0,23.0,29.0,28.160255680657446,148.12157169028418,146.08559134972896,142.0563268566381,135.0148140020198
24,12,24,0,0.800799999999998,7.0,55.226805085936306,9.055385138137417,12.041594578792296,14.035668847618199,16.1245154965971,15.033296378372908,43.104524124504614,31.064449134018133,27.5,28.0,23.0,10.5,17.5,5.5,2.5,7.0,7.0,7.0,22.0,29.0,27.16615541441225,147.16657229140046,145.1240848377691,141.05672617780408,134.01492454200763
25,12,25,0,0.8341666666666645,7.0,54.147945482723536,8.06225774829855,11.0,14.035668847618199,15.132745950421556,15.033296378372908,41.048751503547585,30.066592756745816,26.5,27.0,23.0,10.0,16.0,5.0,2.0,7.0710678118654755,7.0710678118654755,7.0,23.0,30.0,27.16615541441225,144.34680460612904,144.22205101855957,140.12851244482687,134.09325113517085
26,12,26,0,0.867533333333331,3.1622776601683795,55.226805085936306,8.06225774829855,11.0,14.142135623730951,14.142135623730951,16.0312195418814,38.118237105091836,27.16615541441225,25.5,27.0,22.0,8.5,13.5,2.5,1.5,7.0710678118654755,6.082762530298219,6.5,22.0,30.0,25.179356624028344,144.4195277654653,144.1700384962146,140.05713120009278,133.00375934536586
27,12,27,0,0.9008999999999976,1.4142135623730951,55.326304774492215,8.0,10.04987562112089,14.035668847618199,14.035668847618199,16.0312195418814,35.12833614050059,25.079872407968907,24.5,27.0,21.0,8.0,11.0,2.0,1.0,8.0,7.0710678118654755,7.0,22.0,30.0,26.1725046566048,143.50261321662404,142.28492541376264,138.2316895650198,134.13426109685773
28,12,28,0,0.934266666666664,1.4142135623730951,55.326304774492215,8.0,10.04987562112089,14.035668847618199,14.035668847618199,16.0312195418814,35.12833614050059,25.079872407968907,24.5,27.0,21.0,8.0,11.0,2.0,1.0,8.0,7.0710678118654755,7.0,22.0,30.0,26.1725046566048,143.50261321662404,142.28492541376264,138.2316895650198,134.13426109685773
29,12,29,0,0.9676333333333308,2.23606797749979,56.43580423808985,8.06225774829855,9.0,14.035668847618199,15.033296378372908,15.033296378372908,34.132096331752024,25.179356624028344,24.0,26.0,19.0,7.5,11.5,2.5,0.5,7.0,8.06225774829855,8.0,21.0,30.0,25.179356624028344,143.50261321662404,142.42541907960108,138.36184445142382,133.18408313308313
30,12,30,0,1.0009999999999972,3.1622776601683795,56.43580423808985,8.06225774829855,10.0,14.142135623730951,15.132745950421556,16.0312195418814,37.12142238654117,27.16615541441225,25.5,27.0,20.0,7.5,13.5,3.5,0.5,7.0710678118654755,7.0710678118654755,6.5,22.0,29.0,25.179356624028344,142.50614021858848,141.35416513141735,137.23337786413333,132.09466302617983
31,12,31,0,1.0343666666666638,9.0,56.22277118748239,7.0710678118654755,10.04987562112089,14.035668847618199,16.1245154965971,15.033296378372908,41.10960958218893,31.064449134018133,26.5,27.0,22.0,9.5,16.5,6.5,3.5,7.0710678118654755,7.0,7.0,21.0,27.0,25.079872407968907,141.35416513141735,139.35924798878617,135.2368293032634,131.0953851209111
32,12,32,0,1.0677333333333303,10.04987562112089,56.22277118748239,8.0,11.0,16.0312195418814,17.029386365926403,12.041594578792296,41.048751503547585,30.066592756745816,25.0,26.0,21.0,11.5,17.5,6.5,4.5,6.082762530298219,6.082762530298219,6.5,22.0,27.0,26.019223662515376,141.42842712835352,139.2300254973761,135.18135966175217,130.06152390311286
33,12,33,0,1.1010999999999969,11.0,58.137767414994535,7.0,12.041594578792296,15.033296378372908,17.029386365926403,12.041594578792296,42.04759208325728,30.01666203960727,24.5,26.0,22.0,12.0,18.0,6.0,5.0,6.0,7.0710678118654755,6.5,22.0,26.0,25.019992006393608,138.2316895650198,137.13132391981054,133.09395177843356,128.01562404644207
34,12,34,0,1.1344666666666634,11.045361017187261,57.21887800367987,8.0,13.038404810405298,16.0312195418814,17.11724276862369,11.045361017187261,43.104524124504614,30.066592756745816,24.5,27.0,22.0,13.5,18.5,5.5,5.5,7.0,6.0,6.5,22.0,26.0,26.019223662515376,138.2316895650198,137.17871555019022,134.18271125595876,128.09761902549164
35,12,35,0,1.16783333333333,11.045361017187261,56.22277118748239,8.0,13.038404810405298,16.0312195418814,17.11724276862369,11.180339887498949,43.18564576337837,30.14962686336267,24.5,27.0,22.0,13.5,18.5,5.5,5.5,7.0,6.082762530298219,6.5,21.0,27.0,25.079872407968907,138.36184445142382,137.2953021774598,133.24038426843418,128.14054783713078
36,12,36,0,1.2011999999999965,9.0,54.3323108288245,8.06225774829855,12.041594578792296,14.035668847618199,16.0312195418814,12.165525060596439,41.19465984809196,29.154759474226502,24.5,27.0,21.0,12.0,17.0,6.0,4.0,7.0,7.0,6.5,19.0,27.0,25.079872407968907,137.5245432641025,136.444127759314,132.3782459469833,127.251719045363
37,12,37,0,1.234566666666663,4.123105625617661,53.46026561849464,8.0,9.055385138137417,13.152946437965905,15.132745950421556,14.142135623730951,35.22782990761707,26.1725046566048,24.0,27.0,20.0,9.5,11.5,2.5,2.5,6.082762530298219,7.0710678118654755,6.5,19.0,27.0,23.08679276123039,136.61991070118586,136.444127759314,133.37541002748594,128.2497563350512
38,12,38,0,1.2679333333333296,1.4142135623730951,53.46026561849464,8.0,9.055385138137417,13.152946437965905,14.142135623730951,14.142135623730951,32.2490309931942,23.194827009486403,22.5,25.0,18.0,7.5,10.5,1.5,1.5,7.0710678118654755,6.082762530298219,6.0,20.0,28.0,24.186773244895647,135.72398461583714,135.5322839769182,134.45073447177595,128.2497563350512
39,12,39,0,1.301299999999996,2.0,53.46026561849464,8.06225774829855,9.055385138137417,14.142135623730951,15.132745950421556,14.142135623730951,33.24154027718932,24.186773244895647,23.0,26.0,19.0,8.5,10.5,1.5,1.5,7.0,7.0,7.0,19.0,28.0,23.194827009486403,136.7186892857008,135.5322839769182,132.45754036671525,127.1927670899568
40,12,40,0,1.334666666666663,7.0710678118654755,56.568542494923804,7.0710678118654755,10.04987562112089,15.132745950421556,16.1245154965971,13.152946437965905,37.33630940518894,27.294688127912362,23.5,27.0,19.0,10.0,14.0,5.0,4.0,6.082762530298219,6.082762530298219,5.5,17.0,28.0,25.317977802344327,136.93794214898952,135.72398461583714,132.54433220624713,127.39309243440164
41,12,41,0,1.3680333333333292,7.0710678118654755,57.706152185014034,9.0,12.041594578792296,15.132745950421556,16.278820596099706,10.44030650891055,38.3275357934736,26.30589287593181,22.5,27.0,18.0,12.5,15.5,3.5,4.5,7.0710678118654755,7.0710678118654755,7.0,17.0,29.0,24.331050121192877,136.93794214898952,136.7186892857008,132.45754036671525,127.3184982632139
42,12,42,0,1.4013999999999958,11.045361017187261,59.682493245507096,8.06225774829855,11.180339887498949,15.297058540778355,17.26267650163207,10.198039027185569,40.44749683231337,29.274562336608895,23.5,27.0,18.0,12.5,17.5,7.5,5.5,7.0710678118654755,6.082762530298219,6.0,18.0,29.0,25.317977802344327,135.83077707206124,136.61991070118586,133.5402561027947,127.3184982632139
43,12,43,0,1.4347666666666623,11.045361017187261,59.682493245507096,8.06225774829855,11.045361017187261,16.278820596099706,17.26267650163207,10.198039027185569,40.311288741492746,29.274562336608895,23.5,27.0,18.0,12.5,17.5,7.5,6.5,6.082762530298219,7.0710678118654755,7.0,18.0,29.0,24.331050121192877,137.81872151489435,136.61991070118586,133.4541119636259,127.251719045363
44,12,44,0,1.4681333333333288,11.180339887498949,60.67124524847005,9.055385138137417,12.041594578792296,16.1245154965971,17.26267650163207,9.219544457292887,41.43669871020132,29.427877939124322,23.5,27.0,18.0,13.5,18.5,7.5,5.5,6.082762530298219,5.0,5.5,17.0,28.0,25.317977802344327,137.81872151489435,136.61991070118586,132.45754036671525,127.3184982632139
45,12,45,0,1.5014999999999954,17.11724276862369,58.309518948453004,8.0,13.038404810405298,16.1245154965971,18.110770276274835,10.44030650891055,48.373546489791295,35.35533905932738,26.5,28.0,22.0,15.0,23.0,10.0,8.0,6.0,5.0,5.0,18.0,28.0,25.179356624028344,137.71347065556077,136.444127759314,132.24220203853233,126.14277624977183
46,12,46,0,1.534866666666662,22.090722034374522,59.413803110051795,8.0,12.0,16.1245154965971,18.027756377319946,10.44030650891055,52.23983154643591,40.311288741492746,29.0,29.0,22.0,15.5,26.5,14.5,8.5,6.082762530298219,6.0,6.0,18.0,27.0,25.179356624028344,137.44089638822936,135.36986370680884,132.24220203853233,125.09996003196804
47,12,47,0,1.5682333333333285,24.020824298928627,59.135437767890075,7.0,11.045361017187261,16.0312195418814,18.027756377319946,12.36931687685298,54.230987451824994,43.18564576337837,31.0,30.0,26.0,16.0,26.0,15.0,10.0,6.0,6.082762530298219,6.0,20.0,28.0,25.079872407968907,136.61991070118586,136.444127759314,133.24038426843418,127.09838708654017
48,12,48,0,1.601599999999995,21.02379604162864,60.207972893961475,8.06225774829855,12.041594578792296,16.1245154965971,18.027756377319946,10.198039027185569,51.24451190127583,39.20459156782532,28.5,29.0,24.0,16.5,24.5,12.5,9.5,6.0,6.0,6.0,19.0,26.0,26.076809620810597,137.5245432641025,137.3644786689776,133.30416347586447,127.1416532848303
49,12,49,0,1.6349666666666616,17.029386365926403,59.21148537234985,8.0,12.041594578792296,17.11724276862369,18.027756377319946,10.198039027185569,47.16990566028302,35.12833614050059,26.5,28.0,23.0,15.5,21.5,9.5,8.5,6.082762530298219,6.082762530298219,6.5,20.0,27.0,25.079872407968907,137.3644786689776,137.17871555019022,133.09395177843356,127.03542812932147
50,12,50,0,1.668333333333328,13.038404810405298,60.207972893961475,8.06225774829855,12.0,16.1245154965971,18.110770276274835,10.04987562112089,43.104524124504614,31.144823004794873,24.5,26.0,21.0,13.5,19.5,7.5,6.5,6.082762530298219,7.0710678118654755,6.5,20.0,27.0,24.08318915758459,138.2931668593933,137.23337786413333,134.13426109685773,128.03515142334936
51,12,51,0,1.7016999999999949,14.035668847618199,62.20128616033595,9.0,10.0,17.029386365926403,19.026297590440446,10.198039027185569,43.104524124504614,33.13608305156178,26.0,26.0,21.0,13.5,19.5,9.5,5.5,7.0,6.082762530298219,6.0,21.0,26.0,25.079872407968907,138.2316895650198,138.1774221788784,135.09256086106296,130.06152390311286
52,12,52,0,1.7350666666666612,14.035668847618199,62.12889826803627,9.0,10.04987562112089,16.0312195418814,18.027756377319946,10.04987562112089,43.104524124504614,33.06055050963308,26.0,25.0,21.0,13.0,20.0,10.0,5.0,6.0,6.082762530298219,6.5,20.0,25.0,26.019223662515376,139.12943613772032,138.05795884337854,135.03332921912278,130.01538370516005
53,12,53,0,1.7684333333333278,14.035668847618199,62.12889826803627,9.0,10.0,16.0312195418814,18.027756377319946,9.055385138137417,42.04759208325728,32.0624390837628,25.0,24.0,20.0,13.0,20.0,10.0,5.0,5.0990195135927845,6.0,6.0,21.0,26.0,26.076809620810597,139.05754204644924,138.01449199268893,135.00370365289984,130.0
54,12,54,0,1.8017999999999943,14.0,63.071388124885914,8.0,11.045361017187261,17.029386365926403,18.0,10.04987562112089,43.04648650006177,32.01562118716424,25.0,24.0,21.0,12.5,20.5,9.5,4.5,6.0,6.0,6.0,22.0,25.0,26.019223662515376,139.0323703315167,138.00362314084367,135.0,130.00384609695206
55,12,55,0,1.8351666666666608,14.035668847618199,62.07253821135398,8.0,10.0,16.0,18.0,10.04987562112089,42.04759208325728,32.0624390837628,25.0,24.0,21.0,12.5,19.5,9.5,4.5,6.0,6.0,6.0,22.0,25.0,27.0,139.01438774457844,137.00364958642524,134.0,130.00384609695206
56,12,56,0,1.868533333333328,14.035668847618199,63.071388124885914,8.0,10.0,16.0312195418814,18.027756377319946,10.04987562112089,42.04759208325728,32.0624390837628,25.0,24.0,21.0,12.5,19.5,9.5,4.5,5.0,6.0,6.0,22.0,25.0,27.018512172212592,139.00359707575916,138.0,134.01492454200763,130.034610777285
57,12,57,0,1.901899999999994,12.0,62.07253821135398,8.0,11.045361017187261,16.0312195418814,17.0,10.04987562112089,41.048751503547585,30.01666203960727,24.0,24.0,21.0,12.5,18.5,7.5,4.5,6.0,6.0,6.0,22.0,24.0,27.018512172212592,139.00359707575916,138.00362314084367,134.01492454200763,130.034610777285
58,12,58,0,1.9352666666666605,10.0,62.03224967708329,8.0,13.038404810405298,16.0312195418814,18.027756377319946,11.045361017187261,42.04759208325728,29.017236257093817,24.0,23.0,21.0,11.0,20.0,7.0,4.0,6.0,6.0,6.0,23.0,25.0,26.0,139.00359707575916,138.0,135.0148140020198,130.034610777285
59,12,59,0,1.968633333333327,11.045361017187261,62.03224967708329,9.0,13.0,16.0,17.0,10.0,43.01162633521314,30.01666203960727,24.5,23.0,21.0,12.0,21.0,8.0,3.0,3.0,4.0,4.0,23.0,26.0,26.019223662515376,139.01438774457844,138.00362314084367,135.0148140020198,129.0620006043607
60,12,60,0,2.0019999999999936,12.0,62.03224967708329,8.0,12.0,17.029386365926403,18.0,11.045361017187261,43.01162633521314,31.016124838541646,25.0,23.0,21.0,11.0,21.0,8.0,4.0,1.0,1.0,1.5,24.0,27.0,27.018512172212592,140.00357138301865,138.0,134.00373129133382,130.034610777285
61,12,61,0,2.0353666666666603,13.0,60.00833275470999,8.0,13.0,17.029386365926403,18.0,10.04987562112089,44.01136216933077,31.016124838541646,24.5,22.0,21.0,11.5,22.5,9.5,4.5,1.0,2.0,2.0,24.0,26.0,27.0,140.00357138301865,138.00362314084367,134.01492454200763,129.0348790056394
62,12,62,0,2.068733333333327,13.038404810405298,62.00806399170998,9.0,13.0,17.0,19.0,10.0,45.0111097397076,32.01562118716424,25.5,23.0,22.0,12.5,22.5,8.5,3.5,1.0,2.0,2.0,26.0,26.0,27.0,139.01438774457844,138.00362314084367,134.01492454200763,128.03515142334936
63,12,63,0,2.102099999999994,12.0,62.0,8.0,13.0,17.0,19.0,11.0,44.0,31.0,25.0,22.0,22.0,11.0,22.0,8.0,4.0,3.0,4.0,4.0,26.0,27.0,27.0,139.00359707575916,138.03260484392808,134.05968819895114,128.09761902549164
64,12,64,0,2.1354666666666606,13.0,61.0,8.0,13.0,16.0,18.0,10.0,44.0,31.0,24.5,22.0,22.0,12.0,22.0,8.0,4.0,5.0990195135927845,5.0,5.0,26.0,26.0,27.0,139.0,138.00362314084367,134.05968819895114,127.09838708654017
65,12,65,0,2.1688333333333274,12.041594578792296,60.0,7.0710678118654755,13.0,16.0,17.0,11.0,43.0,30.0,24.0,21.0,21.0,10.0,22.0,8.0,3.0,6.082762530298219,6.0,6.0,26.0,27.0,28.0,139.00359707575916,138.03260484392808,133.06013678032951,126.09916732476864
66,12,66,0,2.202199999999994,11.0,57.0087712549569,8.0,12.041594578792296,15.0,17.0,11.0,42.01190307520001,30.0,24.5,21.0,22.0,10.5,20.5,7.5,3.5,6.082762530298219,7.0,7.0,26.0,27.0,26.019223662515376,138.05795884337854,137.09121051329294,132.13629327327143,126.25371281669304
67,12,67,0,2.235566666666661,10.0,55.036351623268054,7.0,13.038404810405298,14.035668847618199,16.0312195418814,13.0,43.01162633521314,30.0,25.0,22.0,24.0,10.0,20.0,6.0,3.0,7.0710678118654755,8.0,8.0,27.0,27.0,26.019223662515376,137.05838172107534,136.13228860193308,131.18688958886096,125.25573839150046
68,12,68,0,2.268933333333328,10.0,52.03844732503075,7.0,13.038404810405298,14.035668847618199,16.0312195418814,13.038404810405298,43.04648650006177,30.01666203960727,25.0,22.0,24.0,10.0,20.0,6.0,3.0,8.06225774829855,8.0,8.0,27.0,26.0,26.0,137.03284277865654,136.0588108135596,132.09466302617983,126.19429464123962
69,12,69,0,2.3022999999999945,9.0,52.03844732503075,8.06225774829855,14.0,14.035668847618199,16.0312195418814,13.0,44.01136216933077,30.01666203960727,25.5,22.0,24.0,10.0,21.0,6.0,2.0,7.0710678118654755,8.0,7.5,26.0,26.0,25.019992006393608,136.09188072769072,135.18135966175217,130.24592124131948,124.25779653607253
70,12,70,0,2.335666666666661,9.055385138137417,51.088159097779204,8.0,14.0,14.035668847618199,16.0,14.035668847618199,45.044422518220834,31.064449134018133,26.5,22.0,25.0,9.5,21.5,6.5,1.5,8.06225774829855,8.0,8.0,28.0,26.0,25.0,136.1800279042415,134.18271125595876,130.24592124131948,123.1990259701756
71,12,71,0,2.369033333333328,7.0710678118654755,52.03844732503075,7.0,13.0,13.0,14.0,16.0,43.01162633521314,30.01666203960727,26.5,22.0,24.0,7.0,20.0,6.0,0.0,8.06225774829855,8.0,7.5,28.0,26.0,25.019992006393608,134.18271125595876,134.23859355639868,129.24782396620841,123.1990259701756
72,12,72,0,2.4023999999999948,4.0,51.088159097779204,7.0710678118654755,10.04987562112089,13.038404810405298,13.038404810405298,16.0,37.05401462729781,27.018512172212592,25.0,20.0,23.0,5.5,15.5,3.5,1.5,8.06225774829855,8.0,8.0,28.0,25.0,25.0,134.23859355639868,133.24038426843418,129.24782396620841,124.25779653607253
73,12,73,0,2.435766666666661,1.0,50.08991914547278,7.0,9.055385138137417,13.038404810405298,13.038404810405298,16.0312195418814,33.06055050963308,24.020824298928627,23.5,19.0,22.0,4.5,12.5,2.5,2.5,8.06225774829855,9.0,8.5,28.0,25.0,24.020824298928627,133.24038426843418,132.24220203853233,128.3160161476345,123.3288287465668
74,12,74,0,2.4691333333333283,1.0,52.08646657242167,8.06225774829855,9.055385138137417,12.041594578792296,13.038404810405298,15.0,33.06055050963308,24.020824298928627,23.5,19.0,22.0,5.5,12.5,2.5,2.5,8.246211251235321,9.055385138137417,8.5,28.0,24.0,25.019992006393608,133.24038426843418,132.30646242719968,128.2497563350512,123.25988804148737
75,12,75,0,2.502499999999995,1.4142135623730951,53.03772242470448,7.0710678118654755,10.0,13.038404810405298,14.035668847618199,16.0312195418814,34.132096331752024,24.186773244895647,23.5,20.0,22.0,5.0,13.0,2.0,2.0,7.280109889280518,8.0,7.5,29.0,25.0,25.079872407968907,133.24038426843418,133.24038426843418,129.24782396620841,125.25573839150046
76,12,76,0,2.535866666666662,5.0,56.142675390472796,8.06225774829855,13.038404810405298,15.033296378372908,16.0312195418814,12.041594578792296,38.118237105091836,25.079872407968907,22.5,18.0,22.0,8.0,18.0,4.0,0.0,7.0710678118654755,8.06225774829855,8.0,28.0,23.0,25.019992006393608,133.37541002748594,132.30646242719968,128.3160161476345,124.32618388738553
77,12,77,0,2.5692333333333286,6.082762530298219,57.14017850864661,7.0,13.038404810405298,15.033296378372908,17.029386365926403,12.041594578792296,38.118237105091836,25.079872407968907,22.0,17.0,21.0,7.0,19.0,5.0,0.0,7.0710678118654755,7.0,7.5,28.0,24.0,26.076809620810597,132.3782459469833,132.3782459469833,128.3160161476345,123.3288287465668
78,12,78,0,2.602599999999996,6.082762530298219,57.14017850864661,8.0,13.038404810405298,16.0312195418814,17.029386365926403,11.180339887498949,38.2099463490856,25.179356624028344,22.0,16.0,20.0,7.0,20.0,6.0,1.0,8.246211251235321,7.0710678118654755,7.5,28.0,23.0,26.076809620810597,132.3782459469833,132.3782459469833,128.39003076563228,124.32618388738553
79,12,79,0,2.635966666666662,6.0,57.14017850864661,8.06225774829855,13.038404810405298,16.0312195418814,17.029386365926403,11.045361017187261,38.118237105091836,25.079872407968907,22.0,17.0,21.0,8.0,19.0,5.0,0.0,7.280109889280518,8.0,8.0,29.0,24.0,26.019223662515376,132.45754036671525,132.45754036671525,128.39003076563228,124.32618388738553
80,12,80,0,2.669333333333329,6.0,57.14017850864661,6.0,13.038404810405298,15.033296378372908,17.0,12.041594578792296,37.05401462729781,24.020824298928627,21.0,15.0,19.0,5.0,20.0,6.0,1.0,8.246211251235321,8.0,8.0,28.0,23.0,26.019223662515376,133.37541002748594,132.30646242719968,128.3160161476345,124.25779653607253
81,12,81,0,2.702699999999996,7.0,57.14017850864661,6.082762530298219,12.041594578792296,15.033296378372908,17.0,12.0,37.05401462729781,25.019992006393608,21.5,14.0,18.0,4.0,21.0,8.0,2.0,8.06225774829855,8.0,8.0,28.0,23.0,25.019992006393608,134.30189872075525,132.24220203853233,129.24782396620841,125.19584657647394
82,12,82,0,2.7360666666666624,7.0,57.14017850864661,6.082762530298219,12.041594578792296,15.033296378372908,17.0,12.0,37.05401462729781,25.019992006393608,21.5,14.0,18.0,4.0,21.0,8.0,2.0,8.06225774829855,8.0,8.0,28.0,23.0,25.019992006393608,134.30189872075525,132.24220203853233,129.24782396620841,125.19584657647394
83,12,83,0,2.769433333333329,9.0,58.077534382926416,5.0990195135927845,10.04987562112089,15.033296378372908,17.029386365926403,12.041594578792296,36.124783736376884,26.076809620810597,21.5,14.0,17.0,3.5,20.5,9.5,1.5,8.246211251235321,8.0,8.0,27.0,23.0,26.076809620810597,133.30416347586447,131.24404748406687,128.2497563350512,124.19742348374221
84,12,84,0,2.802799999999996,6.082762530298219,57.07889277132134,5.0,12.041594578792296,15.033296378372908,16.0,12.041594578792296,35.12833614050059,23.08679276123039,20.0,13.0,16.0,2.5,20.5,7.5,2.5,7.280109889280518,8.06225774829855,8.0,28.0,23.0,26.019223662515376,134.30189872075525,132.30646242719968,128.191263352851,123.1990259701756
85,12,85,0,2.8361666666666627,7.0710678118654755,57.14017850864661,5.0,11.045361017187261,15.033296378372908,16.0312195418814,12.165525060596439,35.22782990761707,24.186773244895647,20.5,13.0,17.0,3.0,20.0,8.0,2.0,8.06225774829855,8.0,8.0,28.0,23.0,26.019223662515376,131.4610208388783,130.38404810405297,128.3160161476345,122.20065466273084
86,12,86,0,2.869533333333329,6.0,57.14017850864661,5.0990195135927845,11.045361017187261,15.033296378372908,16.0312195418814,12.041594578792296,34.132096331752024,23.08679276123039,20.0,13.0,17.0,3.0,19.0,7.0,2.0,8.246211251235321,8.0,8.0,28.0,23.0,26.076809620810597,132.3782459469833,129.31357237351384,127.251719045363,122.20065466273084
87,12,87,0,2.9028999999999963,5.0,57.14017850864661,6.082762530298219,12.041594578792296,15.033296378372908,17.029386365926403,12.041594578792296,35.12833614050059,23.08679276123039,20.5,13.0,17.0,3.0,20.0,7.0,2.0,8.246211251235321,9.0,9.0,27.0,22.0,26.076809620810597,131.4610208388783,130.4645545732633,127.3184982632139,122.3315167894194
88,12,88,0,2.936266666666663,7.0710678118654755,58.137767414994535,6.082762530298219,11.045361017187261,15.033296378372908,16.1245154965971,12.041594578792296,36.22154055254967,25.179356624028344,21.5,13.0,17.0,3.0,21.0,8.0,2.0,8.246211251235321,8.0,8.0,28.0,22.0,26.076809620810597,130.4645545732633,129.38701635017324,126.3210196285638,121.26417442921878
89,12,89,0,2.96963333333333,5.0990195135927845,57.14017850864661,7.0710678118654755,13.038404810405298,14.035668847618199,16.0,11.045361017187261,36.22154055254967,23.194827009486403,20.5,13.0,17.0,4.0,21.0,7.0,2.0,8.246211251235321,8.0,8.0,28.0,23.0,27.073972741361768,130.64838307457157,129.46814279968643,126.39620247459969,121.33424908079334
90,12,90,0,3.002999999999997,8.06225774829855,57.14017850864661,6.0,11.045361017187261,15.033296378372908,17.029386365926403,11.045361017187261,36.124783736376884,25.079872407968907,21.0,13.0,17.0,4.0,21.0,8.0,2.0,8.246211251235321,8.0,8.0,29.0,23.0,26.076809620810597,131.54847015454038,130.5526713629407,127.47548783981962,121.41251994749142
91,12,91,0,3.036366666666664,6.082762530298219,56.22277118748239,6.082762530298219,12.041594578792296,15.132745950421556,16.0312195418814,12.041594578792296,36.22154055254967,24.186773244895647,21.0,13.0,18.0,3.5,20.5,7.5,2.5,8.246211251235321,9.055385138137417,8.5,29.0,23.0,26.1725046566048,132.6386067478093,131.54847015454038,128.47178678604885,122.40914998479485
92,12,92,0,3.06973333333333,7.0710678118654755,57.14017850864661,5.0990195135927845,12.041594578792296,14.035668847618199,16.0312195418814,12.041594578792296,36.22154055254967,24.186773244895647,20.5,14.0,18.0,4.0,20.0,7.0,1.0,8.246211251235321,8.0,8.0,29.0,22.0,27.16615541441225,132.54433220624713,130.5526713629407,127.39309243440164,122.40914998479485
93,12,93,0,3.103099999999997,8.06225774829855,57.14017850864661,5.0,12.041594578792296,15.033296378372908,17.029386365926403,12.165525060596439,37.21558813185679,25.179356624028344,21.0,13.0,17.0,3.0,22.0,9.0,2.0,8.246211251235321,9.0,9.0,29.0,23.0,26.076809620810597,132.6386067478093,131.54847015454038,127.56566936288148,122.494897852931
94,12,94,0,3.136466666666664,7.0,58.215118311311535,6.082762530298219,12.041594578792296,15.033296378372908,17.029386365926403,11.180339887498949,36.22154055254967,24.186773244895647,20.5,13.0,18.0,4.5,20.5,7.5,1.5,7.280109889280518,8.0,8.0,29.0,22.0,26.076809620810597,131.7459676802292,131.64345787011217,127.56566936288148,122.58874336577564
95,12,95,0,3.1698333333333304,7.0,57.14017850864661,6.082762530298219,12.041594578792296,15.132745950421556,17.029386365926403,12.041594578792296,37.12142238654117,25.079872407968907,21.5,14.0,18.0,4.0,21.0,8.0,2.0,3.1622776601683795,4.123105625617661,4.0,29.0,23.0,26.1725046566048,133.5402561027947,132.54433220624713,127.56566936288148,122.494897852931
96,12,96,0,3.203199999999997,9.055385138137417,58.137767414994535,5.0990195135927845,11.045361017187261,15.132745950421556,16.0312195418814,12.041594578792296,37.21558813185679,26.1725046566048,21.5,14.0,18.0,4.0,21.0,9.0,2.0,2.8284271247461903,3.1622776601683795,3.0,29.0,23.0,27.16615541441225,133.37541002748594,132.45754036671525,129.46814279968643,123.40583454602137
97,12,97,0,3.236566666666664,7.0710678118654755,58.137767414994535,6.082762530298219,12.041594578792296,16.1245154965971,17.029386365926403,12.041594578792296,37.21558813185679,25.179356624028344,21.5,14.0,18.0,4.0,21.0,8.0,2.0,3.605551275463989,3.1622776601683795,2.5,30.0,24.0,27.16615541441225,133.63382805263043,132.54433220624713,128.56126943990557,122.494897852931
98,12,98,0,3.2699333333333307,7.0710678118654755,57.21887800367987,6.082762530298219,12.041594578792296,15.033296378372908,17.11724276862369,12.041594578792296,37.21558813185679,25.179356624028344,21.5,14.0,19.0,4.5,20.5,6.5,0.5,3.605551275463989,4.0,3.5,29.0,23.0,27.16615541441225,132.54433220624713,132.54433220624713,128.56126943990557,122.494897852931
99,12,99,0,3.303299999999997,7.0710678118654755,58.215118311311535,6.082762530298219,12.041594578792296,16.0312195418814,17.029386365926403,12.041594578792296,37.21558813185679,25.179356624028344,21.5,14.0,19.0,4.5,20.5,7.5,1.5,5.0990195135927845,5.0990195135927845,5.0,29.0,23.0,27.073972741361768,132.6386067478093,131.64345787011217,127.66362050325849,122.58874336577564
100,12,100,0,3.336666666666664,9.0,58.137767414994535,5.0990195135927845,12.165525060596439,16.0312195418814,17.029386365926403,13.152946437965905,39.319206502675,27.16615541441225,22.5,16.0,20.0,5.0,21.0,8.0,0.0,6.082762530298219,7.0710678118654755,6.5,29.0,22.0,27.073972741361768,132.45754036671525,131.54847015454038,128.39003076563228,122.40914998479485
101,12,101,0,3.370033333333331,10.04987562112089,57.14017850864661,6.0,11.045361017187261,15.033296378372908,17.029386365926403,12.165525060596439,39.20459156782532,28.160255680657446,23.0,16.0,20.0,6.0,21.0,9.0,0.0,7.280109889280518,6.082762530298219,6.5,28.0,22.0,26.1725046566048,132.54433220624713,130.5526713629407,127.39309243440164,122.40914998479485
102,12,102,0,3.4033999999999978,11.0,58.077534382926416,6.082762530298219,11.180339887498949,15.132745950421556,17.029386365926403,13.038404810405298,41.19465984809196,30.066592756745816,24.5,18.0,21.0,6.5,21.5,9.5,0.5,6.324555320336759,7.0710678118654755,6.5,29.0,23.0,26.076809620810597,132.45754036671525,131.4610208388783,127.3184982632139,122.3315167894194
103,12,103,0,3.4367666666666645,12.041594578792296,58.137767414994535,6.082762530298219,11.045361017187261,15.0,17.029386365926403,13.038404810405298,42.190046219457976,31.144823004794873,25.0,17.0,21.0,6.0,23.0,11.0,1.0,6.324555320336759,7.0,7.0,29.0,23.0,26.1725046566048,131.4610208388783,130.38404810405297,127.3184982632139,122.2620137246234
104,12,104,0,3.470133333333332,14.035668847618199,58.034472514187634,6.082762530298219,10.04987562112089,16.0312195418814,18.027756377319946,12.041594578792296,42.190046219457976,32.14031735997639,25.0,19.0,21.0,8.0,22.0,10.0,2.0,6.324555320336759,7.0,7.0,29.0,22.0,27.073972741361768,130.4645545732633,129.38701635017324,125.25573839150046,121.26417442921878
105,12,105,0,3.503499999999998,13.038404810405298,58.077534382926416,6.082762530298219,11.045361017187261,16.0312195418814,17.029386365926403,12.041594578792296,42.190046219457976,31.144823004794873,24.5,18.0,21.0,7.5,22.5,10.5,1.5,7.280109889280518,8.0,7.5,29.0,22.0,27.073972741361768,130.38404810405297,129.46814279968643,126.3210196285638,121.26417442921878
106,12,106,0,3.536866666666665,14.035668847618199,58.034472514187634,6.082762530298219,11.045361017187261,16.0312195418814,18.0,12.041594578792296,43.18564576337837,32.14031735997639,25.0,19.0,21.0,8.0,23.0,11.0,2.0,7.0710678118654755,8.06225774829855,7.5,28.0,22.0,26.076809620810597,131.4610208388783,129.38701635017324,125.25573839150046,121.2023102090055
107,12,107,0,3.570233333333332,15.0,58.077534382926416,5.0990195135927845,10.04987562112089,16.0312195418814,17.0,13.152946437965905,43.18564576337837,33.13608305156178,25.5,19.0,22.0,7.5,22.5,11.5,2.5,7.280109889280518,8.06225774829855,7.5,27.0,21.0,25.179356624028344,130.38404810405297,130.31116606031887,126.25371281669304,121.2023102090055
108,12,108,0,3.6035999999999984,15.033296378372908,58.034472514187634,5.0990195135927845,10.04987562112089,16.0312195418814,18.027756377319946,13.038404810405298,43.18564576337837,33.13608305156178,25.5,19.0,21.0,7.0,23.0,12.0,2.0,8.246211251235321,7.0,7.5,28.0,22.0,26.1725046566048,132.3782459469833,132.3782459469833,128.3160161476345,122.20065466273084
109,12,109,0,3.636966666666665,15.033296378372908,58.077534382926416,6.0,10.04987562112089,16.0312195418814,17.029386365926403,12.165525060596439,43.18564576337837,33.13608305156178,25.5,19.0,22.0,8.5,22.5,11.5,2.5,7.280109889280518,7.0710678118654755,7.5,28.0,22.0,25.179356624028344,131.4610208388783,130.4645545732633,127.3184982632139,121.26417442921878
110,12,110,0,3.670333333333332,15.033296378372908,58.077534382926416,6.082762530298219,10.04987562112089,16.0312195418814,18.0,12.041594578792296,43.18564576337837,33.13608305156178,25.5,19.0,22.0,8.5,22.5,11.5,2.5,7.0710678118654755,8.0,8.0,28.0,22.0,26.076809620810597,133.37541002748594,132.3782459469833,129.31357237351384,123.25988804148737
111,12,111,0,3.703699999999999,15.033296378372908,59.033888572581766,6.0,10.04987562112089,15.0,17.0,12.041594578792296,43.104524124504614,33.06055050963308,25.5,19.0,21.0,8.0,23.0,12.0,3.0,7.0710678118654755,8.06225774829855,8.0,28.0,22.0,26.076809620810597,129.31357237351384,130.31116606031887,127.251719045363,121.1486689980538
112,12,112,0,3.7370666666666654,15.033296378372908,59.00847396772772,6.0,10.04987562112089,16.0,18.0,12.165525060596439,43.18564576337837,33.13608305156178,25.5,20.0,21.0,8.5,22.5,11.5,3.5,6.082762530298219,7.0710678118654755,7.0,28.0,22.0,25.079872407968907,131.24404748406687,131.24404748406687,128.191263352851,123.14625451064275
113,12,113,0,3.770433333333332,16.0312195418814,59.00847396772772,6.0,9.055385138137417,15.033296378372908,18.027756377319946,12.041594578792296,43.104524124504614,34.058772731852805,26.0,20.0,21.0,8.5,22.5,11.5,2.5,7.0710678118654755,7.0,7.0,27.0,22.0,26.076809620810597,132.1854757528224,131.18688958886096,127.1416532848303,123.10158406779338
114,12,114,0,3.803799999999999,16.0312195418814,58.034472514187634,6.0,10.04987562112089,16.0312195418814,18.0,12.041594578792296,44.10215414239989,34.058772731852805,26.0,20.0,22.0,9.0,23.0,12.0,3.0,8.06225774829855,8.06225774829855,7.5,26.0,21.0,26.076809620810597,132.13629327327143,132.13629327327143,128.09761902549164,122.10241602851272
115,12,115,0,3.8371666666666657,15.033296378372908,59.00847396772772,6.0,10.04987562112089,16.0,18.027756377319946,13.038404810405298,44.10215414239989,34.058772731852805,26.5,22.0,23.0,9.5,21.5,10.5,4.5,8.246211251235321,7.0710678118654755,7.5,27.0,22.0,25.079872407968907,131.13733259449805,132.09466302617983,128.06248474865697,122.06555615733703
116,12,116,0,3.870533333333333,15.033296378372908,59.033888572581766,6.0,10.04987562112089,16.0312195418814,18.0,13.152946437965905,44.181444068749045,34.132096331752024,26.5,21.0,23.0,9.0,22.0,11.0,3.0,7.0710678118654755,7.0710678118654755,7.0,26.0,22.0,26.076809620810597,131.13733259449805,131.13733259449805,127.06297651164952,122.03687967167957
117,12,117,0,3.9038999999999993,16.0312195418814,59.00847396772772,6.0,10.0,16.0312195418814,17.0,12.165525060596439,44.10215414239989,34.132096331752024,26.0,21.0,22.0,9.5,22.5,11.5,3.5,7.0710678118654755,7.0710678118654755,7.0,26.0,22.0,26.076809620810597,133.09395177843356,134.09325113517085,130.06152390311286,124.06449935416659
118,12,118,0,3.937266666666666,16.0,58.034472514187634,7.0710678118654755,9.055385138137417,16.0,17.029386365926403,12.0,44.04543109109048,35.014282800023196,27.0,22.0,24.0,11.0,21.0,11.0,5.0,7.0710678118654755,7.0710678118654755,7.0,25.0,22.0,25.079872407968907,134.05968819895114,133.0338302838793,129.0155029444136,124.01612798341996
119,12,119,0,3.970633333333333,15.0,57.0350769263968,6.082762530298219,11.045361017187261,16.0312195418814,17.029386365926403,12.041594578792296,44.10215414239989,33.06055050963308,25.5,21.0,23.0,10.0,22.0,10.0,4.0,7.0710678118654755,7.0710678118654755,7.0,26.0,22.0,25.019992006393608,134.09325113517085,134.09325113517085,130.06152390311286,123.06502346320826
120,12,120,0,4.004,14.035668847618199,55.036351623268054,6.0,10.04987562112089,14.0,15.0,13.038404810405298,43.104524124504614,33.06055050963308,26.0,22.0,24.0,10.0,20.0,9.0,4.0,7.0710678118654755,7.0,7.5,26.0,22.0,25.019992006393608,132.24220203853233,130.18832512940628,127.09838708654017,122.10241602851272
121,12,121,0,4.037366666666666,9.055385138137417,54.08326913195984,8.0,11.045361017187261,13.0,15.0,13.152946437965905,41.19465984809196,30.14962686336267,25.5,21.0,24.0,9.5,18.5,6.5,1.5,7.0710678118654755,7.0,6.5,26.0,22.0,24.020824298928627,132.13629327327143,132.09466302617983,129.0620006043607,123.06502346320826
122,12,122,0,4.070733333333333,6.0,51.03920062069938,8.06225774829855,11.045361017187261,13.0,14.0,14.0,39.05124837953327,28.0178514522438,25.0,22.0,24.0,9.0,16.0,5.0,1.0,7.0710678118654755,8.06225774829855,7.5,27.0,22.0,24.020824298928627,131.24404748406687,130.18832512940628,127.1416532848303,122.10241602851272
123,12,123,0,4.1041,3.0,50.039984012787215,7.0710678118654755,11.045361017187261,12.0,13.0,16.0312195418814,37.12142238654117,26.076809620810597,24.5,22.0,24.0,7.0,14.0,3.0,0.0,7.0710678118654755,7.0,7.0,27.0,22.0,25.019992006393608,130.18832512940628,131.13733259449805,128.09761902549164,123.06502346320826
124,12,124,0,4.137466666666667,1.4142135623730951,51.03920062069938,8.0,9.0,12.0,14.0,15.033296378372908,33.06055050963308,24.08318915758459,23.5,21.0,23.0,7.0,11.0,1.0,1.0,7.0710678118654755,7.0710678118654755,7.0,26.0,21.0,24.020824298928627,131.18688958886096,131.18688958886096,127.09838708654017,122.06555615733703
125,12,125,0,4.170833333333333,1.4142135623730951,52.03844732503075,8.0,10.0,12.0,14.0,15.033296378372908,34.058772731852805,24.08318915758459,23.5,21.0,23.0,7.0,12.0,2.0,1.0,8.06225774829855,8.06225774829855,7.5,26.0,22.0,25.019992006393608,130.13838787997952,131.13733259449805,127.09838708654017,123.06502346320826
126,12,126,0,4.2042,2.0,51.0098029794274,8.06225774829855,9.055385138137417,12.041594578792296,13.0,16.0,35.05709628591621,26.019223662515376,25.0,22.0,23.0,6.5,12.5,2.5,1.5,7.0710678118654755,7.0,7.0,26.0,22.0,24.020824298928627,130.18832512940628,131.13733259449805,127.09838708654017,122.06555615733703
127,12,127,0,4.237566666666667,7.0,54.00925846556311,8.06225774829855,11.045361017187261,13.038404810405298,15.033296378372908,15.0,41.048751503547585,30.01666203960727,26.5,23.0,24.0,8.5,17.5,6.5,0.5,7.0710678118654755,7.0,6.5,26.0,22.0,24.020824298928627,132.09466302617983,132.06059215375342,128.03515142334936,123.03657992645927
128,12,128,0,4.270933333333334,13.0,56.00892785976178,6.082762530298219,10.04987562112089,15.0,17.0,15.0,44.04543109109048,34.0147027033899,27.5,24.0,25.0,9.5,19.5,8.5,3.5,7.0,8.0,7.5,26.0,23.0,25.019992006393608,133.06013678032951,132.06059215375342,128.01562404644207,123.01625908797584
129,12,129,0,4.3043000000000005,14.0,57.0087712549569,7.0710678118654755,10.0,15.033296378372908,17.0,13.0,44.01136216933077,34.0147027033899,27.0,24.0,25.0,11.5,19.5,8.5,4.5,7.0710678118654755,8.0,7.5,25.0,22.0,26.076809620810597,135.03332921912278,134.03357788255897,130.00384609695206,124.00403219250575
130,12,130,0,4.337666666666667,11.045361017187261,57.0087712549569,7.0,11.0,15.033296378372908,17.029386365926403,13.0,42.01190307520001,31.016124838541646,25.5,24.0,25.0,11.5,17.5,6.5,4.5,7.0710678118654755,7.0,7.0,26.0,22.0,25.079872407968907,134.03357788255897,133.0338302838793,130.00384609695206,125.00399993600205
131,12,131,0,4.371033333333334,10.04987562112089,58.008620049092706,7.0,11.0,15.033296378372908,17.0,13.038404810405298,41.048751503547585,30.066592756745816,25.0,23.0,24.0,10.5,17.5,6.5,3.5,7.0710678118654755,7.0710678118654755,6.5,26.0,22.0,25.079872407968907,134.05968819895114,134.05968819895114,130.034610777285,125.03599481749245
132,12,132,0,4.404400000000001,11.045361017187261,58.077534382926416,7.0,10.0,15.033296378372908,17.029386365926403,12.041594578792296,40.049968789001575,30.066592756745816,24.5,22.0,25.0,11.5,16.5,5.5,4.5,7.0710678118654755,8.06225774829855,7.5,27.0,21.0,26.076809620810597,134.18271125595876,134.18271125595876,130.13838787997952,125.09996003196804
133,12,133,0,4.437766666666668,10.0,57.14017850864661,8.06225774829855,11.045361017187261,15.033296378372908,17.029386365926403,11.045361017187261,40.11234224026316,29.068883707497267,24.0,22.0,26.0,13.0,16.0,4.0,5.0,7.280109889280518,7.0710678118654755,7.0,27.0,19.0,26.1725046566048,132.3782459469833,132.30646242719968,129.18978287774928,125.14391715141412
134,12,134,0,4.471133333333334,10.04987562112089,56.22277118748239,7.0,9.055385138137417,14.035668847618199,16.0312195418814,12.041594578792296,38.118237105091836,29.068883707497267,24.0,23.0,28.0,13.5,12.5,2.5,5.5,7.280109889280518,7.0710678118654755,6.5,28.0,19.0,25.317977802344327,132.54433220624713,131.4610208388783,127.39309243440164,123.25988804148737
135,12,135,0,4.504500000000001,7.0710678118654755,55.226805085936306,8.06225774829855,8.06225774829855,14.035668847618199,14.035668847618199,11.045361017187261,34.23448553724738,26.1725046566048,22.5,22.0,27.0,13.5,9.5,0.5,5.5,6.082762530298219,7.0710678118654755,6.5,30.0,19.0,25.317977802344327,133.63382805263043,133.5402561027947,129.46814279968643,124.32618388738553
136,12,136,0,4.537866666666668,6.0,57.3149195236284,7.0710678118654755,8.246211251235321,14.035668847618199,14.142135623730951,12.041594578792296,33.24154027718932,25.079872407968907,22.0,22.0,28.0,13.0,8.0,1.0,5.0,6.082762530298219,7.280109889280518,6.5,30.0,19.0,26.30589287593181,133.63382805263043,133.4541119636259,130.38404810405297,124.32618388738553
137,12,137,0,4.571233333333335,7.0,57.42821606144492,8.06225774829855,9.219544457292887,14.142135623730951,15.132745950421556,11.045361017187261,35.22782990761707,26.076809620810597,22.5,21.0,28.0,13.5,10.5,0.5,4.5,7.0710678118654755,7.280109889280518,7.0,30.0,19.0,25.317977802344327,135.6244815658294,136.5283853270081,132.3782459469833,127.251719045363
138,12,138,0,4.604600000000001,11.045361017187261,58.309518948453004,9.0,10.04987562112089,14.142135623730951,15.132745950421556,9.219544457292887,39.20459156782532,29.154759474226502,23.5,22.0,28.0,16.0,14.0,3.0,6.0,7.0710678118654755,7.0710678118654755,7.0,31.0,19.0,26.1725046566048,133.5402561027947,134.3726162579266,131.24404748406687,125.19584657647394
139,12,139,0,4.637966666666668,12.0,58.309518948453004,9.055385138137417,11.045361017187261,14.035668847618199,16.1245154965971,10.04987562112089,42.1070065428546,31.064449134018133,25.0,22.0,28.0,15.0,17.0,5.0,6.0,6.082762530298219,7.0710678118654755,6.5,30.0,20.0,26.476404589747453,135.36986370680884,135.2368293032634,132.13629327327143,127.06297651164952
140,12,140,0,4.671333333333335,11.0,57.3149195236284,9.055385138137417,12.041594578792296,15.132745950421556,16.1245154965971,10.04987562112089,42.1070065428546,30.066592756745816,24.5,22.0,28.0,15.0,17.0,4.0,5.0,6.082762530298219,6.0,6.0,30.0,20.0,28.284271247461902,133.4541119636259,134.30189872075525,131.18688958886096,126.09916732476864
141,12,141,0,4.704700000000002,11.045361017187261,58.215118311311535,8.06225774829855,11.045361017187261,15.132745950421556,17.029386365926403,11.0,41.10960958218893,30.066592756745816,24.5,21.0,26.0,12.5,17.5,5.5,3.5,7.0710678118654755,6.082762530298219,6.5,30.0,21.0,27.16615541441225,132.3782459469833,133.30416347586447,130.18832512940628,126.14277624977183
142,12,142,0,4.738066666666668,9.055385138137417,58.215118311311535,9.055385138137417,12.041594578792296,15.033296378372908,16.1245154965971,10.04987562112089,40.19950248448356,28.160255680657446,23.5,21.0,26.0,13.5,16.5,3.5,4.5,6.324555320336759,7.0710678118654755,7.0,30.0,22.0,26.1725046566048,134.45073447177595,134.3726162579266,131.24404748406687,126.19429464123962
143,12,143,0,4.771433333333335,8.0,58.215118311311535,8.06225774829855,12.041594578792296,15.132745950421556,16.0312195418814,11.180339887498949,39.20459156782532,27.16615541441225,23.0,21.0,26.0,12.5,15.5,2.5,3.5,7.0710678118654755,7.0710678118654755,6.5,29.0,21.0,27.073972741361768,136.61991070118586,137.5245432641025,132.45754036671525,128.39003076563228
144,12,144,0,4.804800000000002,9.0,57.21887800367987,8.06225774829855,11.045361017187261,16.0312195418814,17.029386365926403,11.045361017187261,39.11521443121589,28.071337695236398,23.5,20.0,25.0,11.5,16.5,4.5,3.5,7.280109889280518,7.0710678118654755,7.0,31.0,23.0,27.16615541441225,134.8369385591352,134.6291201783626,130.5526713629407,126.39620247459969
145,12,145,0,4.838166666666669,8.06225774829855,57.21887800367987,8.06225774829855,12.041594578792296,15.033296378372908,17.029386365926403,11.045361017187261,39.20459156782532,27.16615541441225,23.0,19.0,24.0,10.5,17.5,4.5,2.5,6.324555320336759,7.0710678118654755,7.0,30.0,23.0,27.073972741361768,135.6244815658294,135.5322839769182,131.4610208388783,126.39620247459969
146,12,146,0,4.871533333333336,8.0,57.14017850864661,7.0710678118654755,11.045361017187261,16.0312195418814,17.029386365926403,12.041594578792296,38.118237105091836,27.073972741361768,23.0,18.0,22.0,8.0,18.0,6.0,1.0,7.280109889280518,8.0,7.5,30.0,23.0,26.076809620810597,136.61991070118586,134.6291201783626,132.45754036671525,127.3184982632139
147,12,147,0,4.904900000000002,7.0710678118654755,58.137767414994535,7.0,12.041594578792296,16.0312195418814,17.029386365926403,12.165525060596439,38.2099463490856,26.1725046566048,22.5,17.0,21.0,7.0,19.0,6.0,0.0,8.06225774829855,8.0,7.5,29.0,24.0,27.16615541441225,134.72935834479432,134.6291201783626,131.54847015454038,126.4792473095883
148,12,148,0,4.938266666666669,8.0,59.07622195096772,6.082762530298219,13.038404810405298,15.033296378372908,17.0,13.038404810405298,40.11234224026316,27.073972741361768,23.0,16.0,19.0,4.5,22.5,8.5,1.5,8.06225774829855,8.0,7.5,30.0,25.0,26.076809620810597,135.6244815658294,134.5362404707371,132.3782459469833,127.3184982632139
149,12,149,0,4.971633333333336,9.055385138137417,58.077534382926416,6.0,12.041594578792296,15.0,18.027756377319946,13.152946437965905,40.19950248448356,28.160255680657446,23.5,16.0,19.0,4.5,22.5,9.5,0.5,8.246211251235321,9.0,8.5,29.0,24.0,26.076809620810597,134.45073447177595,134.3726162579266,130.31116606031887,125.19584657647394
150,12,150,0,5.005000000000003,11.045361017187261,59.07622195096772,5.0,12.041594578792296,16.0312195418814,18.027756377319946,14.035668847618199,42.1070065428546,30.066592756745816,24.5,17.0,20.0,4.5,23.5,9.5,0.5,8.246211251235321,8.0,8.0,30.0,24.0,26.076809620810597,133.37541002748594,132.30646242719968,129.24782396620841,122.2620137246234
151,12,151,0,5.038366666666669,10.04987562112089,59.135437767890075,6.082762530298219,12.041594578792296,16.0312195418814,17.029386365926403,13.038404810405298,41.19465984809196,29.154759474226502,24.0,16.0,20.0,5.0,23.0,10.0,1.0,8.246211251235321,8.06225774829855,8.0,30.0,24.0,26.076809620810597,131.54847015454038,130.4645545732633,126.4792473095883,119.50732195141852
152,12,152,0,5.071733333333336,10.04987562112089,59.07622195096772,6.082762530298219,11.045361017187261,16.0312195418814,18.027756377319946,13.152946437965905,40.311288741492746,29.274562336608895,24.0,16.0,19.0,4.5,22.5,9.5,0.5,8.246211251235321,8.0,8.0,31.0,25.0,27.073972741361768,129.46814279968643,129.46814279968643,125.4830665866913,119.50732195141852
153,12,153,0,5.105100000000003,10.0,59.135437767890075,6.082762530298219,11.180339887498949,16.0312195418814,17.029386365926403,13.152946437965905,40.311288741492746,29.154759474226502,24.0,16.0,20.0,5.0,22.0,9.0,1.0,8.246211251235321,9.0,8.5,30.0,24.0,27.073972741361768,132.45754036671525,131.4610208388783,127.39309243440164,121.41251994749142
154,12,154,0,5.13846666666667,9.055385138137417,58.137767414994535,6.082762530298219,12.041594578792296,15.033296378372908,17.029386365926403,13.152946437965905,40.311288741492746,28.284271247461902,23.5,16.0,20.0,5.0,22.0,8.0,1.0,8.246211251235321,9.0,8.5,29.0,23.0,27.16615541441225,132.54433220624713,131.4610208388783,128.39003076563228,122.3315167894194
155,12,155,0,5.171833333333336,8.0,58.137767414994535,6.082762530298219,12.165525060596439,15.033296378372908,17.029386365926403,13.152946437965905,39.319206502675,27.16615541441225,23.0,16.0,20.0,5.0,21.0,8.0,1.0,5.0990195135927845,6.082762530298219,5.5,30.0,23.0,28.071337695236398,133.5402561027947,131.54847015454038,128.47178678604885,123.40583454602137
156,12,156,0,5.205200000000003,8.06225774829855,58.137767414994535,6.082762530298219,12.041594578792296,15.132745950421556,17.029386365926403,13.152946437965905,39.319206502675,27.294688127912362,23.0,16.0,20.0,5.0,21.0,8.0,1.0,3.1622776601683795,3.1622776601683795,3.0,30.0,23.0,26.076809620810597,133.5402561027947,132.54433220624713,129.46814279968643,123.40583454602137
157,12,157,0,5.23856666666667,9.055385138137417,60.13318551349163,6.082762530298219,11.045361017187261,16.0312195418814,17.029386365926403,12.041594578792296,38.2099463490856,27.16615541441225,22.5,15.0,19.0,5.0,21.0,9.0,1.0,3.1622776601683795,3.1622776601683795,2.5,30.0,22.0,26.1725046566048,133.63382805263043,132.6386067478093,129.5569372901351,122.494897852931
158,12,158,0,5.271933333333337,9.055385138137417,59.21148537234985,6.082762530298219,11.180339887498949,16.0312195418814,17.029386365926403,12.041594578792296,38.3275357934736,27.16615541441225,22.5,15.0,20.0,5.5,20.5,8.5,0.5,3.1622776601683795,3.1622776601683795,3.0,30.0,22.0,27.16615541441225,134.72935834479432,133.73481222179961,130.5526713629407,123.58397954427588
159,12,159,0,5.305300000000004,9.055385138137417,59.135437767890075,5.0990195135927845,11.045361017187261,17.029386365926403,18.027756377319946,13.152946437965905,38.3275357934736,27.294688127912362,22.5,16.0,20.0,5.0,20.0,8.0,0.0,3.1622776601683795,4.123105625617661,3.5,29.0,22.0,26.1725046566048,132.6386067478093,131.54847015454038,128.39003076563228,123.40583454602137
160,12,160,0,5.33866666666667,6.0,58.137767414994535,7.0710678118654755,12.041594578792296,15.033296378372908,17.029386365926403,12.165525060596439,37.21558813185679,25.179356624028344,22.0,16.0,20.0,6.0,19.0,6.0,0.0,5.0990195135927845,5.0990195135927845,5.0,30.0,22.0,26.1725046566048,134.6291201783626,132.74034804836094,130.4645545732633,124.4869471069156
161,12,161,0,5.372033333333337,7.0,59.07622195096772,7.0710678118654755,12.041594578792296,15.033296378372908,17.0,12.165525060596439,38.2099463490856,26.1725046566048,22.5,17.0,20.0,6.5,19.5,6.5,0.5,6.082762530298219,6.082762530298219,6.0,29.0,22.0,27.16615541441225,132.74034804836094,132.6386067478093,128.65846260545786,123.4908903522847
162,12,162,0,5.405400000000004,7.0710678118654755,58.137767414994535,7.0710678118654755,12.041594578792296,16.0312195418814,17.029386365926403,12.041594578792296,38.2099463490856,26.1725046566048,22.5,17.0,21.0,7.0,19.0,6.0,0.0,6.324555320336759,6.082762530298219,6.5,29.0,22.0,25.079872407968907,133.73481222179961,133.63382805263043,130.5526713629407,124.4025723206719
163,12,163,0,5.438766666666671,8.0,58.137767414994535,6.082762530298219,12.041594578792296,16.0312195418814,17.029386365926403,13.038404810405298,39.11521443121589,27.073972741361768,23.0,18.0,22.0,7.0,19.0,7.0,1.0,6.324555320336759,6.082762530298219,6.5,29.0,22.0,26.076809620810597,134.6291201783626,133.63382805263043,129.46814279968643,124.4025723206719
164,12,164,0,5.472133333333337,9.0,58.137767414994535,6.082762530298219,13.038404810405298,16.1245154965971,17.029386365926403,13.152946437965905,41.19465984809196,28.160255680657446,23.5,18.0,22.0,7.0,21.0,7.0,0.0,6.324555320336759,6.0,6.5,29.0,22.0,26.1725046566048,134.5362404707371,133.5402561027947,129.38701635017324,124.4025723206719
165,12,165,0,5.505500000000004,11.045361017187261,58.137767414994535,6.082762530298219,13.038404810405298,16.0312195418814,18.110770276274835,13.152946437965905,43.289721643826724,30.265491900843113,24.5,19.0,23.0,8.0,22.0,8.0,2.0,6.324555320336759,7.0710678118654755,7.0,29.0,22.0,25.079872407968907,134.6291201783626,133.5402561027947,129.46814279968643,123.40583454602137
166,12,166,0,5.538866666666671,13.0,59.135437767890075,6.082762530298219,13.038404810405298,17.029386365926403,18.027756377319946,13.152946437965905,45.17742799230607,32.14031735997639,25.5,20.0,24.0,9.0,23.0,9.0,3.0,7.280109889280518,7.0710678118654755,6.5,29.0,22.0,26.076809620810597,134.45073447177595,133.4541119636259,129.38701635017324,123.3288287465668
167,12,167,0,5.572233333333338,14.0,59.07622195096772,7.0710678118654755,13.038404810405298,17.029386365926403,18.027756377319946,13.152946437965905,47.16990566028302,34.132096331752024,27.0,21.0,24.0,9.5,24.5,10.5,2.5,7.280109889280518,8.0,7.5,29.0,22.0,26.076809620810597,134.5362404707371,134.45073447177595,130.31116606031887,123.25988804148737
168,12,168,0,5.605600000000004,15.033296378372908,59.07622195096772,7.0710678118654755,12.041594578792296,16.0312195418814,18.027756377319946,13.038404810405298,47.16990566028302,35.12833614050059,27.5,22.0,25.0,10.5,23.5,10.5,3.5,7.280109889280518,8.0,7.5,28.0,22.0,27.16615541441225,134.45073447177595,133.30416347586447,130.31116606031887,124.19742348374221
169,12,169,0,5.638966666666671,12.041594578792296,57.07889277132134,7.0,13.038404810405298,17.029386365926403,18.027756377319946,13.152946437965905,45.17742799230607,32.14031735997639,26.0,22.0,25.0,10.5,21.5,7.5,3.5,7.0710678118654755,7.0,7.0,30.0,23.0,27.073972741361768,134.45073447177595,134.3726162579266,130.31116606031887,124.25779653607253
170,12,170,0,5.672333333333338,11.045361017187261,56.142675390472796,7.0710678118654755,11.045361017187261,15.033296378372908,16.0312195418814,14.142135623730951,43.289721643826724,32.2490309931942,26.5,21.0,25.0,9.0,20.0,8.0,2.0,7.280109889280518,8.06225774829855,8.0,30.0,23.0,26.1725046566048,135.44740676735012,134.3726162579266,130.31116606031887,123.25988804148737
171,12,171,0,5.705700000000005,9.055385138137417,55.14526271584895,8.06225774829855,11.045361017187261,14.035668847618199,16.0312195418814,15.132745950421556,43.289721643826724,32.2490309931942,27.5,22.0,26.0,9.0,19.0,7.0,1.0,7.0710678118654755,8.06225774829855,7.5,30.0,23.0,26.076809620810597,134.5362404707371,134.5362404707371,129.38701635017324,124.32618388738553
172,12,172,0,5.739066666666671,11.045361017187261,54.08326913195984,8.06225774829855,12.041594578792296,14.035668847618199,16.0312195418814,15.132745950421556,46.2709412050371,34.23448553724738,28.5,24.0,27.0,10.5,20.5,8.5,2.5,8.06225774829855,8.06225774829855,8.0,30.0,24.0,27.073972741361768,134.45073447177595,134.3726162579266,130.31116606031887,123.3288287465668
173,12,173,0,5.772433333333338,13.038404810405298,53.08483775994799,9.0,12.041594578792296,13.038404810405298,15.0,14.142135623730951,48.16637831516918,36.124783736376884,29.5,26.0,29.0,13.5,20.5,7.5,4.5,8.06225774829855,8.06225774829855,8.0,30.0,24.0,26.1725046566048,133.37541002748594,134.3726162579266,129.31357237351384,122.20065466273084
174,12,174,0,5.805800000000005,13.038404810405298,51.088159097779204,8.0,12.041594578792296,13.038404810405298,14.0,15.132745950421556,48.16637831516918,36.124783736376884,29.5,26.0,29.0,12.5,20.5,7.5,3.5,8.06225774829855,8.0,8.0,30.0,24.0,27.073972741361768,135.29966740535616,135.2368293032634,130.18832512940628,124.19742348374221
175,12,175,0,5.839166666666672,10.0,50.08991914547278,8.06225774829855,11.045361017187261,12.041594578792296,14.0,16.0312195418814,45.09988913511872,34.058772731852805,29.0,26.0,29.0,11.5,17.5,5.5,3.5,7.0710678118654755,7.0710678118654755,7.0,29.0,24.0,27.073972741361768,133.24038426843418,133.18408313308313,129.1394595001853,122.14745187681976
176,12,176,0,5.8725333333333385,5.0990195135927845,49.040799340956916,9.0,11.0,12.041594578792296,14.0,15.033296378372908,40.049968789001575,29.068883707497267,26.5,25.0,27.0,11.0,14.0,3.0,2.0,7.0,7.0710678118654755,7.5,28.0,23.0,26.019223662515376,133.06013678032951,133.06013678032951,128.03515142334936,121.03718436910205
177,12,177,0,5.905900000000005,3.0,50.0,8.0,10.0,13.0,13.038404810405298,15.033296378372908,36.013886210738214,26.019223662515376,24.5,26.0,26.0,11.0,10.0,0.0,3.0,7.0710678118654755,7.0710678118654755,7.0,27.0,23.0,26.076809620810597,133.01503674397117,133.00375934536586,128.0,122.00409829181969
178,12,178,0,5.939266666666672,1.0,50.0,8.0,10.0,13.0,13.038404810405298,15.033296378372908,34.0147027033899,24.020824298928627,23.5,26.0,26.0,11.0,8.0,2.0,3.0,7.0,7.0710678118654755,7.0,28.0,24.0,26.076809620810597,133.00375934536586,133.01503674397117,130.034610777285,123.03657992645927
179,12,179,0,5.972633333333339,1.0,50.039984012787215,8.0,9.0,13.038404810405298,13.0,15.033296378372908,32.0624390837628,23.08679276123039,23.0,26.0,24.0,10.0,7.0,2.0,3.0,7.0,7.0,7.0,25.0,23.0,26.0,134.01492454200763,133.06013678032951,127.09838708654017,122.14745187681976
180,12,180,0,6.006000000000006,2.23606797749979,50.039984012787215,7.0,9.0,13.0,13.038404810405298,15.033296378372908,33.06055050963308,24.08318915758459,23.0,26.0,24.0,10.0,8.0,1.0,3.0,7.0,7.0,6.5,25.0,24.0,24.0,134.13426109685773,134.18271125595876,130.24592124131948,123.25988804148737
181,12,181,0,6.039366666666672,2.23606797749979,48.041648597857254,7.0,9.055385138137417,13.038404810405298,13.038404810405298,15.033296378372908,33.13608305156178,24.08318915758459,23.0,26.0,24.0,10.0,8.0,1.0,3.0,7.0710678118654755,7.0,7.0,24.0,25.0,26.0,134.30189872075525,133.37541002748594,129.38701635017324,123.40583454602137
182,12,182,0,6.072733333333339,4.0,47.095647357266465,9.0,11.045361017187261,12.0,12.041594578792296,13.152946437965905,37.12142238654117,26.076809620810597,24.0,28.0,25.0,13.5,10.5,0.5,4.5,7.0710678118654755,7.0,6.5,23.0,26.0,26.019223662515376,135.44740676735012,134.45073447177595,129.5569372901351,123.4908903522847
183,12,183,0,6.106100000000006,9.0,46.17358552246078,8.0,11.045361017187261,12.0,13.038404810405298,12.165525060596439,40.11234224026316,29.068883707497267,24.5,30.0,26.0,16.0,12.0,1.0,8.0,6.082762530298219,7.0710678118654755,7.0,23.0,26.0,26.076809620810597,135.6244815658294,134.6291201783626,128.56126943990557,122.494897852931
184,12,184,0,6.139466666666673,12.0,46.09772228646444,7.0,10.04987562112089,12.041594578792296,13.038404810405298,11.180339887498949,40.11234224026316,30.066592756745816,24.0,29.0,26.0,16.5,12.5,2.5,9.5,6.082762530298219,7.0,7.0,23.0,27.0,26.019223662515376,135.36986370680884,133.30416347586447,128.39003076563228,121.33424908079334
185,12,185,0,6.172833333333339,11.0,48.093658625644196,7.0,11.045361017187261,13.038404810405298,15.033296378372908,11.180339887498949,40.11234224026316,29.068883707497267,23.5,29.0,26.0,16.5,12.5,1.5,9.5,6.082762530298219,7.0710678118654755,7.0,22.0,25.0,25.019992006393608,138.1774221788784,135.18135966175217,130.13838787997952,122.10241602851272
186,12,186,0,6.206200000000006,11.0,48.041648597857254,7.0,10.04987562112089,13.038404810405298,14.035668847618199,11.045361017187261,39.05124837953327,29.017236257093817,23.5,28.0,26.0,16.0,12.0,2.0,9.0,7.0,6.0,6.0,23.0,26.0,26.019223662515376,137.09121051329294,135.09256086106296,129.0620006043607,123.10158406779338
187,12,187,0,6.239566666666673,11.0,48.041648597857254,7.0,10.0,12.041594578792296,14.035668847618199,10.198039027185569,38.05259518088089,28.071337695236398,22.5,28.0,26.0,17.0,11.0,1.0,10.0,7.0,7.0,7.0,23.0,25.0,26.076809620810597,138.0905500025255,135.05924625881784,130.09611831257686,124.06449935416659
188,12,188,0,6.27293333333334,10.0,48.041648597857254,7.0,11.0,13.0,14.035668847618199,11.180339887498949,39.05124837953327,28.071337695236398,23.0,28.0,26.0,16.0,12.0,1.0,9.0,7.0,7.0710678118654755,7.0,23.0,25.0,25.019992006393608,139.05754204644924,136.0588108135596,131.06105447462264,125.03599481749245
189,12,189,0,6.306300000000007,9.055385138137417,49.040799340956916,8.0,10.0,14.035668847618199,14.0,11.045361017187261,38.05259518088089,28.071337695236398,23.5,28.0,26.0,16.0,11.0,1.0,9.0,7.0,7.0,7.0,22.0,24.0,25.019992006393608,137.05838172107534,135.05924625881784,130.034610777285,124.03628501370073
190,12,190,0,6.339666666666673,10.0,51.03920062069938,8.0,10.0,14.0,15.0,11.045361017187261,39.01281840626232,29.017236257093817,24.0,28.0,26.0,16.0,12.0,2.0,8.0,7.0,6.0,6.0,23.0,24.0,26.0,137.05838172107534,134.03357788255897,130.034610777285,124.01612798341996
191,12,191,0,6.37303333333334,12.0,52.03844732503075,8.0,11.045361017187261,14.035668847618199,15.0,11.045361017187261,42.04759208325728,31.016124838541646,25.0,28.0,26.0,16.0,15.0,4.0,9.0,7.0,7.0,7.0,22.0,23.0,26.0,136.03308421115798,134.01492454200763,130.01538370516005,124.00403219250575
192,12,192,0,6.406400000000007,14.0,54.037024344425184,8.0,11.0,14.0,16.0312195418814,11.045361017187261,44.01136216933077,33.015148038438355,26.0,28.0,26.0,16.0,17.0,6.0,8.0,7.0710678118654755,7.0,6.5,23.0,24.0,25.0,136.0036764208968,135.00370365289984,130.0,124.00403219250575
193,12,193,0,6.4397666666666735,18.0,56.0357029044876,8.0,10.04987562112089,14.035668847618199,17.029386365926403,11.045361017187261,47.042533945356304,37.013511046643494,28.0,29.0,27.0,17.0,19.0,9.0,9.0,6.0,6.0,6.0,23.0,23.0,26.0,136.03308421115798,134.00373129133382,130.00384609695206,124.00403219250575
194,12,194,0,6.47313333333334,19.0,57.0087712549569,8.0,11.0,15.0,17.029386365926403,11.045361017187261,49.01020301937138,38.01315561749642,28.5,28.0,27.0,16.5,21.5,10.5,8.5,6.0,7.0,6.5,23.0,23.0,26.019223662515376,136.01470508735443,134.00373129133382,130.00384609695206,124.0
195,12,195,0,6.506500000000007,21.0,57.0087712549569,8.0,11.0,16.0,18.0,11.0,51.0,40.0,29.5,29.0,28.0,17.5,22.5,11.5,9.5,6.0,6.0,6.5,23.0,23.0,27.0,137.00364958642524,135.0,130.00384609695206,123.00406497347964
196,12,196,0,6.539866666666674,21.0,58.008620049092706,8.0,11.0,16.0312195418814,18.027756377319946,12.0,52.0,41.0,30.5,29.0,28.0,16.5,23.5,12.5,9.5,3.0,4.0,3.5,24.0,23.0,26.0,137.0,136.0,131.00381673829202,124.00403219250575
197,12,197,0,6.573233333333341,21.0,58.008620049092706,7.0,11.0,16.0,17.0,12.0,51.0,40.0,29.5,28.0,27.0,15.5,23.5,12.5,8.5,2.0,2.23606797749979,1.5,25.0,24.0,26.0,137.0,135.00370365289984,131.00381673829202,124.01612798341996
198,12,198,0,6.606600000000007,21.0,59.0,7.0,10.0,16.0,18.027756377319946,12.0,50.0,40.0,29.5,27.0,27.0,15.0,23.0,12.0,8.0,2.0,2.0,1.5,25.0,24.0,27.018512172212592,139.0,136.01470508735443,131.01526628603247,125.03599481749245
199,12,199,0,6.639966666666674,20.0,59.0,7.0710678118654755,11.0,16.0,18.0,12.0,50.00999900019995,39.01281840626232,29.0,27.0,27.0,15.0,23.0,11.0,8.0,2.0,3.1622776601683795,2.5,25.0,24.0,27.018512172212592,138.05795884337854,136.0588108135596,131.06105447462264,125.09996003196804
200,12,200,0,6.673333333333341,19.0,59.0,7.0,10.0,16.0,19.026297590440446,13.038404810405298,49.01020301937138,39.01281840626232,29.5,27.0,27.0,14.0,22.0,11.0,7.0,4.123105625617661,4.0,4.0,25.0,23.0,26.019223662515376,138.05795884337854,135.05924625881784,132.09466302617983,125.09996003196804
201,12,201,0,6.706700000000008,17.029386365926403,60.00833275470999,8.0,11.0,16.0,17.029386365926403,11.0,47.01063709417264,36.013886210738214,27.5,25.0,26.0,14.5,21.5,10.5,6.5,5.0,6.0,5.5,26.0,24.0,25.019992006393608,137.09121051329294,135.09256086106296,131.0953851209111,125.09996003196804
202,12,202,0,6.740066666666674,14.0,59.00847396772772,8.06225774829855,11.045361017187261,15.0,17.0,12.041594578792296,45.0111097397076,34.0,27.0,25.0,26.0,13.5,19.5,8.5,5.5,5.0,6.082762530298219,5.5,26.0,24.0,26.019223662515376,137.13132391981054,135.1332675546625,131.13733259449805,125.14391715141412
203,12,203,0,6.773433333333341,12.0,59.00847396772772,8.0,11.045361017187261,16.0,17.029386365926403,12.0,43.01162633521314,32.0,26.0,24.0,25.0,12.5,18.5,7.5,4.5,6.082762530298219,6.0,5.5,25.0,24.0,26.019223662515376,137.13132391981054,136.1800279042415,132.1854757528224,127.1927670899568
204,12,204,0,6.806800000000008,13.0,58.008620049092706,8.0,11.045361017187261,15.0,17.0,11.0,43.01162633521314,32.0,25.5,24.0,25.0,13.5,18.5,6.5,5.5,5.0,6.082762530298219,6.0,25.0,23.0,26.0,138.13037319865606,137.17871555019022,132.1854757528224,127.1927670899568
205,12,205,0,6.840166666666675,13.0,58.008620049092706,8.0,12.041594578792296,15.0,17.0,12.041594578792296,45.044422518220834,33.015148038438355,26.5,25.0,26.0,13.5,19.5,6.5,5.5,5.0990195135927845,5.0,5.0,26.0,24.0,25.0,138.2316895650198,136.23509092741122,132.24220203853233,126.25371281669304
206,12,206,0,6.8735333333333415,12.041594578792296,57.0087712549569,8.0,13.0,16.0312195418814,17.0,11.045361017187261,44.04543109109048,31.064449134018133,25.0,24.0,25.0,13.5,19.5,6.5,4.5,5.0990195135927845,5.0990195135927845,5.0,26.0,24.0,25.019992006393608,138.2316895650198,136.23509092741122,132.24220203853233,127.3184982632139
207,12,207,0,6.906900000000008,10.0,58.008620049092706,9.0,12.041594578792296,16.0312195418814,17.029386365926403,11.045361017187261,42.04759208325728,30.01666203960727,25.0,23.0,24.0,12.5,18.5,5.5,3.5,4.123105625617661,6.0,5.5,26.0,24.0,25.0,138.2316895650198,137.2953021774598,133.30416347586447,127.39309243440164
208,12,208,0,6.940266666666675,9.0,60.00833275470999,8.0,12.041594578792296,16.0,17.029386365926403,12.0,41.012193308819754,29.0,24.5,23.0,24.0,11.5,17.5,4.5,3.5,3.1622776601683795,2.23606797749979,2.0,27.0,25.0,27.018512172212592,138.13037319865606,138.1774221788784,133.18408313308313,128.2497563350512
209,12,209,0,6.973633333333342,8.0,60.00833275470999,9.055385138137417,13.0,16.0,17.0,11.045361017187261,41.0,28.0,24.0,22.0,23.0,11.5,18.5,4.5,3.5,2.0,2.23606797749979,2.0,29.0,24.0,25.079872407968907,139.0898989862312,138.13037319865606,135.1332675546625,130.13838787997952
210,12,210,0,7.0070000000000086,7.0,59.033888572581766,9.055385138137417,13.0,16.0,17.0,11.045361017187261,40.0,27.0,23.5,21.0,23.0,11.0,18.0,5.0,3.0,2.23606797749979,2.0,2.0,31.0,26.0,26.076809620810597,139.0898989862312,137.09121051329294,134.09325113517085,130.09611831257686
211,12,211,0,7.040366666666675,8.06225774829855,60.00833275470999,8.0,13.0,15.033296378372908,18.027756377319946,11.0,40.01249804748511,27.018512172212592,23.0,21.0,22.0,10.5,18.5,4.5,2.5,1.0,2.23606797749979,2.0,29.0,26.0,27.018512172212592,138.0905500025255,137.13132391981054,134.13426109685773,129.1394595001853
212,12,212,0,7.073733333333342,7.0710678118654755,59.07622195096772,8.0,14.0,15.033296378372908,17.029386365926403,11.0,40.01249804748511,26.019223662515376,22.5,19.0,22.0,9.5,19.5,5.5,1.5,5.0,5.0990195135927845,5.0,28.0,25.0,27.018512172212592,138.0905500025255,136.13228860193308,133.18408313308313,129.18978287774928
213,12,213,0,7.107100000000009,6.0,58.034472514187634,8.0,13.0,16.0312195418814,17.029386365926403,11.045361017187261,38.01315561749642,25.019992006393608,22.0,18.0,20.0,8.0,19.0,5.0,0.0,5.0990195135927845,6.082762530298219,5.5,28.0,26.0,27.073972741361768,139.0898989862312,138.13037319865606,134.18271125595876,129.24782396620841
214,12,214,0,7.140466666666676,7.0,58.008620049092706,8.06225774829855,13.0,16.0312195418814,17.029386365926403,11.045361017187261,39.0,26.0,22.5,19.0,20.0,8.5,19.5,5.5,0.5,6.082762530298219,6.0,6.5,27.0,26.0,27.018512172212592,139.05754204644924,137.13132391981054,134.18271125595876,127.251719045363
215,12,215,0,7.173833333333342,7.0,59.00847396772772,8.0,12.041594578792296,15.033296378372908,17.029386365926403,11.0,38.01315561749642,26.0,22.5,18.0,19.0,7.5,19.5,6.5,0.5,7.0710678118654755,8.0,7.5,26.0,26.0,26.0,139.0898989862312,138.13037319865606,134.13426109685773,128.2497563350512
216,12,216,0,7.207200000000009,7.0,58.0,7.0,13.038404810405298,16.0,17.0,11.0,38.01315561749642,25.0,21.5,18.0,18.0,7.0,20.0,6.0,0.0,8.246211251235321,8.0,8.0,26.0,26.0,26.0,139.0898989862312,138.13037319865606,133.24038426843418,127.3184982632139
217,12,217,0,7.240566666666676,8.0,58.0,7.0,12.0,15.0,16.0312195418814,11.0,38.0,26.0,22.0,18.0,18.0,7.0,20.0,7.0,0.0,8.06225774829855,7.0,7.5,26.0,26.0,27.0,139.05754204644924,137.09121051329294,132.13629327327143,127.251719045363
218,12,218,0,7.273933333333343,8.06225774829855,57.0087712549569,7.0,13.038404810405298,15.0,16.0,12.0,40.0,27.018512172212592,23.0,18.0,19.0,6.5,21.5,7.5,0.5,8.246211251235321,7.0710678118654755,7.0,26.0,26.0,27.0,139.05754204644924,138.0905500025255,133.13526955694348,127.1927670899568
219,12,219,0,7.3073000000000095,9.055385138137417,58.008620049092706,7.0710678118654755,12.041594578792296,15.0,16.0312195418814,12.041594578792296,40.0,28.0178514522438,23.5,18.0,19.0,6.5,21.5,8.5,0.5,8.06225774829855,9.0,8.5,27.0,27.0,27.0,139.12943613772032,138.1774221788784,133.18408313308313,125.32358118087753
220,12,220,0,7.340666666666676,9.0,57.0087712549569,7.0,13.0,15.033296378372908,16.0312195418814,12.0,41.0,28.0,23.5,18.0,19.0,6.5,22.5,8.5,0.5,8.06225774829855,8.0,8.0,27.0,27.0,27.018512172212592,138.0905500025255,137.17871555019022,132.24220203853233,126.3210196285638
221,12,221,0,7.374033333333343,8.0,57.0350769263968,7.0710678118654755,13.0,15.033296378372908,16.0,12.0,40.01249804748511,27.018512172212592,23.0,18.0,20.0,7.0,21.0,7.0,0.0,8.246211251235321,8.0,8.0,26.0,26.0,27.0,138.0905500025255,136.1800279042415,132.30646242719968,124.4025723206719
222,12,222,0,7.40740000000001,8.0,57.0350769263968,7.0,13.038404810405298,15.033296378372908,16.0312195418814,12.0,40.01249804748511,27.0,23.0,18.0,20.0,7.0,21.0,7.0,0.0,7.280109889280518,8.06225774829855,8.0,27.0,26.0,27.0,138.05795884337854,136.13228860193308,132.1854757528224,125.32358118087753
223,12,223,0,7.440766666666676,9.0,56.00892785976178,7.0,12.041594578792296,14.035668847618199,16.0312195418814,12.0,40.01249804748511,28.0,23.5,19.0,20.0,7.5,20.5,7.5,0.5,8.06225774829855,8.06225774829855,8.5,27.0,26.0,27.0,138.05795884337854,136.13228860193308,132.24220203853233,124.25779653607253
224,12,224,0,7.474133333333343,9.0,56.0357029044876,7.0,12.041594578792296,14.035668847618199,16.0312195418814,12.0,40.01249804748511,28.0,23.5,18.0,20.0,7.0,21.0,8.0,0.0,7.0710678118654755,8.0,8.0,27.0,26.0,26.019223662515376,139.05754204644924,137.13132391981054,132.1854757528224,126.25371281669304
225,12,225,0,7.50750000000001,8.06225774829855,55.00909015790027,7.0710678118654755,12.041594578792296,15.0,16.0312195418814,13.0,40.01249804748511,28.0,24.0,19.0,20.0,6.5,20.5,7.5,0.5,7.0710678118654755,9.0,9.0,27.0,26.0,26.0,138.05795884337854,137.09121051329294,132.13629327327143,126.25371281669304
226,12,226,0,7.540866666666677,8.0,53.009433122794285,7.0,12.041594578792296,14.0,15.033296378372908,14.0,41.012193308819754,29.0,25.0,20.0,21.0,6.5,20.5,7.5,0.5,7.280109889280518,8.0,8.0,27.0,26.0,26.0,137.13132391981054,136.1800279042415,131.30879635424276,124.4025723206719
227,12,227,0,7.574233333333344,9.0,53.009433122794285,7.0,12.0,14.0,15.033296378372908,14.0,42.0,30.0,25.5,20.0,21.0,6.5,21.5,7.5,0.5,8.246211251235321,9.0,9.0,27.0,26.0,26.0,138.0905500025255,136.1800279042415,131.24404748406687,125.32358118087753
228,12,228,0,7.60760000000001,8.0,52.009614495783374,7.0,11.0,12.041594578792296,14.035668847618199,15.033296378372908,41.012193308819754,30.01666203960727,26.0,21.0,22.0,6.5,19.5,6.5,0.5,8.06225774829855,8.06225774829855,8.0,27.0,27.0,27.0,137.09121051329294,136.1800279042415,131.30879635424276,123.40583454602137
229,12,229,0,7.640966666666677,8.0,51.0098029794274,7.0710678118654755,12.0,13.038404810405298,14.035668847618199,16.0,43.01162633521314,31.016124838541646,27.0,22.0,23.0,6.5,20.5,7.5,0.5,8.06225774829855,9.0,9.0,28.0,27.0,26.0,137.05838172107534,136.1800279042415,132.24220203853233,124.32618388738553
230,12,230,0,7.674333333333344,8.0,50.0,6.0,11.0,12.0,14.035668847618199,16.0,41.0,30.0,26.0,22.0,22.0,6.0,19.0,7.0,0.0,8.246211251235321,8.0,8.0,27.0,27.0,26.0,137.09121051329294,136.1800279042415,131.24404748406687,123.3288287465668
231,12,231,0,7.707700000000011,5.0,50.00999900019995,6.0,10.04987562112089,12.0,13.038404810405298,18.0,39.01281840626232,29.0,26.5,21.0,22.0,3.5,17.5,5.5,1.5,7.280109889280518,8.0,8.0,27.0,27.0,27.0,137.09121051329294,136.1800279042415,132.24220203853233,124.32618388738553
232,12,232,0,7.741066666666677,2.0,49.01020301937138,6.0,9.0,12.041594578792296,13.038404810405298,18.027756377319946,35.014282800023196,26.019223662515376,25.0,21.0,22.0,3.5,13.5,2.5,2.5,8.06225774829855,8.0,8.5,27.0,27.0,25.019992006393608,137.09121051329294,135.18135966175217,132.24220203853233,124.4025723206719
233,12,233,0,7.774433333333344,1.0,50.00999900019995,6.082762530298219,9.055385138137417,12.041594578792296,13.038404810405298,17.0,33.06055050963308,24.020824298928627,23.5,20.0,21.0,3.5,12.5,2.5,2.5,8.06225774829855,8.0,8.0,27.0,26.0,25.019992006393608,137.03284277865654,137.09121051329294,132.13629327327143,125.25573839150046
234,12,234,0,7.807800000000011,0.0,50.039984012787215,6.082762530298219,9.0,13.038404810405298,13.038404810405298,18.0,33.015148038438355,24.020824298928627,24.0,20.0,22.0,3.0,12.0,2.0,2.0,7.280109889280518,8.0,8.0,27.0,26.0,25.019992006393608,138.03260484392808,136.0588108135596,133.13526955694348,126.19429464123962
235,12,235,0,7.841166666666678,1.0,53.03772242470448,6.0,10.04987562112089,14.035668847618199,15.033296378372908,17.0,34.0147027033899,24.0,23.5,20.0,22.0,4.0,13.0,2.0,2.0,8.06225774829855,8.0,8.0,26.0,26.0,25.019992006393608,138.03260484392808,136.09188072769072,131.18688958886096,125.25573839150046
236,12,236,0,7.874533333333344,5.0,51.0098029794274,7.0710678118654755,10.04987562112089,14.035668847618199,15.033296378372908,16.0,38.05259518088089,28.0178514522438,25.5,22.0,23.0,6.5,15.5,4.5,0.5,8.06225774829855,8.0,8.0,27.0,26.0,26.0,137.05838172107534,136.13228860193308,132.24220203853233,125.32358118087753
237,12,237,0,7.907900000000011,12.0,55.00909015790027,7.0710678118654755,12.0,15.033296378372908,16.0,15.0,46.010868281309364,34.0147027033899,28.0,23.0,24.0,8.5,22.5,10.5,1.5,8.246211251235321,8.0,8.0,27.0,26.0,26.0,136.13228860193308,135.2368293032634,131.30879635424276,124.4869471069156
238,12,238,0,7.941266666666678,14.0,55.00909015790027,7.0,12.041594578792296,15.0,17.0,16.0312195418814,49.040799340956916,37.013511046643494,30.0,25.0,26.0,9.5,23.5,10.5,2.5,7.0710678118654755,9.0,8.5,29.0,26.0,27.0,136.1800279042415,135.2368293032634,131.38112497615478,124.4025723206719
239,12,239,0,7.974633333333345,11.0,53.03772242470448,8.0,12.041594578792296,13.038404810405298,14.0,16.0312195418814,47.042533945356304,35.014282800023196,29.5,25.0,27.0,10.0,21.0,8.0,2.0,7.0710678118654755,8.06225774829855,8.0,29.0,26.0,26.019223662515376,135.2368293032634,135.36986370680884,131.38112497615478,124.4025723206719
240,12,240,0,8.008000000000012,6.0,51.03920062069938,8.0,10.04987562112089,14.035668847618199,14.035668847618199,16.0312195418814,40.049968789001575,30.01666203960727,27.0,24.0,26.0,9.0,15.0,4.0,1.0,7.0710678118654755,8.06225774829855,8.0,28.0,24.0,27.018512172212592,135.29966740535616,135.29966740535616,130.31116606031887,124.32618388738553
241,12,241,0,8.041366666666677,4.0,51.03920062069938,8.0,10.04987562112089,12.0,14.035668847618199,15.0,37.013511046643494,27.0,25.0,24.0,26.0,10.0,12.0,1.0,2.0,7.0710678118654755,8.06225774829855,8.0,28.0,23.0,26.076809620810597,136.2974687952788,134.30189872075525,131.24404748406687,125.25573839150046
242,12,242,0,8.074733333333343,4.0,51.03920062069938,8.0,10.04987562112089,13.038404810405298,14.035668847618199,15.033296378372908,37.05401462729781,27.018512172212592,25.0,24.0,26.0,10.0,12.0,2.0,1.0,7.0710678118654755,8.0,7.5,28.0,24.0,26.019223662515376,135.29966740535616,134.30189872075525,130.24592124131948,125.19584657647394
243,12,243,0,8.10810000000001,6.082762530298219,52.009614495783374,8.0,10.0,14.035668847618199,14.0,13.0,37.013511046643494,27.018512172212592,24.0,24.0,25.0,11.5,12.5,1.5,3.5,7.0710678118654755,7.0,7.0,27.0,23.0,27.073972741361768,138.1774221788784,137.17871555019022,133.13526955694348,126.19429464123962
244,12,244,0,8.141466666666675,7.0710678118654755,52.009614495783374,8.0,10.0,14.035668847618199,14.0,12.0,37.013511046643494,27.018512172212592,23.5,24.0,25.0,12.5,12.5,2.5,4.5,8.06225774829855,8.06225774829855,7.5,27.0,23.0,27.073972741361768,138.0905500025255,136.09188072769072,132.06059215375342,125.06398362438324
245,12,245,0,8.174833333333341,9.0,52.0,7.0,10.04987562112089,14.0,15.0,12.0,38.01315561749642,28.0,23.5,24.0,24.0,12.0,14.0,4.0,5.0,7.0710678118654755,8.06225774829855,7.5,27.0,24.0,27.018512172212592,138.03260484392808,136.03308421115798,131.01526628603247,125.01599897613104
246,12,246,0,8.208200000000007,10.04987562112089,52.009614495783374,7.0,11.0,13.0,14.0,12.041594578792296,40.0,29.0,24.0,25.0,24.0,12.5,15.5,4.5,5.5,7.0,8.0,7.5,26.0,26.0,27.018512172212592,137.00364958642524,135.0,131.0,125.00399993600205
247,12,247,0,8.241566666666673,13.0,51.15662224971465,7.0710678118654755,11.045361017187261,13.038404810405298,15.033296378372908,12.041594578792296,43.104524124504614,32.0624390837628,25.5,29.0,25.0,15.0,16.0,5.0,8.0,7.0,7.0710678118654755,6.5,24.0,29.0,27.073972741361768,137.17871555019022,136.13228860193308,131.13733259449805,126.09916732476864
248,12,248,0,8.274933333333339,14.035668847618199,52.3450093132096,6.0,10.04987562112089,13.152946437965905,15.033296378372908,13.341664064126334,43.289721643826724,33.24154027718932,26.0,29.0,23.0,13.0,17.0,7.0,8.0,6.0,6.082762530298219,6.5,21.0,30.0,27.16615541441225,138.52075656738234,137.3644786689776,131.18688958886096,125.06398362438324
249,12,249,0,8.308300000000004,11.045361017187261,51.478150704935004,7.0710678118654755,9.055385138137417,14.142135623730951,15.132745950421556,11.180339887498949,38.3275357934736,29.274562336608895,23.5,28.0,21.0,13.5,13.5,4.5,7.5,7.0710678118654755,7.0710678118654755,7.0,20.0,31.0,25.495097567963924,138.36184445142382,138.2931668593933,132.13629327327143,126.03570922560003
250,12,250,0,8.34166666666667,6.082762530298219,51.62363799656123,8.06225774829855,9.055385138137417,13.152946437965905,13.038404810405298,11.180339887498949,34.36568055487916,25.317977802344327,22.0,28.0,20.0,13.0,10.0,1.0,6.0,7.0710678118654755,7.0710678118654755,7.0,18.0,30.0,24.331050121192877,139.51702405083043,139.29106216839614,134.13426109685773,127.01574705523721
251,12,251,0,8.375033333333336,5.0990195135927845,51.478150704935004,8.06225774829855,10.04987562112089,13.038404810405298,13.152946437965905,11.045361017187261,34.23448553724738,24.186773244895647,21.5,27.0,20.0,12.5,10.5,1.5,5.5,7.0,6.082762530298219,6.5,19.0,30.0,24.331050121192877,138.52075656738234,138.2931668593933,135.1332675546625,129.0155029444136
252,12,252,0,8.408400000000002,7.0710678118654755,50.48762224545735,8.0,11.045361017187261,12.165525060596439,13.038404810405298,10.198039027185569,36.22154055254967,25.179356624028344,21.5,27.0,20.0,13.5,12.5,2.5,6.5,6.082762530298219,7.0710678118654755,7.0,19.0,30.0,24.331050121192877,138.43771162512041,139.2300254973761,134.05968819895114,129.0155029444136
253,12,253,0,8.441766666666668,7.0710678118654755,49.49747468305833,8.0,11.045361017187261,12.165525060596439,14.035668847618199,10.198039027185569,36.22154055254967,25.179356624028344,21.5,26.0,19.0,12.5,13.5,2.5,5.5,6.082762530298219,6.082762530298219,6.0,19.0,29.0,22.360679774997898,139.51702405083043,138.2316895650198,134.09325113517085,129.0155029444136
254,12,254,0,8.475133333333334,4.123105625617661,49.49747468305833,9.0,13.038404810405298,12.165525060596439,13.038404810405298,11.180339887498949,37.21558813185679,24.186773244895647,22.0,27.0,20.0,12.5,13.5,1.5,4.5,7.0710678118654755,6.082762530298219,6.0,19.0,29.0,24.331050121192877,138.43771162512041,138.2316895650198,134.05968819895114,127.00393694685216
255,12,255,0,8.5085,2.23606797749979,49.49747468305833,10.0,13.038404810405298,12.165525060596439,12.165525060596439,12.165525060596439,37.21558813185679,24.186773244895647,23.0,27.0,20.0,11.5,13.5,1.5,2.5,6.0,6.082762530298219,6.0,20.0,30.0,24.331050121192877,138.52075656738234,137.2953021774598,134.09325113517085,128.00390619039717
256,12,256,0,8.541866666666666,2.23606797749979,48.507731342539614,9.055385138137417,11.045361017187261,12.041594578792296,13.152946437965905,14.035668847618199,36.22154055254967,25.179356624028344,24.0,27.0,20.0,9.5,12.5,1.5,1.5,6.0,6.0,6.0,20.0,29.0,23.194827009486403,137.5245432641025,137.2953021774598,134.09325113517085,128.03515142334936
257,12,257,0,8.575233333333331,3.0,50.48762224545735,8.06225774829855,11.045361017187261,12.165525060596439,13.038404810405298,14.035668847618199,36.124783736376884,25.079872407968907,23.5,27.0,20.0,9.5,12.5,1.5,2.5,7.0710678118654755,7.0710678118654755,7.0,19.0,29.0,24.186773244895647,137.5245432641025,137.2953021774598,133.13526955694348,128.03515142334936
258,12,258,0,8.608599999999997,2.23606797749979,49.36598018878993,8.06225774829855,11.045361017187261,12.165525060596439,13.152946437965905,14.035668847618199,35.22782990761707,24.186773244895647,23.0,26.0,20.0,9.0,12.0,1.0,2.0,6.0,7.0,7.0,19.0,28.0,24.331050121192877,137.44089638822936,137.23337786413333,134.13426109685773,128.03515142334936
259,12,259,0,8.641966666666663,2.23606797749979,50.35871324805669,8.0,11.045361017187261,12.041594578792296,14.142135623730951,14.142135623730951,35.22782990761707,24.186773244895647,23.0,26.0,20.0,9.0,12.0,2.0,1.0,6.0,7.0710678118654755,7.0,20.0,29.0,24.186773244895647,137.2953021774598,138.1774221788784,133.06013678032951,129.0
260,12,260,0,8.67533333333333,3.1622776601683795,49.36598018878993,8.0,11.045361017187261,12.165525060596439,14.035668847618199,14.142135623730951,36.22154055254967,25.179356624028344,23.5,27.0,21.0,10.0,12.0,1.0,3.0,6.082762530298219,6.0,6.0,20.0,29.0,24.331050121192877,137.3644786689776,137.17871555019022,133.09395177843356,127.01574705523721
261,12,261,0,8.708699999999995,6.082762530298219,50.35871324805669,7.0,11.045361017187261,12.041594578792296,14.035668847618199,13.038404810405298,37.12142238654117,26.076809620810597,23.0,27.0,21.0,11.0,13.0,2.0,4.0,6.0,6.0,6.5,19.0,28.0,25.179356624028344,138.43771162512041,138.2316895650198,133.09395177843356,128.00390619039717
262,12,262,0,8.74206666666666,6.082762530298219,52.23983154643591,8.0,11.045361017187261,13.152946437965905,14.035668847618199,12.041594578792296,37.12142238654117,26.076809620810597,23.0,26.0,21.0,11.5,13.5,2.5,4.5,7.0,7.0,7.0,21.0,29.0,24.08318915758459,139.2300254973761,138.13037319865606,134.03357788255897,128.00390619039717
263,12,263,0,8.775433333333327,5.0990195135927845,53.23532661682466,8.0,11.045361017187261,13.038404810405298,14.035668847618199,12.165525060596439,36.22154055254967,25.179356624028344,22.5,26.0,21.0,11.5,12.5,1.5,4.5,6.0,6.0,6.0,21.0,29.0,24.186773244895647,139.35924798878617,138.1774221788784,134.05968819895114,129.00387591076478
264,12,264,0,8.808799999999993,7.0710678118654755,54.230987451824994,8.0,11.0,14.035668847618199,14.035668847618199,11.180339887498949,37.12142238654117,26.1725046566048,22.5,26.0,21.0,12.5,13.5,2.5,4.5,7.0,6.0,6.5,21.0,28.0,25.079872407968907,139.29106216839614,138.1774221788784,133.09395177843356,128.01562404644207
265,12,265,0,8.842166666666659,7.0710678118654755,54.230987451824994,9.0,11.0,14.142135623730951,14.035668847618199,11.180339887498949,38.118237105091836,27.16615541441225,23.5,26.0,21.0,12.5,14.5,3.5,4.5,6.0,6.082762530298219,6.0,22.0,29.0,25.179356624028344,139.2300254973761,138.0905500025255,134.03357788255897,128.0
266,12,266,0,8.875533333333324,8.0,54.147945482723536,8.06225774829855,12.041594578792296,14.035668847618199,15.0,11.180339887498949,39.20459156782532,27.16615541441225,23.0,25.0,21.0,12.0,16.0,4.0,4.0,6.0,7.0,6.5,22.0,28.0,25.179356624028344,139.12943613772032,138.05795884337854,134.01492454200763,128.00390619039717
267,12,267,0,8.90889999999999,8.0,55.14526271584895,8.0,12.041594578792296,14.035668847618199,15.033296378372908,11.180339887498949,39.11521443121589,27.073972741361768,23.0,25.0,21.0,12.0,16.0,4.0,5.0,6.0,7.0710678118654755,6.5,22.0,28.0,25.079872407968907,137.05838172107534,137.00364958642524,133.0,128.03515142334936
268,12,268,0,8.942266666666656,8.06225774829855,56.142675390472796,9.055385138137417,12.0,14.035668847618199,16.0312195418814,11.045361017187261,40.11234224026316,28.160255680657446,24.0,25.0,21.0,12.0,17.0,5.0,4.0,3.0,4.0,3.5,22.0,27.0,25.079872407968907,139.0323703315167,137.0,133.01503674397117,127.03542812932147
269,12,269,0,8.975633333333322,9.055385138137417,56.142675390472796,8.0,12.0,15.033296378372908,16.0,11.045361017187261,40.049968789001575,28.071337695236398,23.5,25.0,21.0,12.0,17.0,4.0,4.0,1.0,3.0,2.5,24.0,27.0,26.076809620810597,140.0142849854971,138.00362314084367,134.00373129133382,129.0348790056394
270,12,270,0,9.008999999999988,8.06225774829855,56.08029957123981,8.0,13.038404810405298,15.033296378372908,16.0312195418814,11.045361017187261,40.01249804748511,27.073972741361768,23.0,24.0,21.0,11.5,17.5,4.5,4.5,2.0,3.0,2.5,26.0,28.0,26.019223662515376,140.0,139.00359707575916,134.03357788255897,129.0620006043607
271,12,271,0,9.042366666666654,9.0,56.0357029044876,8.0,12.0,15.0,16.0,11.0,40.0,28.0,23.5,23.0,21.0,11.0,18.0,5.0,3.0,3.0,3.0,3.5,25.0,27.0,27.018512172212592,139.00359707575916,138.01449199268893,133.06013678032951,127.09838708654017
272,12,272,0,9.07573333333332,10.0,57.0350769263968,8.0,11.0,14.0,16.0,11.0,40.0,29.0,24.0,23.0,21.0,11.0,18.0,6.0,3.0,5.0990195135927845,5.0990195135927845,5.0,26.0,27.0,28.0178514522438,140.0142849854971,138.03260484392808,133.06013678032951,127.1416532848303
273,12,273,0,9.109099999999986,9.0,57.0087712549569,8.0,11.0,14.035668847618199,16.0,12.0,40.0,29.0,24.5,23.0,22.0,10.5,17.5,5.5,3.5,6.082762530298219,6.0,6.0,26.0,28.0,26.019223662515376,140.03213916812098,138.13037319865606,134.18271125595876,127.3184982632139
274,12,274,0,9.142466666666651,10.0,57.0087712549569,8.0,11.045361017187261,14.035668847618199,16.0,12.041594578792296,41.0,30.01666203960727,25.0,23.0,22.0,10.5,18.5,6.5,3.5,6.082762530298219,7.0,7.0,27.0,28.0,28.0178514522438,139.0323703315167,138.0905500025255,134.13426109685773,127.251719045363
275,12,275,0,9.175833333333316,11.045361017187261,56.0,7.0710678118654755,12.041594578792296,14.0,16.0312195418814,12.041594578792296,42.0,30.01666203960727,24.5,22.0,22.0,10.0,20.0,8.0,3.0,8.06225774829855,8.0,8.0,27.0,29.0,28.0178514522438,139.0323703315167,138.13037319865606,134.18271125595876,127.3184982632139
276,12,276,0,9.209199999999983,10.0,56.0,7.0,12.0,14.0,15.033296378372908,15.0,44.0,32.0,27.0,23.0,23.0,8.0,21.0,8.0,1.0,8.06225774829855,8.06225774829855,8.0,27.0,28.0,28.0178514522438,139.0323703315167,138.0905500025255,134.18271125595876,127.3184982632139
277,12,277,0,9.242566666666647,9.0,55.00909015790027,7.0,13.038404810405298,13.038404810405298,15.033296378372908,16.0,45.0111097397076,32.0,27.5,22.0,23.0,6.5,22.5,8.5,0.5,8.246211251235321,9.0,8.5,28.0,28.0,26.019223662515376,139.0323703315167,138.13037319865606,134.30189872075525,126.4792473095883
278,12,278,0,9.275933333333317,9.0,54.00925846556311,7.0,12.041594578792296,13.038404810405298,15.033296378372908,16.0312195418814,44.0,32.01562118716424,27.5,22.0,23.0,6.5,21.5,8.5,0.5,9.219544457292887,8.0,8.0,28.0,27.0,28.0,140.089257261219,139.2300254973761,134.45073447177595,126.57013865837392
279,12,279,0,9.30929999999998,6.0,53.0,7.0710678118654755,11.0,12.0,14.0,17.029386365926403,41.0,30.0,27.0,22.0,22.0,5.0,19.0,7.0,1.0,9.219544457292887,8.0,8.0,28.0,27.0,28.0,140.089257261219,139.2300254973761,135.36986370680884,128.56126943990557
280,12,280,0,9.342666666666648,3.0,54.0,7.0,10.04987562112089,13.0,14.0,16.0,36.013886210738214,26.0,24.5,21.0,21.0,5.0,15.0,4.0,1.0,8.06225774829855,8.0,8.0,27.0,27.0,27.0,141.0319112825179,140.089257261219,137.17871555019022,130.31116606031887
281,12,281,0,9.376033333333313,2.0,54.00925846556311,6.0,9.055385138137417,13.0,14.0,16.0,33.015148038438355,24.0,23.0,20.0,21.0,4.5,12.5,2.5,1.5,8.06225774829855,9.0,8.5,28.0,27.0,28.0,141.05672617780408,140.12851244482687,137.23337786413333,130.31116606031887
282,12,282,0,9.409399999999978,0.0,53.009433122794285,8.0,10.04987562112089,13.0,14.035668847618199,15.0,33.015148038438355,23.0,23.0,20.0,21.0,5.5,12.5,1.5,1.5,9.219544457292887,9.0,9.0,28.0,28.0,27.0,141.05672617780408,140.1748907615055,136.23509092741122,131.30879635424276
283,12,283,0,9.442766666666644,1.0,53.009433122794285,8.06225774829855,10.04987562112089,13.0,13.038404810405298,15.033296378372908,34.0147027033899,24.0,23.5,20.0,21.0,5.5,13.5,2.5,1.5,8.06225774829855,9.0,9.0,28.0,27.0,27.0,140.089257261219,139.12943613772032,136.23509092741122,130.31116606031887
284,12,284,0,9.47613333333331,2.23606797749979,53.009433122794285,7.0,11.0,13.038404810405298,14.035668847618199,16.0,36.013886210738214,25.019992006393608,24.0,20.0,21.0,4.5,15.5,3.5,2.5,8.246211251235321,8.0,8.0,28.0,27.0,26.0,140.05713120009278,139.17614738165446,135.29966740535616,130.38404810405297
285,12,285,0,9.509499999999976,4.123105625617661,53.009433122794285,6.0,11.045361017187261,14.0,15.0,17.0,38.05259518088089,27.018512172212592,25.0,21.0,22.0,4.5,16.5,4.5,1.5,8.246211251235321,8.0,8.0,28.0,28.0,27.0,140.12851244482687,140.22838514366484,136.2974687952788,130.38404810405297
286,12,286,0,9.542866666666642,6.082762530298219,53.009433122794285,6.0,10.04987562112089,13.038404810405298,15.033296378372908,16.0,38.05259518088089,28.0178514522438,25.0,21.0,22.0,5.5,16.5,5.5,0.5,8.06225774829855,8.0,8.0,26.0,26.0,28.0,142.08800090085018,141.1736519326464,137.23337786413333,131.38112497615478
287,12,287,0,9.576233333333308,9.0,56.0357029044876,6.082762530298219,10.04987562112089,14.035668847618199,16.0312195418814,15.033296378372908,40.01249804748511,30.0,25.5,21.0,23.0,7.0,18.0,6.0,1.0,8.06225774829855,8.0,8.0,26.0,26.0,27.0,142.08800090085018,141.2267680009707,137.3644786689776,131.54847015454038
288,12,288,0,9.609599999999974,12.0,60.07495318350236,5.0,10.04987562112089,16.0,17.029386365926403,13.0,40.01249804748511,30.0,24.0,19.0,22.0,7.5,19.5,7.5,2.5,7.280109889280518,8.0,8.0,27.0,26.0,27.018512172212592,143.1258187749506,142.28492541376264,138.43771162512041,133.63382805263043
289,12,289,0,9.64296666666664,12.0,62.03224967708329,6.082762530298219,12.0,16.0312195418814,18.027756377319946,12.041594578792296,42.0,30.0,24.0,19.0,21.0,8.0,22.0,9.0,2.0,7.280109889280518,8.0,8.0,27.0,25.0,28.0178514522438,144.08677940741129,144.2809758769326,140.4314779527724,134.6291201783626
290,12,290,0,9.676333333333304,12.0,65.06919393998976,7.0710678118654755,12.041594578792296,17.029386365926403,18.027756377319946,11.045361017187261,42.01190307520001,30.0,24.0,19.0,22.0,9.5,21.5,8.5,2.5,7.280109889280518,8.0,7.5,28.0,25.0,27.018512172212592,145.2205219657332,145.41664278891878,140.60227594174995,135.83077707206124
291,12,291,0,9.709699999999971,13.0,66.12110101926616,6.082762530298219,12.041594578792296,17.029386365926403,19.026297590440446,11.045361017187261,42.01190307520001,30.0,23.5,18.0,22.0,9.0,22.0,9.0,3.0,7.280109889280518,7.0,7.0,28.0,24.0,27.073972741361768,146.27713423498562,146.4137971640651,143.50261321662404,137.6154061142865
292,12,292,0,9.743066666666635,13.0,67.11929677819934,6.082762530298219,13.152946437965905,18.027756377319946,19.1049731745428,11.0,43.104524124504614,30.01666203960727,23.5,17.0,21.0,8.0,24.0,10.0,2.0,7.280109889280518,7.0,7.0,29.0,24.0,28.071337695236398,146.34206503941374,146.4923206178399,143.58969322343438,139.60659010233005
293,12,293,0,9.776433333333305,13.038404810405298,69.1158447825099,6.0,12.041594578792296,18.027756377319946,20.024984394500787,11.045361017187261,42.1070065428546,30.066592756745816,23.5,16.0,20.0,7.0,24.0,11.0,1.0,7.280109889280518,7.0,7.0,30.0,24.0,29.068883707497267,147.41099009232656,146.4923206178399,144.49913494550754,140.51334456200237
294,12,294,0,9.809799999999967,12.041594578792296,70.178344238091,6.0,13.038404810405298,19.026297590440446,21.095023109728988,11.045361017187261,42.1070065428546,29.068883707497267,23.0,15.0,20.0,6.5,24.5,10.5,0.5,6.324555320336759,7.0710678118654755,6.5,29.0,23.0,29.154759474226502,147.33974345029924,146.34206503941374,144.34680460612904,140.4314779527724
295,12,295,0,9.843166666666637,13.038404810405298,71.11258679024411,6.0,12.041594578792296,19.026297590440446,21.095023109728988,11.045361017187261,42.1070065428546,30.066592756745816,23.5,15.0,19.0,6.0,25.0,11.0,0.0,6.324555320336759,6.0,6.0,29.0,23.0,29.068883707497267,147.27525250360293,146.34206503941374,144.2809758769326,140.28898745090436
296,12,296,0,9.8765333333333,13.038404810405298,72.06247289678588,7.0,12.041594578792296,19.026297590440446,21.02379604162864,11.045361017187261,43.104524124504614,31.064449134018133,24.5,17.0,20.0,7.5,24.5,11.5,0.5,6.324555320336759,6.0,6.0,29.0,24.0,27.073972741361768,148.16544806398016,148.16544806398016,145.1240848377691,142.12670403551894
297,12,297,0,9.909899999999968,14.035668847618199,73.02739212103907,7.0710678118654755,12.0,20.024984394500787,21.02379604162864,12.041594578792296,45.09988913511872,33.13608305156178,26.0,19.0,21.0,8.0,25.0,13.0,2.0,7.0710678118654755,7.0,7.0,28.0,24.0,28.0178514522438,148.05404418657398,148.05404418657398,146.05478424207814,143.0314650697531
298,12,298,0,9.943266666666633,15.033296378372908,73.0,7.0,13.038404810405298,20.0,22.0,12.0,47.042533945356304,34.0147027033899,26.5,21.0,21.0,9.0,26.0,12.0,3.0,6.082762530298219,6.0,6.0,28.0,25.0,28.071337695236398,149.01342221424215,149.00335566691106,146.00342461736986,143.0034964607509
299,12,299,0,9.976633333333298,17.029386365926403,73.00684899377592,7.0,13.0,19.0,21.02379604162864,12.0,49.01020301937138,36.013886210738214,27.5,23.0,22.0,10.5,26.5,13.5,4.5,6.082762530298219,5.0,5.0,27.0,25.0,28.0178514522438,148.0135128966271,149.01342221424215,147.0136048126159,143.0314650697531
300,12,300,0,10.009999999999964,19.0,74.02702209328699,7.0,13.0,20.0,21.02379604162864,12.041594578792296,51.0098029794274,38.01315561749642,28.5,24.0,22.0,11.0,28.0,14.0,5.0,5.0990195135927845,6.0,5.5,27.0,27.0,29.0,149.03019828209315,150.05332385522155,149.08386901338454,143.1258187749506
301,12,301,0,10.04336666666663,20.0,73.02739212103907,7.0,12.0,19.026297590440446,21.02379604162864,12.041594578792296,51.0098029794274,39.01281840626232,29.0,25.0,23.0,12.0,27.0,14.0,6.0,5.0,6.0,5.5,26.0,26.0,29.0,150.11995203836165,150.08331019803634,147.12239802287073,144.1700384962146
302,12,302,0,10.076733333333296,19.0,73.06161783043132,8.0,12.0,20.0,22.02271554554524,12.041594578792296,51.0098029794274,39.01281840626232,29.5,26.0,23.0,12.5,26.5,13.5,5.5,5.0,5.0,5.0,26.0,26.0,28.0,150.08331019803634,149.12075643584967,147.16657229140046,143.17122615944868
303,12,303,0,10.110099999999962,20.024984394500787,73.06161783043132,7.0,11.0,20.024984394500787,21.02379604162864,12.0,50.00999900019995,39.01281840626232,29.0,26.0,23.0,12.5,25.5,14.5,6.5,5.0,6.0,5.5,25.0,26.0,28.0178514522438,151.11915828246265,150.11995203836165,148.16544806398016,142.1724305201258
304,12,304,0,10.143466666666628,18.0,72.06247289678588,6.0,12.0,20.0,22.02271554554524,13.0,49.0,37.0,28.0,25.0,22.0,10.5,25.5,13.5,5.5,5.0,4.0,4.0,25.0,26.0,29.017236257093817,150.11995203836165,150.16324450410627,147.2175261305528,143.17122615944868
305,12,305,0,10.176833333333294,19.026297590440446,71.06335201775947,6.0,11.045361017187261,19.026297590440446,21.02379604162864,12.041594578792296,48.010415536631214,37.0,27.5,24.0,21.0,10.5,25.5,14.5,5.5,2.0,2.23606797749979,2.0,26.0,27.0,28.0,148.08443537387717,148.08443537387717,146.08559134972896,142.0563268566381
306,12,306,0,10.21019999999996,18.0,71.06335201775947,7.0,12.0,19.0,21.02379604162864,11.0,48.0,36.0,27.0,23.0,20.0,10.5,26.5,14.5,4.5,2.0,2.0,2.0,26.0,27.0,27.0,147.03060905811415,147.08500943332058,145.08618128546908,141.088624630053
307,12,307,0,10.243566666666624,18.0,71.06335201775947,6.0,12.041594578792296,19.0,21.0,12.0,48.010415536631214,36.0,27.0,23.0,20.0,9.5,26.5,14.5,3.5,1.0,1.0,1.0,25.0,26.0,28.0,147.03060905811415,147.03060905811415,145.03103116229988,141.0319112825179
308,12,308,0,10.276933333333291,18.0,71.02816342831905,6.0,11.0,18.027756377319946,20.024984394500787,12.0,47.0,36.0,27.0,22.0,20.0,9.0,26.0,15.0,4.0,2.0,3.0,3.0,26.0,27.0,27.0,147.0136048126159,147.03060905811415,144.03124660989366,140.0142849854971
309,12,309,0,10.310299999999955,17.0,70.06425622241343,6.0,11.0,19.026297590440446,21.02379604162864,12.0,46.0,35.0,26.5,22.0,19.0,8.5,25.5,14.5,3.5,4.123105625617661,4.0,4.0,25.0,26.0,27.0,146.01369798755184,145.01379244747721,143.0314650697531,138.01449199268893
310,12,310,0,10.343666666666625,17.0,69.02897942168927,6.0,11.0,19.026297590440446,21.02379604162864,11.0,45.0,34.0,25.5,21.0,19.0,9.0,25.0,14.0,4.0,5.0,5.0,5.0,25.0,25.0,27.0,146.03081866510234,145.03103116229988,142.03168660548954,138.01449199268893
311,12,311,0,10.377033333333287,17.0,70.06425622241343,6.0,11.0,19.026297590440446,21.02379604162864,11.045361017187261,45.0111097397076,34.0147027033899,25.5,20.0,17.0,7.5,26.5,14.5,2.5,5.0,5.0,4.5,25.0,26.0,26.0,144.00347218036097,144.00347218036097,141.00354605470034,137.00364958642524
312,12,312,0,10.410399999999957,16.0,68.06614430096654,6.0,11.0,18.0,20.024984394500787,12.0,45.0,34.0,26.0,21.0,18.0,7.5,25.5,13.5,2.5,5.0990195135927845,6.0,5.5,25.0,25.0,26.0,143.0034964607509,143.0034964607509,139.00359707575916,135.0
313,12,313,0,10.44376666666662,15.0,67.06713054842886,6.0,12.0,18.027756377319946,19.026297590440446,11.0,44.0,32.0,24.5,20.0,17.0,7.5,25.5,13.5,2.5,5.0,6.0,6.0,25.0,25.0,27.0,143.01398533010678,142.01408380861386,139.01438774457844,135.0148140020198
314,12,314,0,10.477133333333288,14.0,65.03076195155643,6.0,12.0,17.029386365926403,18.027756377319946,11.0,43.0,31.0,24.0,20.0,18.0,8.0,24.0,12.0,3.0,5.0,5.0,5.0,25.0,25.0,27.018512172212592,143.0034964607509,143.0034964607509,139.00359707575916,135.00370365289984
315,12,315,0,10.510499999999952,13.0,63.0317380372777,6.0,12.0,16.0312195418814,18.027756377319946,11.0,42.0,30.0,23.5,20.0,18.0,8.0,23.0,11.0,3.0,5.0,6.0,5.5,25.0,26.0,25.0,142.01408380861386,142.01408380861386,138.01449199268893,134.01492454200763
316,12,316,0,10.543866666666618,11.045361017187261,62.03224967708329,6.082762530298219,13.038404810405298,17.0,18.027756377319946,12.041594578792296,42.0,29.017236257093817,23.5,21.0,19.0,8.0,22.0,9.0,2.0,6.0,6.0,5.5,25.0,26.0,26.0,142.00352108310554,141.00354605470034,138.01449199268893,133.0
317,12,317,0,10.577233333333284,10.0,61.07372593840988,7.0,12.0,15.0,17.0,12.0,41.0,29.0,24.0,21.0,18.0,7.5,21.5,8.5,1.5,6.0,6.0,5.5,25.0,26.0,27.018512172212592,143.01398533010678,142.00352108310554,138.01449199268893,134.00373129133382
318,12,318,0,10.61059999999995,8.0,60.03332407921454,7.0,12.0,15.0,17.0,12.0,39.0,27.0,23.0,20.0,18.0,7.0,20.0,7.0,1.0,5.0,6.0,6.0,25.0,25.0,26.0,143.0034964607509,142.00352108310554,138.00362314084367,134.00373129133382
319,12,319,0,10.643966666666616,6.082762530298219,59.033888572581766,6.0,12.0,15.0,17.029386365926403,14.0,38.01315561749642,26.019223662515376,23.0,20.0,18.0,5.0,19.0,7.0,1.0,6.082762530298219,6.082762530298219,6.0,25.0,26.0,25.0,143.0314650697531,142.03168660548954,138.01449199268893,134.00373129133382
320,12,320,0,10.677333333333282,3.0,58.034472514187634,7.0,11.0,15.033296378372908,17.029386365926403,15.0,36.0,25.0,23.5,20.0,18.0,4.0,17.0,6.0,2.0,6.0,5.0,5.0,25.0,26.0,25.0,141.00354605470034,141.0,138.00362314084367,133.0
321,12,321,0,10.710699999999948,2.23606797749979,59.00847396772772,7.0710678118654755,10.0,15.033296378372908,16.0,15.033296378372908,34.0147027033899,24.020824298928627,23.0,19.0,18.0,3.5,15.5,4.5,2.5,6.0,7.0,7.0,24.0,25.0,25.019992006393608,142.00352108310554,141.01418368376991,138.00362314084367,134.00373129133382
322,12,322,0,10.744066666666614,0.0,58.008620049092706,7.0,11.0,15.033296378372908,16.0,15.0,33.0,22.0,22.0,19.0,18.0,3.5,14.5,3.5,2.5,6.082762530298219,6.082762530298219,6.0,24.0,25.0,24.020824298928627,141.00354605470034,140.00357138301865,138.00362314084367,134.00373129133382
323,12,323,0,10.77743333333328,0.0,57.0087712549569,7.0,10.0,14.0,16.0,15.0,32.0,22.0,22.0,19.0,18.0,3.5,13.5,2.5,2.5,6.0,6.0,6.0,25.0,25.0,25.0,142.00352108310554,140.0,137.0,133.01503674397117
324,12,324,0,10.810799999999944,1.0,58.008620049092706,7.0,10.0,14.0,15.0,15.0,32.01562118716424,22.02271554554524,22.0,19.0,18.0,3.5,13.5,2.5,2.5,6.082762530298219,6.0,6.0,25.0,25.0,25.0,141.00354605470034,141.00354605470034,138.0,134.00373129133382
325,12,325,0,10.844166666666611,1.4142135623730951,57.0087712549569,7.0,11.0,14.0,15.0,15.033296378372908,32.0,21.0,21.5,19.0,18.0,3.5,13.5,2.5,2.5,6.0,6.0,6.0,25.0,25.0,25.0,141.00354605470034,140.0,137.0,134.0
326,12,326,0,10.877533333333275,0.0,58.008620049092706,7.0,10.0,14.0,16.0,15.0,32.0,22.0,22.0,19.0,18.0,3.5,13.5,2.5,2.5,6.082762530298219,6.0,5.5,26.0,25.0,24.020824298928627,141.00354605470034,141.00354605470034,138.00362314084367,134.01492454200763
327,12,327,0,10.910899999999945,1.0,59.0,7.0,10.0,15.033296378372908,16.0,15.033296378372908,33.015148038438355,23.021728866442675,22.5,19.0,19.0,4.0,14.0,3.0,2.0,5.0990195135927845,5.0,5.0,25.0,25.0,25.019992006393608,141.0,140.00357138301865,137.00364958642524,132.015150645674
328,12,328,0,10.944266666666609,0.0,58.008620049092706,8.0,12.0,15.0,16.0312195418814,15.0,35.0,23.0,23.0,20.0,19.0,4.5,15.5,3.5,2.5,2.0,3.1622776601683795,2.5,26.0,26.0,25.0,141.00354605470034,140.00357138301865,137.00364958642524,133.00375934536586
329,12,329,0,10.977633333333277,5.0,57.0087712549569,6.0,11.0,14.0,16.0,15.0,37.0,26.0,23.5,21.0,20.0,5.5,16.5,5.5,0.5,1.0,2.23606797749979,2.0,26.0,26.0,24.020824298928627,141.0,140.0,136.0,131.00381673829202
330,12,330,0,11.01099999999994,8.0,58.008620049092706,7.0710678118654755,11.0,15.033296378372908,17.029386365926403,13.038404810405298,39.0,28.0,24.0,21.0,20.0,7.5,18.5,6.5,1.5,3.0,3.0,2.5,26.0,26.0,25.0,141.00354605470034,140.00357138301865,136.0036764208968,131.0
331,12,331,0,11.044366666666606,10.0,58.008620049092706,7.0,11.0,16.0312195418814,16.0312195418814,13.038404810405298,41.012193308819754,30.01666203960727,25.0,21.0,20.0,7.5,20.5,9.5,1.5,3.0,3.0,3.0,25.0,26.0,25.0,142.00352108310554,140.00357138301865,136.01470508735443,131.01526628603247
332,12,332,0,11.077733333333272,12.0,58.008620049092706,6.0,11.0,15.0,17.0,14.0,43.0,32.0,26.0,22.0,21.0,7.5,21.5,9.5,1.5,4.0,4.0,4.0,25.0,25.0,25.0,142.0,140.0,136.0,131.00381673829202
333,12,333,0,11.111099999999938,12.0,58.034472514187634,7.0,12.0,16.0,17.029386365926403,13.0,44.0,32.0,26.0,23.0,21.0,9.0,22.0,10.0,3.0,4.0,4.0,3.5,25.0,26.0,25.0,141.0,139.00359707575916,136.0036764208968,130.034610777285
334,12,334,0,11.144466666666604,13.0,57.0087712549569,6.0,12.0,15.0,17.029386365926403,13.0,44.0,32.0,25.5,22.0,21.0,8.5,22.5,10.5,2.5,4.0,4.0,4.0,26.0,26.0,25.0,140.00357138301865,139.0,135.0,130.00384609695206
335,12,335,0,11.17783333333327,14.035668847618199,57.0087712549569,7.0,12.0,16.0312195418814,17.0,13.038404810405298,46.0,34.0,27.0,23.0,22.0,9.5,23.5,10.5,3.5,4.0,5.0,4.5,25.0,25.0,25.0,140.0,140.00357138301865,135.00370365289984,130.01538370516005
336,12,336,0,11.211199999999936,14.0,57.0350769263968,7.0,12.041594578792296,16.0312195418814,17.029386365926403,13.038404810405298,46.0,34.0147027033899,27.0,24.0,22.0,10.0,23.0,11.0,4.0,4.0,5.0,4.0,24.0,24.0,24.020824298928627,141.00354605470034,139.01438774457844,135.0148140020198,129.0348790056394
337,12,337,0,11.244566666666602,15.0,58.034472514187634,7.0,12.0,16.0312195418814,17.029386365926403,13.038404810405298,47.01063709417264,35.014282800023196,27.5,24.0,22.0,10.0,24.0,12.0,4.0,4.0,5.0,4.0,25.0,25.0,25.0,140.0,139.00359707575916,134.01492454200763,129.0155029444136
338,12,338,0,11.277933333333268,15.0,58.008620049092706,7.0,12.0,16.0,18.027756377319946,13.0,47.0,35.0,27.5,24.0,23.0,10.5,23.5,11.5,3.5,4.0,5.0990195135927845,4.0,24.0,24.0,25.0,140.00357138301865,139.0,135.00370365289984,128.01562404644207
339,12,339,0,11.311299999999934,15.033296378372908,57.0350769263968,7.0710678118654755,13.0,15.0,17.029386365926403,13.038404810405298,48.010415536631214,35.014282800023196,27.5,25.0,23.0,11.0,24.0,11.0,4.0,5.0,5.0990195135927845,5.0,24.0,24.0,25.019992006393608,141.00354605470034,139.0,135.00370365289984,129.0155029444136
340,12,340,0,11.3446666666666,15.0,57.0350769263968,7.0,14.035668847618199,15.0,17.029386365926403,12.041594578792296,48.0,34.0147027033899,26.5,24.0,22.0,11.0,25.0,11.0,4.0,4.0,5.0,4.5,24.0,24.0,25.0,141.00354605470034,139.00359707575916,135.00370365289984,129.0348790056394
341,12,341,0,11.378033333333263,14.0,57.0350769263968,8.0,14.0,16.0,17.029386365926403,12.0,48.0,34.0,27.0,24.0,22.0,11.0,25.0,11.0,4.0,4.123105625617661,4.0,4.0,24.0,24.0,25.0,142.0,140.00357138301865,135.0148140020198,129.0348790056394
342,12,342,0,11.411399999999931,17.0,58.008620049092706,6.0,13.0,16.0,18.0,13.0,49.0,36.0,27.5,24.0,23.0,10.5,25.5,12.5,4.5,5.0,4.0,4.0,24.0,24.0,25.019992006393608,141.00354605470034,139.00359707575916,135.0148140020198,129.0348790056394
343,12,343,0,11.444766666666595,17.0,58.008620049092706,7.0,12.0,15.033296378372908,18.0,13.0,49.0,37.0,28.5,24.0,23.0,10.5,25.5,12.5,4.5,5.0990195135927845,5.0,4.5,25.0,25.0,26.019223662515376,141.00354605470034,138.03260484392808,135.05924625881784,128.06248474865697
344,12,344,0,11.478133333333265,16.0,60.00833275470999,7.0,13.0,16.0,18.0,13.0,49.0,36.0,28.0,24.0,23.0,10.5,25.5,12.5,3.5,5.0990195135927845,5.0,4.5,25.0,24.0,25.019992006393608,141.00354605470034,139.01438774457844,134.03357788255897,129.0968628588627
345,12,345,0,11.511499999999929,17.029386365926403,59.00847396772772,6.0,11.045361017187261,17.0,18.027756377319946,13.0,47.0,36.013886210738214,27.5,23.0,22.0,9.5,24.5,12.5,3.5,5.0,5.0990195135927845,4.5,25.0,24.0,26.019223662515376,142.03168660548954,139.05754204644924,135.05924625881784,128.09761902549164
346,12,346,0,11.544866666666596,16.0,59.00847396772772,7.0,11.0,16.0,18.0,13.0,47.0,36.0,28.0,23.0,22.0,9.5,24.5,12.5,3.5,5.0,5.0,5.0,25.0,24.0,26.0,141.0319112825179,138.03260484392808,134.09325113517085,127.09838708654017
347,12,347,0,11.57823333333326,14.0,57.0,7.0,12.041594578792296,16.0,17.0,13.038404810405298,46.0,34.0147027033899,27.0,23.0,23.0,10.0,23.0,11.0,3.0,5.0,5.0990195135927845,4.5,25.0,24.0,25.0,141.0319112825179,140.05713120009278,135.09256086106296,128.09761902549164
348,12,348,0,11.611599999999926,12.041594578792296,58.0,7.0710678118654755,11.045361017187261,15.0,17.0,14.035668847618199,44.0,33.015148038438355,27.0,22.0,22.0,8.0,22.0,10.0,2.0,5.0,5.0,4.5,25.0,24.0,24.0,140.0,139.01438774457844,135.03332921912278,128.06248474865697
349,12,349,0,11.644966666666592,8.0,54.00925846556311,7.0,11.0,14.035668847618199,15.0,16.0,42.0,31.0,27.0,23.0,22.0,6.5,19.5,7.5,0.5,5.0,5.0,4.5,25.0,24.0,25.0,141.00354605470034,139.01438774457844,135.03332921912278,128.06248474865697
350,12,350,0,11.678333333333258,3.0,53.0,7.0,11.0,14.0,14.0,16.0312195418814,37.013511046643494,26.019223662515376,24.5,22.0,22.0,6.0,15.0,4.0,1.0,5.0990195135927845,6.0,5.0,25.0,24.0,23.021728866442675,141.01418368376991,139.0323703315167,135.03332921912278,129.0620006043607
351,12,351,0,11.711699999999924,2.0,52.009614495783374,6.0,10.0,14.0,15.033296378372908,17.029386365926403,35.014282800023196,25.019992006393608,24.0,22.0,21.0,4.5,13.5,2.5,1.5,5.0,6.082762530298219,5.5,26.0,25.0,23.021728866442675,141.01418368376991,139.0323703315167,135.05924625881784,129.0620006043607
352,12,352,0,11.74506666666659,0.0,52.009614495783374,8.06225774829855,11.0,13.0,15.0,16.0312195418814,35.0,24.0,24.0,22.0,21.0,5.5,13.5,2.5,1.5,5.0,5.0990195135927845,5.0,25.0,25.0,23.021728866442675,141.01418368376991,140.03213916812098,135.03332921912278,130.09611831257686
353,12,353,0,11.778433333333256,4.123105625617661,52.03844732503075,7.0710678118654755,12.041594578792296,15.033296378372908,15.0,15.033296378372908,38.0,26.019223662515376,24.0,23.0,21.0,7.0,16.0,4.0,1.0,5.0990195135927845,5.0,4.5,26.0,26.0,25.0,141.00354605470034,140.03213916812098,135.03332921912278,129.0620006043607
354,12,354,0,11.811799999999922,4.0,51.0098029794274,7.0,12.0,14.0,15.0,16.0,39.0,27.0,25.0,24.0,23.0,7.5,15.5,3.5,1.5,4.0,6.0,5.0,25.0,26.0,24.0,140.0142849854971,139.0323703315167,135.03332921912278,129.0620006043607
355,12,355,0,11.845166666666588,3.1622776601683795,52.009614495783374,7.0710678118654755,11.0,13.0,15.033296378372908,16.0312195418814,37.013511046643494,26.019223662515376,24.5,23.0,22.0,6.5,14.5,2.5,0.5,5.0990195135927845,5.0,5.0,26.0,27.0,25.0,141.00354605470034,139.01438774457844,134.03357788255897,129.0620006043607
356,12,356,0,11.878533333333252,1.4142135623730951,50.00999900019995,7.0710678118654755,11.045361017187261,13.0,14.0,17.029386365926403,36.0,25.019992006393608,24.5,23.0,22.0,5.5,13.5,1.5,0.5,5.0990195135927845,6.0,5.5,26.0,27.0,23.0,140.0142849854971,139.01438774457844,134.03357788255897,129.0348790056394
357,12,357,0,11.91189999999992,1.0,52.03844732503075,7.0,11.0,14.0,14.0,17.029386365926403,36.013886210738214,25.019992006393608,24.5,24.0,22.0,6.0,13.0,1.0,1.0,6.082762530298219,5.0,5.0,27.0,27.0,23.0,140.0142849854971,138.03260484392808,134.05968819895114,128.06248474865697
358,12,358,0,11.945266666666583,1.0,50.0,7.0,11.045361017187261,13.0,15.0,16.0312195418814,35.0,24.020824298928627,23.5,23.0,23.0,7.0,12.0,0.0,0.0,6.082762530298219,6.082762530298219,5.5,27.0,28.0,24.0,140.00357138301865,140.00357138301865,135.0148140020198,129.0348790056394
359,12,359,0,11.978633333333253,2.0,48.010415536631214,7.0,11.0,13.0,14.035668847618199,16.1245154965971,36.05551275463989,25.079872407968907,24.0,24.0,23.0,7.5,12.5,0.5,1.5,6.0,5.0,5.0,26.0,27.0,24.0,141.0,139.00359707575916,134.01492454200763,128.01562404644207
360,12,360,0,12.011999999999915,2.0,48.010415536631214,8.0,11.045361017187261,13.0,14.0,15.033296378372908,36.05551275463989,25.019992006393608,24.0,24.0,23.0,8.5,12.5,1.5,1.5,6.0,5.0990195135927845,5.0,27.0,28.0,23.021728866442675,140.0,140.0,135.0,129.00387591076478
361,12,361,0,12.045366666666585,6.0,49.040799340956916,6.0,11.0,12.0,14.035668847618199,14.035668847618199,37.013511046643494,26.019223662515376,23.0,25.0,23.0,10.0,13.0,2.0,4.0,6.0,6.0,5.5,27.0,28.0,23.0,141.0,139.01438774457844,134.00373129133382,129.0155029444136
362,12,362,0,12.078733333333249,8.06225774829855,51.0098029794274,7.0710678118654755,11.045361017187261,13.0,15.0,12.041594578792296,38.0,27.018512172212592,23.0,24.0,23.0,11.5,14.5,3.5,4.5,4.0,6.082762530298219,5.0,28.0,29.0,25.0,141.0,139.00359707575916,135.0148140020198,128.06248474865697
363,12,363,0,12.112099999999916,7.0710678118654755,54.00925846556311,8.06225774829855,12.0,15.033296378372908,16.0,12.041594578792296,39.01281840626232,27.018512172212592,23.5,24.0,23.0,11.5,15.5,3.5,4.5,5.0,5.0,5.0,27.0,28.0,26.0,141.00354605470034,140.00357138301865,135.0,130.00384609695206
364,12,364,0,12.14546666666658,7.0710678118654755,56.0357029044876,8.0,13.0,15.0,16.0,12.0,40.01249804748511,27.018512172212592,23.5,25.0,23.0,12.0,16.0,3.0,4.0,5.0,5.0,4.5,27.0,28.0,26.0,141.0,140.0,135.00370365289984,131.00381673829202
365,12,365,0,12.178833333333246,8.0,56.0357029044876,8.0,13.0,15.0,17.029386365926403,12.041594578792296,41.012193308819754,28.0178514522438,24.0,25.0,23.0,12.0,17.0,4.0,4.0,5.0,5.0990195135927845,5.0,27.0,28.0,27.0,141.00354605470034,140.00357138301865,135.00370365289984,129.00387591076478
366,12,366,0,12.212199999999912,11.0,58.034472514187634,8.0,13.0,15.0,17.029386365926403,12.0,44.0,31.0,25.5,25.0,23.0,12.0,20.0,7.0,4.0,5.0,6.082762530298219,5.5,27.0,28.0,27.0,141.00354605470034,140.00357138301865,135.00370365289984,129.0155029444136
367,12,367,0,12.245566666666578,11.045361017187261,58.034472514187634,8.06225774829855,13.0,15.0,17.0,12.041594578792296,44.01136216933077,31.016124838541646,25.5,25.0,23.0,12.0,20.0,7.0,4.0,5.0,5.0990195135927845,5.0,27.0,28.0,26.0,140.00357138301865,140.03213916812098,135.05924625881784,130.06152390311286
368,12,368,0,12.278933333333244,8.06225774829855,57.0350769263968,8.06225774829855,14.035668847618199,15.0,17.029386365926403,13.038404810405298,43.0,29.017236257093817,25.0,26.0,24.0,12.0,18.0,4.0,4.0,5.0990195135927845,6.0,5.0,27.0,28.0,27.0,141.01418368376991,140.0142849854971,135.0148140020198,130.034610777285
369,12,369,0,12.31229999999991,7.0710678118654755,56.08029957123981,8.06225774829855,13.0,15.033296378372908,17.029386365926403,13.038404810405298,41.012193308819754,28.0178514522438,24.5,25.0,22.0,10.5,17.5,4.5,3.5,4.0,4.0,3.5,28.0,28.0,27.0,141.01418368376991,140.03213916812098,135.0148140020198,130.034610777285
370,12,370,0,12.345666666666576,8.0,53.03772242470448,7.0710678118654755,12.0,14.0,15.033296378372908,13.038404810405298,40.0,28.0,24.0,24.0,22.0,10.0,17.0,5.0,3.0,2.0,2.23606797749979,2.0,29.0,29.0,27.0,142.00352108310554,140.03213916812098,136.0588108135596,131.06105447462264
371,12,371,0,12.379033333333242,4.0,52.03844732503075,8.0,13.0,14.0,15.0,13.0,38.0,25.0,23.0,24.0,22.0,10.0,15.0,2.0,2.0,2.0,3.0,3.0,27.0,27.0,26.019223662515376,141.0,140.00357138301865,136.01470508735443,131.01526628603247
372,12,372,0,12.412399999999908,3.0,52.03844732503075,8.0,13.0,14.0,15.033296378372908,14.0,38.0,25.0,23.5,24.0,22.0,9.0,15.0,2.0,2.0,3.1622776601683795,4.123105625617661,3.5,28.0,28.0,26.019223662515376,141.0,140.00357138301865,135.0148140020198,130.034610777285
373,12,373,0,12.445766666666572,5.0,53.08483775994799,7.0,12.0,14.0,15.033296378372908,14.0,38.0,26.0,23.5,24.0,21.0,8.5,15.5,3.5,1.5,2.0,3.1622776601683795,2.5,29.0,28.0,27.018512172212592,140.00357138301865,140.0142849854971,135.0148140020198,130.034610777285
374,12,374,0,12.47913333333324,3.0,52.03844732503075,7.0,12.0,13.0,15.0,15.0,37.0,25.0,23.5,24.0,22.0,8.0,14.0,2.0,1.0,3.1622776601683795,4.123105625617661,3.5,28.0,27.0,27.0,140.0142849854971,139.0323703315167,135.05924625881784,130.06152390311286
375,12,375,0,12.512499999999903,4.0,52.009614495783374,7.0,11.0,13.0,15.0,15.0,37.0,26.0,24.0,23.0,22.0,7.5,14.5,2.5,0.5,5.0,5.0,5.0,27.0,27.0,28.0,139.01438774457844,139.05754204644924,135.09256086106296,129.0968628588627
376,12,376,0,12.545866666666573,2.0,51.03920062069938,7.0,12.0,12.0,14.0,16.0,37.0,25.0,24.0,24.0,22.0,7.0,14.0,2.0,1.0,6.082762530298219,6.0,6.0,27.0,27.0,27.0,141.00354605470034,139.01438774457844,136.01470508735443,131.01526628603247
377,12,377,0,12.579233333333235,3.0,50.00999900019995,7.0710678118654755,12.0,13.0,14.035668847618199,16.0312195418814,38.0,26.0,24.5,24.0,23.0,7.5,14.5,1.5,0.5,6.082762530298219,7.0,7.0,28.0,28.0,27.0,140.03213916812098,139.05754204644924,134.05968819895114,129.0968628588627
378,12,378,0,12.612599999999905,3.1622776601683795,51.0098029794274,7.0,12.0,13.0,14.0,16.0,38.01315561749642,26.019223662515376,24.5,24.0,23.0,7.5,14.5,1.5,0.5,7.0710678118654755,8.0,8.0,27.0,27.0,27.0,140.0142849854971,138.05795884337854,134.09325113517085,127.1416532848303
379,12,379,0,12.645966666666569,3.0,51.0,7.0,12.0,12.0,13.0,16.0,38.0,26.0,24.5,23.0,23.0,7.0,15.0,2.0,0.0,7.0710678118654755,7.0,7.0,28.0,28.0,26.0,139.0323703315167,138.0905500025255,134.13426109685773,128.14054783713078
380,12,380,0,12.679333333333236,1.0,50.0,7.0,11.045361017187261,12.0,13.038404810405298,18.0,37.013511046643494,26.0,25.5,23.0,23.0,5.0,14.0,3.0,1.0,8.06225774829855,8.0,8.0,28.0,27.0,27.018512172212592,139.05754204644924,139.12943613772032,134.13426109685773,128.191263352851
381,12,381,0,12.7126999999999,2.0,50.0,7.0,11.045361017187261,13.0,14.0,17.0,37.013511046643494,26.0,25.0,23.0,23.0,6.0,14.0,2.0,1.0,8.06225774829855,8.0,8.0,28.0,27.0,26.019223662515376,138.05795884337854,138.13037319865606,133.13526955694348,128.191263352851
382,12,382,0,12.746066666666566,2.0,50.0,7.0710678118654755,10.0,13.038404810405298,14.035668847618199,16.0,35.014282800023196,25.019992006393608,24.0,22.0,22.0,6.0,13.0,2.0,1.0,8.06225774829855,8.0,8.5,29.0,28.0,25.0,138.05795884337854,137.13132391981054,134.23859355639868,128.2497563350512
383,12,383,0,12.779433333333232,2.0,50.0,7.0,11.045361017187261,12.041594578792296,13.038404810405298,16.0312195418814,36.05551275463989,25.019992006393608,24.0,22.0,22.0,6.0,14.0,2.0,1.0,8.06225774829855,9.0,8.5,29.0,28.0,25.0,139.17614738165446,138.2316895650198,134.30189872075525,129.31357237351384
384,12,384,0,12.812799999999898,7.0710678118654755,50.00999900019995,5.0,10.0,13.0,14.0,15.033296378372908,37.05401462729781,27.073972741361768,23.5,22.0,23.0,7.5,14.5,3.5,2.5,8.06225774829855,8.0,8.0,29.0,27.0,26.0,139.17614738165446,137.17871555019022,133.24038426843418,127.3184982632139
385,12,385,0,12.846166666666564,9.055385138137417,51.03920062069938,5.0,12.0,13.0,15.0,14.035668847618199,40.049968789001575,28.071337695236398,23.5,22.0,24.0,9.0,17.0,5.0,4.0,8.06225774829855,9.0,9.0,30.0,27.0,27.018512172212592,140.1748907615055,138.2931668593933,134.45073447177595,127.47548783981962
