,video_id,frame_seq,gap,time_seconds,m1,m3,m4,m5,m6,m7,m8,m9,m10,m11,m12,m13,m14,m15,m16,m17,e1,e2,e3,b1,b2,b3,label_measures
0,57,218,1,7.273933333333343,21.181372554387963,159.6526197421648,16.74534531011094,32.21031482852909,42.69242124905261,47.95137155858848,32.21031482852909,101.85795900924812,69.64936467261579,58.248774524566215,68.8394608017602,52.95343138596945,29.12438726228356,39.71507353947664,7.943014707895145,13.238357846492818,21.181372554387963,16.74534531011094,18.533700985089126,47.65808824737224,63.54411766316298,52.95343138596917,{}
1,57,219,0,7.3073000000000095,15.949044456578122,159.844474845055,16.811768995356417,27.10816296908341,42.86176908266803,47.84713336973402,32.338083338177526,91.7743983213515,64.67616667635548,55.82165559802297,63.79617782631203,53.16348152192677,26.581740760963385,31.898088913156244,5.316348152192859,10.632696304385265,21.26539260877053,15.949044456578122,18.607218532674324,42.53078521754105,53.16348152192632,58.479829674119344,{}
2,57,220,0,7.340666666666676,17.08022826928709,159.51709947310096,17.08022826928709,29.030805747238137,45.90173423558955,51.2406848078615,36.008282857695804,98.28348506224528,69.26331501690709,59.7807989425055,62.627503654052816,56.93409423095727,25.620342403930408,37.00716125012241,2.8467047115477726,14.233523557739318,17.08022826928709,17.08022826928709,17.08022826928709,45.547275384765726,56.93409423095727,56.93409423095716,{}
3,57,221,0,7.374033333333343,5.699763999032712,159.69514103774728,17.09929199709859,34.670310884858935,45.95296646467522,51.29787599129497,36.04847272474672,92.78543558036226,58.1264157078838,54.14775799081144,56.997639990328025,51.297875991295314,19.94917399661472,37.04846599371285,2.849881999516583,8.549645998549295,17.099291997098135,17.099291997098135,17.099291997098135,45.59811199226215,51.29787599129486,51.61355820773207,{}
4,57,222,0,7.40740000000001,11.90718797146019,160.8572515718583,17.860781957190284,29.76796992865001,41.675157900110094,47.62875188584019,32.061084807920885,90.0942252780103,60.71498381849232,53.5823458715704,59.53593985730049,53.5823458715704,26.7911729357852,32.74476692151529,2.9767969928652747,8.930390978594914,17.860781957190284,17.860781957190284,20.83757895005556,47.62875188583985,53.58234587156994,47.99940924167554,{}
5,57,223,0,7.440766666666676,12.086578036702576,157.2416886257031,18.12986705505364,24.91711894879716,48.34631214680962,48.34631214680962,32.5441073409671,86.52673079841537,61.62969726170749,54.38960116516091,60.43289018351197,54.38960116516091,27.194800582580683,27.19480058258023,3.0216445091755304,9.064933527527046,18.12986705505364,18.12986705505364,18.12986705505364,42.303023128458335,48.3463121468094,48.34631214680974,{}
6,57,224,0,7.474133333333343,12.6412123503992,151.82617039719517,12.6412123503992,25.282424700798856,50.5648494015976,44.24424322639789,39.9750234131129,89.38686975386547,64.45778845015656,56.88545557679754,63.20606175199691,56.88545557679754,22.122121613198487,28.44272778839877,3.160303087599459,9.480909262799289,19.98751170655625,18.96181852559903,18.96181852559903,44.24424322639789,50.56484940159771,56.8854555767972,{}
7,57,225,0,7.50750000000001,6.430735193624969,154.47156019899828,19.292205580874,32.79044423904065,39.116635078051054,45.47216463427082,32.7904442390411,90.94432926854172,58.2327838996474,54.66124914581087,64.30735193624832,57.87661674262336,28.93830837131145,28.93830837131145,3.2153675968124844,16.076837984061967,19.29220558087445,19.29220558087445,19.29220558087445,45.01514635537387,51.44588154899839,51.44588154899839,{}
8,57,226,0,7.540866666666677,6.633581268066791,152.71650936694232,19.90074380419992,33.82476033087476,40.35049957908348,46.43506887646595,35.72292839005895,94.97842960487937,61.15859741200568,56.385440778566135,66.3358126806661,59.70223141259976,29.85111570629988,29.851115706299424,3.3167906340331683,16.58395317016675,14.833138649666196,13.267162536133128,13.267162536133128,46.435068876466175,46.435068876466175,46.435068876466175,{}
9,57,227,0,7.574233333333344,6.744873473156986,148.5404298900255,20.234620419470048,27.80982576125196,41.02746363412031,47.214114312097536,30.16399117122723,83.42947728375587,55.61965152250392,50.58655104867557,60.7038612584106,53.95898778525407,30.35193062920507,23.607057156048995,3.372436736578038,16.862183682891555,20.234620419470502,13.489746946313517,16.86218368289201,47.214114312097536,53.95898778525407,47.69345771114408,{}
10,57,228,0,7.60760000000001,0.0,158.034549561542,21.728222852749305,34.35533686120516,48.58578332901208,41.22640423344569,28.33013653648477,83.59014231004424,50.022125526564096,48.09747160568668,54.96853897792789,54.96853897792789,27.484269488963943,27.484269488963943,6.871067372241214,13.742134744481971,20.61320211672273,20.61320211672273,20.61320211672273,41.22640423344592,48.09747160568668,48.097471605686906,{}
11,57,229,0,7.640966666666677,7.124704998791003,142.67210641621088,21.37411499637301,28.498819995164013,42.74822999274579,42.74822999274579,25.68848919569505,79.65662348464572,51.86863531990422,46.31058249214084,56.99763999032757,49.87293499153657,32.06117249455974,24.936467495768284,3.562352499395729,10.687057498186732,21.37411499637301,21.37411499637301,21.37411499637301,49.87293499153657,49.87293499153657,49.8729349915368,{}
12,57,230,0,7.674333333333344,7.362101738322963,133.3333333333336,23.281009858985566,29.44840695329276,36.810508691615496,44.17261042993846,23.28100985898644,82.31079972079944,53.59690967105529,47.85366129910017,66.25891564490848,51.53471216826165,36.81050869161572,22.08630521496889,7.362101738323872,14.724203476646837,14.72420347664638,14.724203476645926,18.405254345807407,44.17261042993823,51.53471216826165,44.7819165981152,{}
13,57,231,0,7.707700000000011,7.513807567653203,150.46387928554205,22.54142270296052,30.98022225200129,38.31305140884616,45.08284540592081,33.602768982250936,92.94066675600216,61.96044450400087,56.35355675740084,60.11046054122744,52.59665297357424,26.29832648678712,33.81213405444123,3.756903783826601,11.270711351479804,15.02761513530686,15.02761513530686,15.02761513530686,37.56903783826738,45.08284540592104,45.08284540592081,{}
14,57,232,0,7.741066666666677,7.641607199008831,108.06864539165976,15.283214398017662,30.56642879603441,38.208035995043474,31.507153630992843,46.48208194138712,92.96416388277429,63.01430726198651,61.13285759206974,91.69928638810416,76.4160719900874,38.20803599504325,7.641607199008831,22.924821597025584,22.924821597025584,22.924821597026494,15.283214398017208,15.283214398017208,38.2080359950437,45.84964319405208,45.84964319405231,{}
15,57,311,1,10.377033333333287,30.60490595826113,179.4852952450787,8.762159086766482,17.524318173533,41.93038742529484,47.42910660713381,36.44468371668513,92.9367316213185,75.6291588853427,59.57301686008441,38.79173190889219,66.50011184381515,16.625027960953787,38.79173190889219,19.39586595444609,5.541675986984615,16.854349524341654,17.524318173532947,15.239608964207662,66.50011184381515,19.39586595444609,48.39060520168176,{}
16,57,325,1,10.844166666666611,14.588737773537147,132.72482995678,17.403312000798998,23.06681977565539,29.177475547074184,31.987923639620217,37.63172233825424,91.59947337156598,68.90409625495553,61.51336767684654,68.66608484857284,51.49956363642957,22.88869494952428,31.47195555559574,11.444347474762026,8.58326060607169,25.90824350966036,25.90824350966036,28.61086868690529,40.05521616166743,65.80499797988222,71.7556936148738,{}
17,57,326,0,10.877533333333275,6.499469908602517,135.2452078160075,17.680469656854115,23.2532104533592,29.64214346383961,33.14092389197324,40.79679519591543,87.24796993929334,64.01235491687868,61.039677440067976,72.66628266674752,52.31972352005823,21.7998848000243,24.706536106694216,4.359976960004815,7.266628266674729,26.15986176002912,26.32084704416633,26.15986176002912,34.8798156800388,61.03967744006792,84.74271972140718,{}
18,57,366,1,12.212199999999912,20.4175845604234,143.56980604899354,14.030642960434433,27.435304887302667,37.586598761471485,40.97671259247082,34.19903088599578,95.82740026716176,68.39806177199146,57.84982292120003,44.238099880917616,30.626376840635203,3.402930760070604,57.84982292120003,27.223446080564827,6.805861520141207,3.402930760070376,9.624941665416545,5.104396140105791,40.83516912084701,68.05861520141161,61.62969726170711,{}
19,57,367,0,12.245566666666578,14.228547426992236,136.33629019929506,14.666450985149831,28.678554185075377,35.74878297762324,39.28986077032531,39.76999908479277,97.09094113324052,68.42289359947513,60.47132656471672,49.79991599447271,32.014231710732474,1.7785684283742285,55.13562127959472,23.12138956886224,8.892842141870005,7.114273713496232,10.061102372060452,5.335705285122003,42.68564228097671,67.58560027821318,64.91165636210954,{}
20,57,368,0,12.278933333333244,18.82563407194945,137.4003457086337,11.675162627938697,29.765941032115048,37.10424727881045,40.61211655288025,41.277933328357165,101.3791420762538,71.68587883299352,60.91817482932083,47.9961377443135,33.22809536144791,0.0,59.07216953146258,25.84407417001489,7.384021191432794,5.22129145688762,8.255586665671204,7.384021191432794,40.61211655288048,66.45619072289537,70.53576339128944,{}
21,57,369,0,12.31229999999991,15.326626740589973,134.9809499687589,15.798325233967075,30.89180379865005,34.69712700112875,38.50767310856856,39.07538441391058,100.79515029683756,69.92117314014547,61.30650696235966,49.81153690691736,34.48491016632738,3.831656685147436,57.47485027721223,26.82159679603251,7.6633133702951,5.41878085049288,8.567844814431481,7.6633133702951,42.148223536622254,68.96982033265454,65.58739768568925,{}
22,57,370,0,12.345666666666576,11.734854037149944,133.91223027217293,15.64647204953326,31.536472628721267,35.42120761540604,35.20456211145029,39.89083314972709,98.49202491077212,66.95611513608647,60.63007919194138,50.85103416098309,35.20456211144983,3.911618012383314,54.76265217336618,19.558090061916573,7.823236024766629,8.746643777701909,8.746643777701502,7.823236024766629,39.11618012383292,66.49750621051612,63.0729452574431,{}
23,57,371,0,12.379033333333242,16.138579840981947,130.11339036949147,12.75866762449553,28.52924811069738,36.53526401066826,36.53526401066824,41.14546676542136,98.16714874895202,69.64877074765859,60.51967440368276,48.41573952294607,32.27715968196412,0.0,56.48502944343727,24.207869761473148,8.069289920490974,5.705849622139585,9.02174039618554,8.069289920490974,40.346449602455095,68.5889643241735,65.05669518474576,{}
24,57,372,0,12.412399999999908,13.288376549822408,131.34671272981532,12.606460891022834,33.61722904272756,33.87884566575716,38.05211953235958,42.85372672044648,101.63653699727126,68.40610506556911,60.9312276399437,50.42584356409134,33.61722904272756,0.0,58.830150824773,25.21292178204544,8.40430726068189,8.40430726068189,9.39630116933906,4.202153630340945,37.8193826730685,67.23445808545512,67.75769133151432,{}
25,57,373,0,12.445766666666572,27.091418459143824,148.78097935056692,12.11565065630764,27.627934274816287,39.44570068781027,39.44570068781027,37.92798584280126,103.51616458445103,76.04923562095856,62.31026245603061,27.091418459143824,54.18283691828765,2.7091418459144734,62.31026245603061,29.800560305058298,8.127425537742965,15.32522056353892,17.1341174751249,13.545709229571912,75.85597168560275,37.92798584280149,65.91626603836417,{}
26,57,374,0,12.47913333333324,8.978002784864884,135.34171697095016,17.956005569729314,31.74203325344753,35.91201113945863,36.19148625826052,41.386547906379526,99.67200618087767,67.93091764276727,62.8460194940526,49.37901531675561,35.91201113945863,2.244500696216164,56.11251740540433,24.68950765837804,11.22250348108082,6.348406650689507,12.696813301379017,8.978002784864657,40.40101253189096,67.33502088648493,67.93091764276704,{}
27,57,375,0,12.512499999999903,13.77219446414665,129.2761724647019,13.77219446414665,27.92432948216392,37.01166050987995,37.01166050987995,42.32445304556114,97.38412097417933,69.47037333524455,61.97487508865993,45.90731488048891,32.13512041634226,2.295365744024366,57.38414360061097,25.249023184268708,11.476828720122056,10.265187673726135,6.492274731611897,4.590731488048732,36.72585190439099,68.86097232073325,64.43398693458737,{}
28,57,376,0,12.545866666666573,14.091341769030803,142.16046339420285,14.091341769030578,28.57142857142844,37.86934312042992,37.57691138408245,38.73339368026062,94.99325026098502,66.42722213932524,58.71392403762752,46.971139230101926,28.18268353806116,0.0,56.36536707612254,28.182683538061383,9.394227846020383,10.503066029911402,10.503066029911606,9.39422784602084,42.27402530709196,70.45670884515312,65.92713556290832,{}
29,57,377,0,12.579233333333235,10.902785336014178,133.0854555704646,14.627621493249537,29.65878264217444,34.47763450168884,39.00699064866603,40.20748564548227,94.67234494546972,65.05227067337673,58.51048597299837,48.758738310832086,29.255242986499297,2.273736754432321e-13,53.634612141914886,24.379369155415816,9.75174766216628,9.751747662166508,6.895526900337517,4.875873831083027,39.00699064866558,68.26223363516488,68.95526900337951,{}
30,57,378,0,12.612599999999905,14.988294965053,141.3110001095104,11.171615469559018,25.475202834096866,35.32775002737761,34.972688251790714,46.06175058977551,97.00668230517134,71.53324178441228,62.45122902105504,49.96098321684394,29.976589930106456,4.996098321684258,54.9570815385282,24.98049160842197,9.992196643368745,4.996098321684485,7.06555000547614,7.494147482526614,39.96878657347497,69.94537650358143,65.14115239070767,{}
31,57,379,0,12.645966666666569,15.17529113587898,132.39179263971056,10.11686075725288,30.7692307692309,30.76923076923045,40.78236951430887,41.71288550181918,97.30085108210388,66.53326383025211,58.17194935420321,45.52587340763739,30.350582271758185,2.529215189313163,58.17194935420344,27.821367082445025,7.587645567939717,7.153700845773421,5.058430378626326,5.058430378626326,35.40901265038451,65.7595949221427,66.53326383025257,{}
32,57,380,0,12.679333333333236,20.79500979640148,141.23011699331695,11.62476387438171,26.50854018430104,36.39126714370286,41.913682214245945,36.76073110469028,94.86832980505127,68.37891250726108,57.18627694010411,41.59001959280272,25.993762245501784,2.5993762245502694,59.78565316465438,28.59313847005205,12.99688112275112,7.352146220938326,7.352146220938165,5.198752449100084,41.59001959280295,67.58378183830473,67.78343894045696,{}
33,57,381,0,12.7126999999999,10.693314340835968,134.62538764037043,16.039971511253498,32.52244589856829,32.522445898568776,37.42660019292544,38.9242517409519,97.5673376957048,65.04489179713651,58.81322887459669,48.11991453376095,32.07994302250722,2.6733285852087647,56.13990028938815,24.0599572668807,8.019985755626976,10.69331434083574,7.561315083764631,8.019985755626749,42.77325736334319,69.50654321543266,69.71188057036446,{}
34,57,382,0,12.746066666666566,11.005469701975017,133.8873174630119,17.401175489107775,28.05855238331239,33.471829365752974,38.91021128204813,38.91021128204813,94.99193160685392,66.94365873150595,60.53008336086259,49.52461365888757,27.51367425493754,0.0,55.02734850987508,22.01093940395004,11.005469701975017,12.304489188965244,7.782042256409626,5.502734850987508,38.51914395691256,66.0328182118501,66.26170215018261,{}
35,57,383,0,12.779433333333232,11.290024290336987,135.9498952889552,11.290024290336987,28.784027082682325,33.87007287101096,39.51508501617991,41.09630874314978,91.89413997400176,63.11315445204331,56.450121451684936,45.16009716134795,33.87007287101096,0.0,50.80510930651644,22.58004858067397,11.290024290336987,11.290024290336987,7.983252735457802,5.645012145168494,39.515085016179455,62.09513359685343,67.9749476444776,{}
36,57,384,0,12.812799999999898,11.47432578551161,138.76345795611152,17.21148867826696,29.253905542821386,34.89779947427138,40.567867862393626,40.56786786239369,98.2044100384382,69.08458958705526,63.10879182031249,51.634466034801335,34.42297735653392,2.8685814463779025,54.50304748117878,20.080070124644863,8.605744339133707,5.737162892755805,8.113573572478918,5.737162892755578,40.160140249289725,63.10879182031249,63.10879182031204,{}
37,57,385,0,12.846166666666564,13.013378122566218,140.1583717751535,17.459278859379992,29.0987980989662,41.15191492031418,40.738317338552406,35.40021575062104,93.8408041758267,65.06689061283065,58.19759619793285,40.73831733855286,29.09879809896665,0.0,58.19759619793285,23.279038479173323,11.639519239586662,5.819759619793331,8.230382984063015,5.819759619793103,40.73831733855286,69.83711543751906,70.07918588757677,{}
38,57,386,0,12.87953333333323,13.20340559751173,130.44002503352831,17.71422747032284,29.52371245053837,41.75283455915406,41.3331974307539,35.91714636988694,95.2111117851562,66.01702798756037,59.04742490107628,47.23793992086121,35.428454940646134,5.90474249010731,53.14268241096897,17.71422747032284,5.904742490107765,5.904742490107765,8.350566911830438,5.904742490107765,41.33319743075344,70.85690988129159,71.10251515804434,{}
39,57,387,0,12.912899999999896,12.164574740315402,128.30599263348807,19.23388147337413,31.013701987712523,36.99710971370047,36.493724220946206,36.99710971370084,99.01246491271932,68.00204009180477,60.82287370157656,48.65829896126115,36.49372422094575,6.082287370157701,54.74058633141885,18.246862110473103,6.082287370157701,6.082287370157246,8.601653289127285,6.082287370157701,42.57601159110345,66.90516107173426,67.18105981366894,{}
40,57,388,0,12.946266666666562,12.54140353605635,119.8015890637396,14.021715419939726,31.974430679097424,38.14318975323755,38.14318975323748,38.1431897532374,95.92329203729165,63.94886135819422,56.43631591225494,50.165614144226765,37.62421060816996,6.27070176802863,50.16561414422631,18.812105304084525,4.547473508864641e-13,6.270701768028175,8.868111485943034,6.27070176802863,43.894912376198135,68.97771944831175,68.97771944831129,{}
41,57,389,0,12.979633333333227,12.73859510596958,116.22877349884806,14.24218229739706,32.477172510548215,32.477172510548215,38.74292449961602,38.74292449961647,97.4315175316451,64.95434502109688,57.32367797686357,57.32367797686357,38.2157853179092,9.553946329477183,47.769731647385925,15.923243882461977,3.184648776492395,6.36929755298479,9.007546982220855,6.36929755298479,38.21578531790874,63.692975529848354,63.6929755298479,{}
42,57,396,1,13.213199999999889,7.34966364574635,165.16314852693452,13.147478018918036,26.499589132151765,49.41248342163443,49.41248342163443,53.50635899028297,97.33796418028788,70.95376094163248,67.38082484695508,46.01617306621324,62.45052058986085,1.643434752364726,41.08586880911895,11.50404326655331,11.50404326655331,13.552110145621414,13.147478018918092,13.147478018918063,46.016173066213256,29.581825542565667,56.26214326124098,{}
43,57,397,0,13.246566666666554,3.547610795763376,177.94725222175106,14.62717402951348,28.601752626089844,49.7930903295682,56.87252751602942,57.20350525217975,100.90442888097992,72.35734669691709,70.95221591526513,53.21416193644888,67.40460511950187,3.547610795763262,39.02371875339583,7.095221591526524,10.642832387289786,11.218530366414369,14.19044318305302,14.19044318305302,42.57132954915906,24.83327557034277,50.79405657588559,{}
44,57,398,0,13.27993333333322,3.8318324935712553,180.74717722775267,15.799050110667196,27.0951474057504,49.813822416423136,49.9609832168436,57.98614764978082,101.45314741992756,74.40072901230623,72.80481737784964,49.81382241642348,65.14115239070759,0.0,42.15015742928142,11.495497480713084,11.495497480713084,11.495497480713084,12.11731829192703,11.495497480713084,49.81382241642348,30.65465994856828,54.19029481150064,{}
45,57,399,0,13.313299999999886,5.573593558105402,162.35333677071822,12.462934074879142,27.58788060359882,47.4574390738095,47.457439073809496,55.73593558105596,99.78133553366308,72.67076905924799,68.96970150899722,47.29350960616944,63.05801280822595,1.1368683772161605e-13,43.35238380565545,11.82337740154253,11.82337740154253,12.462934074878945,15.764503202056517,13.793940301799466,47.29350960616949,27.58788060359888,55.31633662282056,{}
46,57,400,0,13.346666666666552,5.8470534620468735,178.215273645902,12.403473458920873,25.149127867157333,49.78586625371144,53.74838498865665,54.380740683305866,96.52066781907028,71.37238327264333,68.21910402406468,49.61389383568337,62.01736729460424,2.067245576486812,39.27766595324931,10.33622788243406,10.33622788243406,9.245003270420504,12.403473458920814,12.403473458920814,45.47940268270981,24.806946917841685,53.90716933750898,{}
47,57,401,0,13.380033333333218,4.374263186665075,175.46194199249638,13.832634754888058,26.60760420950958,52.6731038747578,52.673103874757786,53.21520841901916,97.81149836858091,71.20784565584509,67.80107939330958,48.11689505331651,61.23968461331185,2.1871315933326514,41.55550027331867,10.935657966662802,10.935657966662802,8.748526373330265,13.122789559995454,13.12278955999534,43.74263186665138,21.87131593332572,57.53444939977249,{}
48,57,402,0,13.413399999999884,6.394886135819404,172.78030890055146,13.565602054661326,27.131204109322653,49.94565736974391,49.94565736974391,55.01089058602018,100.40174889965118,73.61066737530426,70.08894394908339,49.740540867091454,67.82801027330652,4.5218673515537375,40.69680616398398,4.521867351553851,9.043734703107589,10.111202783311198,9.043734703107589,9.043734703107589,40.696806163983865,22.6093367577688,55.01089058602029,{}
49,57,403,0,13.44676666666655,6.857422757661844,175.63571946362828,14.546790400216535,24.72478937028285,53.55818387058213,58.38885080735888,58.98978105502591,103.65828674766988,78.93486372473016,75.15841706778554,53.33823146746067,72.73395200108268,4.848930133405588,38.791441067244136,4.848930133405474,9.697860266810949,9.697860266811064,10.842537396441967,9.697860266811064,43.64037120064973,19.395720533622125,54.2126869822095,{}
50,57,404,0,13.480133333333216,5.037527684341512,176.95996581259973,15.112583053022265,25.18763842170381,50.37527684340694,50.62652666557711,56.32127170361513,96.89877972959644,72.12641998569194,70.5253875807706,50.37527684340762,65.48785989642988,2.518763842170415,37.78145763255566,7.5562915265111315,7.5562915265111315,15.930061258670865,15.112583053022265,12.593819210851962,45.3377491590669,30.22516610604453,55.64131190761913,{}
51,57,405,0,13.51349999999988,7.4023321019761825,173.4421857012353,15.70271767770646,26.17119612951069,52.342392259020926,52.342392259020926,53.37897590337553,100.68260178089284,74.94290063884887,70.66222954967884,52.34239225902138,68.04510993672784,7.85135883885323,39.25679419426592,7.85135883885323,7.85135883885323,10.468478451804344,15.702717677706346,13.085598064755343,47.10815303311927,20.93695690360857,57.81406190041176,{}
52,57,406,0,13.546866666666547,5.454432760818008,175.30719995133936,12.196482431890816,22.48920240068117,49.39198935928053,54.54432760817872,55.62451816598016,95.25757296087484,72.7712095551974,68.1804095102234,43.63546208654293,59.99876036899673,2.7272163804088905,40.90824570613404,13.63608190204468,13.63608190204468,10.90886552163579,10.90886552163579,10.90886552163579,49.08989484736094,27.27216380408948,49.39198935928054,{}
53,57,407,0,13.580233333333211,5.6676330017567125,176.06189709335436,23.3682495134793,28.33816500878356,51.00869701580996,51.00869701581087,51.32259965252494,97.01425001453306,68.9497313171347,70.8454125219589,51.00869701581041,62.34396301932384,5.6676330017567125,39.67343101229699,11.335266003513423,11.335266003513423,11.335266003513423,8.015243457637357,8.501449502635069,45.34106401405381,28.33816500878356,51.32259965252444,{}
54,57,408,0,13.61359999999988,5.7674980072847575,173.88791285482228,12.896517604383297,23.06999202913903,52.22691573940401,52.226915739403104,57.96263761827413,98.7236635582461,75.85959237089106,72.09372509105901,51.90748206556259,69.20997608741663,2.883749003642152,37.48873704735093,8.651247010927136,8.651247010927136,5.7674980072847575,12.8965176043835,8.651247010927136,40.37248605099308,23.069992029138803,57.96263761827438,{}
55,57,409,0,13.646966666666543,8.637677122699484,178.07027568435822,12.215520134321425,24.4310402686433,49.242335926214935,55.3081197394771,56.31076547366752,99.4271303773328,75.54881967850093,70.23924077234915,48.8620805372866,67.18536073876885,3.053880033580299,39.70044043654525,9.161640100741124,9.161640100741124,6.107760067160825,12.21552013432165,12.21552013432165,42.75432047012555,24.43104026864308,61.3822289986157,{}
56,57,410,0,13.68033333333321,6.118468555426261,172.29763889485352,18.35540566627742,24.473874221703227,48.94774844340645,48.94774844340645,50.45418424208159,93.59457167226,69.76127486138317,67.30315410968365,42.82927988798042,61.18468555425784,3.059234277712904,39.77004561026774,15.296171388564517,9.17770283313871,6.118468555425807,12.236937110851612,9.17770283313871,48.94774844340645,30.59234277712904,48.94774844340645,{}
57,57,411,0,13.713699999999877,0.0,176.68162343799867,13.051769322946484,26.906911759852576,52.61336417646622,52.207077291785936,53.81382351970515,93.4364488625544,66.5512264646163,65.25884661473287,45.68119263031304,58.73296195325952,2.273736754432321e-13,39.15530796883991,13.051769322946711,13.051769322946711,14.592321716377423,13.051769322946484,13.051769322946484,45.68119263031304,26.103538645893195,46.14497297369087,{}
58,57,412,0,13.747066666666544,0.0,176.8069454229679,15.105636775962235,27.85341796234038,47.76821771924303,54.04356907915553,54.46414794426632,96.72326896202055,68.89230332970351,67.55446134894464,47.2881229442612,67.55446134894464,3.3777230674472776,37.15495374191937,10.133169202341604,10.133169202341604,15.105636775962438,13.510892269788885,13.510892269788885,47.2881229442612,27.02178453957777,47.28812294426098,{}
59,57,413,0,13.780433333333209,0.0,179.54190072973822,15.339299776947342,27.439773622801567,48.50712500726674,48.50712500726587,55.30663187549732,97.01425001453332,69.95797057561649,68.59943405700346,48.0196038399024,68.59943405700346,3.4299717028500254,37.7296887313521,10.289915108550533,10.289915108550533,13.719886811400556,13.719886811400784,13.719886811400556,48.01960383990263,27.439773622801567,55.30663187549754,{}
60,57,414,0,13.813799999999874,10.044039219036426,171.04382453549078,14.20441648456881,21.306624726852988,50.22019609518316,56.81766593827524,58.56630951614135,101.68814676715375,80.9776330178916,74.57318654398568,56.81766593827479,71.0220824228436,7.102208242284405,35.5110412114218,7.102208242284405,7.102208242284405,7.102208242284405,7.102208242284405,10.65331236342672,42.613249453705976,28.4088329691374,56.81766593827433,{}
61,57,415,0,13.84716666666654,7.102208242284178,171.04382453548988,14.20441648456881,21.306624726852988,50.22019609518226,42.613249453705976,57.2598334313869,93.41496460204615,72.42859683401504,71.0220824228436,49.71545769599061,63.91987418055919,2.273736754432321e-13,35.51104121142157,7.102208242284178,14.204416484568585,14.204416484568585,14.20441648456881,10.653312363426494,42.613249453705976,21.306624726852988,50.22019609518226,{}
62,57,416,0,13.880533333333206,0.0,174.55886245097054,15.051533894137492,23.79856469234908,53.21520841901924,52.68036862948156,53.21520841901911,91.55490639477344,68.1487181655723,67.73190252361883,45.15460168241248,67.73190252361883,3.76288347353443,33.865951261809414,11.288650420603062,11.288650420603062,15.051533894137492,15.051533894137492,15.051533894137492,45.154601682412704,30.10306778827521,60.67467288089503,{}
63,57,640,1,21.354666666666365,17.39130434782612,164.26257420176532,11.594202898550748,23.26878179476765,42.5559720686864,44.44444444444434,40.62569283406498,92.83410357073862,69.59205064876953,60.86956521739137,48.3091787439613,46.37681159420288,6.763285024154584,45.41062801932367,20.28985507246375,0.96618357487921,19.32367149758454,19.32367149758454,18.35748792270533,52.17391304347825,57.971014492753625,61.86593466118699,{}
64,57,641,0,21.38803333333303,11.530138014825187,164.95581208800246,7.582172052512988,20.93695690360849,43.63867730291858,45.49303231507815,39.98652366742596,79.97304733485181,59.0363516418552,53.075204367591255,37.910860262565166,34.11977423630867,3.791086026256494,43.59748930194985,20.850973144410773,7.582172052512988,18.95543013128264,20.936956903608525,19.90320163784673,51.17966135446295,56.86629039384775,68.3447752868145,{}
65,57,642,0,21.421399999999696,5.687139921520384,166.83354178189774,11.374279843040654,22.748559686081308,45.497119372162615,45.497119372162615,37.96162939259561,77.74736061189924,55.00836090996845,52.13211594726965,32.22712622194854,34.12283952912196,4.7392832679335015,44.54926271857585,18.009276418147692,12.322136496627309,15.283729299311783,17.16641410794779,16.113563110974326,51.184259293683,58.76711252237675,66.45820394007193,{}
66,57,643,0,21.45476666666636,5.580429646842617,160.14525963823618,11.16085929368512,22.32171858737036,46.65215450815309,46.65215450815308,35.39163838111464,74.42897678280579,52.11721629497774,49.29379521377621,29.762291449827217,37.20286431228397,1.860143215614244,40.92315074351234,13.021002509299365,11.160859293685236,5.580429646842617,7.440572862456804,6.510501254649682,46.50358039035496,53.94415325281176,69.05116200627367,{}
67,57,644,0,21.488133333333028,11.2066362936105,151.4773724817203,9.211798288845102,20.265956235459385,44.36989613435431,46.38943085268921,36.89322339588267,77.37910562629929,57.11314939083991,51.58607041753282,29.477754524304487,40.531912470918655,1.842359657769066,42.37427212868772,16.581236919921253,9.211798288845102,7.369438631076093,9.394227846020426,9.21179828884516,53.42843007530195,62.64022836414711,66.7331050562626,{}
68,57,645,0,21.52149999999969,9.130040853143896,151.9541639326856,10.956049023772836,23.738106218174263,43.97610017654808,45.977710926651966,38.34617158320458,82.17036767829558,58.43226146012131,53.867241033549305,34.694155241947044,45.650204265719765,1.8260081706288247,41.99818792446217,12.782057194401546,7.304032682515185,9.130040853143951,9.130040853143951,10.043044938458364,49.30222060697736,62.084277801378846,67.95596800352637,{}
69,57,646,0,21.55486666666636,3.619316718273467,150.59358845679648,12.667608513957248,23.52555866877776,43.58234457369433,43.769796383170345,39.853591277886665,79.64552944672421,56.1285895820957,54.289750774102345,36.193167182734896,47.05111733755541,1.8096583591367328,38.002825541871744,10.857950154820514,9.04829179568378,12.796216973765176,14.589932127723468,14.47726687309398,47.05111733755541,61.52838421064939,69.35974553377231,{}
70,57,647,0,21.588233333333022,1.8346886687112367,152.67652533821496,9.173443343556414,22.016264024535303,40.5295974001175,42.357077075914816,44.18515425385068,77.14424074174605,55.16283703755805,54.123315726982696,36.69377337422554,47.7019053864932,1.8346886687112367,34.85908470551419,9.1734433435563,11.008132012267652,14.677509349690183,16.613812503757188,17.429542352757096,45.8672167177819,60.54472606747208,71.92821991094272,{}
71,57,648,0,21.62159999999969,1.8513559060018,148.52444342015582,9.256779530009226,20.364914966020137,42.74187012914416,44.58655448225342,44.58655448225349,75.99584853009439,55.66396407355328,54.61499922705406,38.87847402603853,49.98660946204944,0.0,31.473050402031163,5.554067718005513,7.405423624007312,16.66220315401648,16.76474075661194,17.58788110701738,46.28389765004573,61.09474489806041,70.74020984139267,{}
72,57,649,0,21.65496666666636,1.8432396865277951,143.9616216432261,11.059438119167226,20.275636551806656,42.5544926521443,44.39109003341763,44.27613665089838,77.43800705477108,57.170152224702846,56.21881043910014,42.39451279014111,49.76747153625263,1.8432396865279088,31.335074670973768,5.529719059583499,7.372958746111408,16.589157178750895,18.79743025966853,18.432396865278747,46.08099216319687,62.670149341947706,66.76498105363821,{}
73,57,650,0,21.688333333333023,1.86014321561413,154.6717752496087,7.669566956753448,20.461575371756226,42.944740925093605,44.79818092183434,48.93272816383841,78.32506255051368,57.93383121387419,56.73436807623301,40.9231507435124,50.223866821583385,2.790214823421252,32.55250627324847,8.37064447026387,10.230787685878113,18.69420795439456,18.69420795439456,19.531503763949104,46.50358039035496,61.38472611526856,71.07597247023399,{}
74,57,651,0,21.72169999999969,1.8599622199010355,156.51336183352663,11.159773319406668,18.59962219901115,46.64761515876239,46.647615158762406,45.59753430981914,76.82341985252829,58.40399838219143,56.7288477069838,39.05920661792328,48.3590177174288,0.9299811099506314,32.549338848269485,8.369829989555,10.22979220945615,16.842674243589535,18.692388969989988,19.52960330896167,48.3590177174288,59.51879103683547,67.19073295175889,"{'neutral': (['m1', 'm3', 'm12', 'e1', 'e2'], 1.4239770392084217, 80)}"
75,57,652,0,21.755066666666355,0.0,159.65860166902613,13.133820834965375,20.63886131208858,46.90650298201945,46.94401318632018,43.80173351804612,77.29189740031212,56.785935443967325,56.287803578423336,37.52520238561556,45.03024286273876,1.8762601192808008,35.64894226633476,11.25756071568469,11.25756071568469,18.76260119280778,20.723970379606985,19.70073125244818,52.53528333986179,60.04032381698494,67.77949104220694,"{'neutral': (['m1', 'm3', 'm12', 'e1', 'e2'], 1.4239770392084217, 80)}"
76,57,653,0,21.78843333333302,4.194568509300609,161.59707877976413,11.410459975224532,18.852240731015872,45.05989718809391,46.93420398172241,45.64183990089849,79.34278859205601,60.49492735492004,58.15191000307237,37.51736129230477,46.896701615381005,2.8138020969228137,36.57942725999703,14.069010484614182,10.317274355383688,18.852240731015897,20.71963999428766,20.634548710767604,50.64843774461144,58.15191000307237,64.02730948710439,"{'neutral': (['m1', 'm3', 'm12', 'e1', 'e2'], 1.4239770392084217, 80)}"
77,57,654,0,21.821799999999687,11.418090237916203,167.85412522813775,9.515075198263505,20.933165436179703,47.727374384935615,49.51497394985418,42.93397625124528,84.27155687943666,63.5162451081205,57.09045118958113,32.35125567409591,43.76934591201223,3.806030079305401,45.672360951664814,20.933165436179703,11.418090237916203,19.12506445363213,19.12506445363213,19.981657916353413,55.18743614992843,58.99346622923389,62.91472483902973,"{'neutral': (['m1', 'm3', 'm12', 'e1', 'e2'], 1.4239770392084217, 80)}"
78,57,655,0,21.85516666666636,22.58844271740044,165.34263351207028,5.627604193845741,20.71963999428766,48.80863073459373,50.68316413727182,40.49442608635152,89.13828183566372,68.46275985134767,56.276041938457126,33.76562516307428,43.14496548615051,0.9379340323075668,49.71050371230376,25.324218872305664,4.689670161538061,18.85224073101593,20.71963999428764,20.634548710767604,54.400173873841936,56.27604193845718,62.01723089961991,"{'neutral': (['m1', 'm3', 'm12', 'e1', 'e2'], 1.4239770392084217, 80)}"
79,57,656,0,21.88853333333302,22.79670980750464,174.54106943648094,7.572654820202729,20.82480075555759,49.25864987147004,53.04237946288962,41.34731943349927,91.8330763920455,71.28961760609958,58.68807485657112,34.07694669091234,45.43592892121637,0.0,51.115420036368505,26.504291870709608,3.786327410101421,19.02605976617973,20.91067658692064,20.824800755557533,56.79491115152047,56.79491115152047,62.50307998324675,"{'neutral': (['m1', 'm3', 'm12', 'e1', 'e2'], 1.4239770392084217, 80)}"
80,57,657,0,21.921899999999685,22.258971807962663,163.1824451682998,5.545520984529389,18.577265382945388,46.36031957590369,50.04642799059956,39.90378176630053,86.01021804480746,67.46417451135578,55.45520984529395,29.57611191749009,42.515660881391966,2.7727604922647515,48.98543536334296,24.95484443038231,6.469774481950935,16.738942768845558,20.41742710083832,20.333576943274466,55.45520984529389,53.6067028504508,61.02873208483485,"{'neutral': (['m1', 'm3', 'm12', 'e1', 'e2'], 1.4239770392084217, 80)}"
81,57,658,0,21.95526666666635,20.580698514646294,165.02471367814096,7.682536921413146,18.72582163191748,46.91641555812672,46.73104772320473,39.83256701260832,86.69801332051753,68.00366320890114,56.83031127003949,26.08604451739518,44.7189334583918,3.726577788199336,50.30880014069072,26.086044517395123,11.179733364597894,7.6825369214132015,9.316444470498311,9.316444470498254,57.761955717089336,54.03537792889006,59.65435139574471,"{'neutral': (['m1', 'm3', 'm12', 'e1', 'e2'], 1.4239770392084217, 80)}"
82,57,659,0,21.988633333333016,15.123066649961304,164.06423031514956,7.7340619870662435,18.85141155082858,47.04446246193052,50.784967068716696,41.943840191303664,83.5725095236148,64.76215855192594,56.27356674308572,28.13678337154284,45.01885339446852,4.689463895257177,45.95674617352006,23.44731947628577,10.31682056956572,3.751571116205753,5.931754765655201,6.565249453360025,63.77670897549712,56.27356674308572,58.17959904045178,"{'neutral': (['m1', 'm3', 'm12', 'e1', 'e2'], 1.4239770392084217, 80)}"
83,57,660,0,22.02199999999968,6.005911224181715,161.15550916919273,7.596943557273903,13.826645979903708,44.05244790294958,44.33810827025656,46.2494162041232,73.31148938113391,59.48581445162379,54.128222845575806,26.589302450458263,49.380133122279744,5.697707667955228,32.287010118413605,13.294651225229131,13.294651225229131,6.005911224181787,6.005911224181787,5.697707667955342,68.37249201546416,53.17860490091658,62.703554045763774,{}
84,57,661,0,22.055366666666348,0.0,154.25193616737872,10.268522938820162,12.791316222651682,40.449693535041085,42.3382046958331,45.32451886119552,68.14036056291054,55.52734452707418,53.3908715116844,28.602252595545224,51.48405467198131,3.8136336794060526,24.78861891613917,5.720450519109022,13.347717877921127,6.029884294225678,7.862007238801968,6.673858938960564,70.55222306901146,51.48405467198131,64.85980791231557,{}
85,57,662,0,22.08873333333301,4.249887611879995,160.30585085556504,12.02049739856433,17.52273552078553,44.370129296449896,44.370129296449896,47.515187984490375,73.92850215132782,56.50912408953561,55.11761806200877,30.409720310073794,58.91883310076798,0.9503037596898594,25.65820151162484,2.8509112790694644,12.35394887596749,6.852737865655584,8.499775223760091,7.60243007751842,76.02430077518454,51.31640302324956,64.73235955500073,{}
86,57,663,0,22.12209999999968,2.6438228499093186,152.1634320537934,11.823535225728776,17.23561628205841,39.96459847538831,39.96459847538831,46.24801156894155,73.95618920876178,56.76528392992343,55.14921943009051,28.041975981402004,56.08395196280401,2.804197598140149,28.97670851411533,6.543127728993795,14.020987990700974,8.360501935710834,6.740452151085068,6.543127728993795,74.77860261707201,48.60609170109683,65.67119722123552,{}
87,57,664,0,22.155466666666342,4.119859939502439,147.82204436025717,11.65272360304375,17.479085404565698,35.774051244613275,37.57890446296857,45.57987824407503,71.6666185593401,54.18829711619672,53.431263918532295,27.6368606475167,53.431263918532295,3.684914753002317,27.636860647516755,5.527372129503419,16.58211638851003,8.239719879004927,7.596646374012477,7.369829506004407,77.38320981304679,51.58880654203119,64.72246204627591,{}
88,57,665,0,22.18883333333301,4.071639637402822,143.98874477086636,11.076057290066666,16.78780029446354,38.626965196845305,38.926237801641165,42.0385701387469,69.0980159557318,52.42779549106609,50.074546550134585,25.49249642552303,49.164100249223054,2.731338902734592,28.22383532825768,6.373124106380715,13.656694513673074,8.143279274805696,9.284766908852582,8.194016708203833,74.65659667474608,47.343207647399936,63.964927392591655,{}
89,57,666,0,22.22219999999968,3.691342390513114,145.65608623983684,6.654662132144409,14.05621305110276,37.32638991181605,41.27046256706982,49.24865011989525,73.01490178014829,59.09030982339485,55.37013585769705,27.685067928848525,49.83312227192732,9.228355976282842,31.37641031936176,11.074027171539456,14.76536956205257,8.254092513413898,9.411113440289348,9.228355976282842,71.98117661500618,47.987451076670766,61.15831401189698,{}
90,57,667,0,22.255566666666343,14.903315363335231,151.56493718109408,6.516285610420892,22.35497304500296,40.12840470213028,41.91983581170064,44.70994609000592,88.13214905266875,65.78643831337095,56.02606605478167,21.687509440560632,43.37501888112132,10.843754720280344,52.41148114802161,27.10938680070092,16.265632080420573,8.082457561960304,9.215419486553856,8.13281604021023,66.86982077506207,43.37501888112132,61.8717273568158,{}
91,57,668,0,22.28893333333301,31.05473099229356,168.1272988001448,5.157910073967548,15.037762759621687,41.98234637246748,45.62637223044876,44.70602005744507,94.77440459480697,79.76020428561579,62.914082528413246,27.35394892539705,38.29552849555592,10.941579570158863,60.17868763587353,40.11912509058232,10.941579570158863,9.298554622961316,11.092505038606406,10.02978127264555,69.29667061100588,45.58991487566175,60.42684822534241,{}
92,57,669,0,22.322299999999675,43.27388294377891,174.74772240690072,7.4086031148255715,23.633874267979948,48.64787298586564,52.23242912861486,32.393177419586905,106.0750537269047,82.45956750324767,59.2960561743115,23.35905243230457,35.93700374200694,0.8984250935502587,74.56928276466454,45.819679771058986,6.288975654851242,9.162174167027503,10.781101122602138,9.882676029051936,66.48345692271289,44.92125467750867,61.330263679835575,{}
93,57,670,0,22.35566666666634,42.23331196466511,190.96114558525431,7.542511770729713,24.06105065845197,53.333612202622895,58.65271136519961,30.66512193035317,104.06286833231349,80.0108751915425,57.62382590972118,18.293278066578186,34.757228326498534,2.7439917099867444,75.91710397629947,46.64785906977443,8.231975129960233,11.56968491223764,10.975966839946864,10.061302936617947,71.34378445965484,45.7331951664454,60.47858435068701,{}
94,57,671,0,22.389033333333007,46.02809642254158,185.3604969121007,7.537075157637306,22.238692150919377,53.13818784819576,58.752796927477625,26.61621620869609,102.18882278499194,79.95320366449384,55.75428164625282,14.624073874426928,31.07615698315726,2.7420138514551127,77.69039245789338,48.44224470903941,8.226041554365224,12.925977256475372,12.796064640123632,11.882060022971928,69.4643509035281,45.700230857584245,62.25975106286669,{}
95,57,672,0,22.42239999999968,42.24010351193442,193.893725171275,7.284400697562205,20.360518918869897,56.71784260539485,62.157966582068816,25.364990320559343,94.64466275385776,74.28660260339727,51.9013549701308,9.105500871952811,27.31650261585833,5.463300523171711,74.66510715001266,47.34860453415433,10.926601046343308,11.07731990470239,10.926601046343308,10.926601046343308,65.5596062780599,45.52750435976384,60.344126623818894,{}
96,57,673,0,22.45576666666634,32.830350282607725,184.50719769326568,7.508588373843026,22.15463980940478,51.12071797217106,54.754277312639374,27.072600388243742,88.93608907928912,66.78746784949509,49.16970470854494,10.92660104634342,25.49540244146783,7.284400697562205,69.20180662684095,41.88530401098262,12.747701220733802,13.257809388951095,12.877122825315622,11.837151133538612,69.201806626841,45.52750435976384,64.15340718816219,{}
97,57,674,0,22.489133333333005,34.67287811673797,188.771083540322,5.762827337326651,19.026059766179788,51.31829292117194,54.79233682143384,27.757452169467328,86.19232578581448,67.20553796450186,48.292699392824375,5.467098044470731,25.513124207529813,10.023013081529598,68.33872555588346,42.82560134835364,13.667745111176714,13.267024846405745,12.886073668856415,12.756562103764908,67.42754254847159,43.73678435576534,62.38776297804813,{}
98,57,675,0,22.52249999999967,32.664510957533466,183.444411615758,5.703471012309733,20.164815145525363,48.99676643630015,54.37774329974097,26.26075264860167,84.53844731801037,64.37599470566583,46.893493315876526,3.607191793528955,25.250342554702684,10.821575380586864,68.53664407705037,41.48270562558309,14.428767174115931,13.130376324300835,14.541054993488949,13.526969225733636,66.73304818028595,41.48270562558315,57.96814451116175,{}
99,57,676,0,22.555866666666336,29.53782695928238,186.5439833340136,8.1923192051904,18.6813620646516,51.8127760150839,55.44209144103152,24.91596614878742,80.87192625612327,62.20231118518448,45.79645659045707,3.663716527236602,27.477873954274173,8.243362186282297,63.19911009483064,35.72123614055647,13.738936977137088,11.585688927269802,14.76891347964119,13.738936977137088,67.77875575387634,43.96459832683871,58.87650595118681,{}
100,57,677,0,22.589233333333,27.33117019858566,185.2898107434445,7.446718656990583,18.41862284987769,52.656252599464125,56.453096369502845,23.755465061442663,76.90231037809131,58.49627744588102,44.24931681660166,1.80609456394302,21.673134767315105,11.739614665628892,64.11635701997375,38.83103312477283,17.157898357457725,13.148566895936703,12.77101713628201,12.64266194760046,68.63159342983107,43.34626953463015,58.244799569234814,{}
101,57,678,0,22.622599999999668,27.51834808349123,190.17513126543096,5.7504869026587615,18.275333270238008,54.67500530805238,58.44599807089672,24.733779390269664,75.9630395868935,57.7916781326054,42.73389522831644,1.818463626736844,21.82156352084246,11.820013573789652,62.73699512242206,37.2785043481058,13.638477200526497,14.995435218759765,14.547709013894972,13.638477200526609,69.10161781600107,45.46159066842176,56.63572779537715,{}
102,57,679,0,22.65596666666633,27.80837563525784,191.994878328796,5.81109372516072,16.64044002775595,53.41782912923286,55.4038342959094,23.24437490064306,73.15980064073798,56.60971732678936,41.34665670349614,3.675258373644056,22.051550241864675,9.188145934110253,58.80413397830557,36.75258373644101,12.863404307754308,15.153478475970385,16.538662681398478,15.619848087987464,67.99227991241588,45.94072967055126,59.061985254416015,{}
103,57,680,0,22.689333333333,21.84579132759287,177.5502123950958,7.480114409224962,18.501223495010663,53.10974188904381,54.69727889874446,26.41506661638801,74.00489398004261,55.50367048503193,43.540661366031145,3.6283884471693,27.21291335376941,9.978068229715404,57.147118042915736,31.748398912730977,15.420650900469354,14.960228818449703,14.626501436013662,14.513553788676973,63.496797825461954,41.72646714244644,60.11529046436403,{}
104,57,681,0,22.722699999999666,25.810610177816287,181.5611474639317,7.582101941856383,16.954095354323943,53.61355698734325,55.44304830965906,25.01214989876369,75.01391284349384,58.064773692394006,44.13431600537581,5.516789500671962,27.58394750335981,7.35571933422932,57.00682484027709,31.26180717047453,12.872508834901282,16.954095354324,16.550368502015942,16.550368502015942,66.20147400806377,45.97324583893317,58.96057576774595,{}
105,57,682,0,22.75606666666633,20.16828903187048,171.2212557325659,7.528589227368084,18.621120517340067,51.41924966464338,53.23516495440021,26.14364103277598,72.3500719681242,53.733865914144985,42.90985070668614,7.303804375606205,29.2152175024246,7.303804375606205,52.95258172314459,27.3892664085231,12.781657657310802,16.83443728706779,16.534690398681747,16.433559845113905,63.90828828655378,45.64877734753844,60.28404567610766,{}
106,57,683,0,22.789433333333,16.41523219507029,166.38917133035818,5.732447738564711,16.712813501642604,47.44444708986677,47.68624780391041,29.89678966795921,68.62197278497038,51.90952205694765,42.59983984110244,10.876554853047368,32.62966455914221,7.251036568698282,45.31897855436432,21.753109706094847,12.68931399522205,16.712813501642596,16.31483227957108,16.31483227957108,65.25932911828454,47.13173769653884,58.03660999942986,{}
107,57,684,0,22.822799999999663,3.7215340999553055,164.80136312553032,7.672139091726812,16.849962289903683,46.66780019439281,46.85291714562908,38.360695458634666,59.13610195494327,42.43201724437523,42.79764214948648,16.746903449798992,35.35457394957575,11.164602299866146,31.63303984962056,9.30383524988838,16.746903449799106,17.15542454193493,16.746903449799106,15.81651992481028,65.12684674921866,46.5191762494419,65.23308963672764,{}
108,57,685,0,22.85616666666633,1.852229037372922,162.20493274995735,5.8572625063994295,11.266669386062146,46.63793548139227,46.4536679276467,39.98412962175672,55.25730397087463,44.02698161231674,43.52738237826236,18.52229037372865,37.04458074745742,11.113374224237193,25.931206523220222,9.261145186864384,16.670061336355843,15.273871927848916,16.772647297452867,16.670061336355843,64.82801630805051,48.15795497169466,64.9337717067507,{}
109,57,686,0,22.889533333332995,3.706723956587439,160.4630482911743,7.641607199008739,14.94228196990034,44.82684590970118,46.66646220487211,39.62035379096529,58.52047309033858,43.62296006591009,44.48068747904927,22.24034373952464,40.77396352246183,7.413447913174878,25.94706769611196,5.560085934881158,12.973533848056036,17.087153154335187,18.5336197829372,17.606938793790334,63.014307261986346,48.18741143563659,61.18902008218001,{}
110,57,687,0,22.92289999999966,1.85336197829372,158.41637935707462,5.860845180163666,11.273560796644436,44.826845909701404,44.826845909701404,39.62035379096529,54.88580596116702,43.62296006591004,43.55400648990246,20.38698176123092,37.06723956587439,10.1934908806154,25.020386706965155,8.34012890232168,15.753576815496558,15.283214398017368,18.62605736276645,17.606938793790334,63.0143072619864,46.33404945734293,63.041556693427424,{}
111,57,688,0,22.956266666666327,1.8555143166354355,162.29122080747078,5.867651471618834,13.508348126239326,44.68670227213773,42.71714750538389,37.52545472221226,56.4332647983101,43.03833358798462,42.6768292826153,18.55514316635453,35.25477201607356,10.20532874149501,28.76047190784948,10.20532874149501,13.91635737476588,18.922607416549845,18.647688095395367,18.55514316635447,66.79851539887613,51.954400865792536,63.19654041098592,{}
112,57,689,0,22.989633333333,3.7089142800856494,162.1987556196308,7.646122666577342,13.112992191440863,46.5095484583207,46.50954845832093,37.82365257679913,54.91823828467471,41.83846010175549,42.65251422098476,16.690114260385315,33.380228520770686,12.053971410278336,28.7440856706636,10.199514270235454,17.617342830406756,18.91182628839958,20.483148602673506,19.47179997044958,63.05154276145572,48.21588564111323,63.160534273679744,{}
113,57,690,0,23.02299999999966,1.856533308610892,162.58186994974028,7.426133234443682,16.81162413125226,43.061968930579646,42.8613997502214,37.54606255956201,59.87140020929059,43.061968930579546,43.62853275235648,16.708799777498257,35.27413286360729,11.139199851665468,33.4175995549964,11.139199851665468,18.56533308610915,18.93299913648404,18.56533308610909,18.56533308610909,64.97866580138191,51.98293264110549,61.293722022080935,{}
114,57,691,0,23.056366666666325,1.848980900120182,156.20332468810875,9.427989689973185,14.906960588449836,44.529356766355136,44.72088176534967,35.5658577365063,58.05917794666985,43.16489373449239,43.45105115282405,18.489809001201763,35.13063710228329,8.320414050540762,30.50818485198284,10.169394950660944,15.71633765102149,17.04676160934338,20.422661555711223,19.41429945126185,62.865350604085904,49.92248430324469,61.128326439769765,{}
115,57,692,0,23.08973333333299,5.650767256562972,164.74676020992763,7.766236754863685,15.185980699352106,47.240173933909006,47.4275613174604,38.41783001064751,55.78095713048713,40.66110002055654,42.38075442422212,16.952301769688802,33.90460353937772,12.243329055886306,29.195630825575225,10.359739970365354,17.89409631244928,17.05662461138459,18.83589085520981,18.83589085520987,62.15843982219246,48.97331622354557,60.27485073667162,{}
116,57,693,0,23.123099999999656,1.8414418610379928,168.57995437557943,7.592459296493436,15.184918592986874,48.01892883807775,48.195145682882725,35.75433350097244,56.72716997238789,41.54482202320408,41.43244187335392,14.7315348883036,33.145953498683184,11.048651166227728,31.30451163764519,11.048651166227728,16.572976749341592,14.84617891219452,16.67496526118715,15.652255818822596,58.926139553214455,47.87748838698673,58.95490506117797,{}
117,57,694,0,23.15646666666632,1.842320574629412,164.802758131724,7.596082325445908,13.412296234584828,46.20516494628274,46.20516494628274,37.25862780321528,56.36417136197438,43.00940687033643,43.29453350379225,18.42320574629452,35.00409091795967,10.132763160461993,28.55596890675656,10.132763160461993,15.659724884350451,18.788057120658127,18.42320574629457,17.502045458979808,60.79657896277212,47.90033494036589,60.79657896277217,"{'happy': (['m1', 'm3', 'm12', 'e1', 'e2'], 3.175695069682753, 130)}"
118,57,695,0,23.189833333332988,1.848013730793128,161.8357864367815,7.619555809651493,14.899163020048295,46.23728877214717,48.19030223453379,37.69223229880425,58.35160053462098,43.497077270278304,43.42832267363622,18.480137307930363,36.96027461586061,9.240068653965068,29.568219692688444,9.240068653965068,14.784109846344109,18.846116149402125,18.480137307930303,17.5561304425338,62.83246684696303,49.89637073141182,61.01244689919868,"{'happy': (['m1', 'm3', 'm12', 'e1', 'e2'], 3.175695069682753, 130)}"
119,57,696,0,23.22319999999965,1.8405254345808544,159.35166748276993,7.36210173832319,14.83879044588947,44.32572219035447,44.32572219035425,41.15539986039951,61.43055214734255,46.598382097366176,46.933398581809854,20.245779780388546,38.65103412619629,11.043152607484672,31.28893238787328,11.043152607484672,16.564728911227007,18.76975021238241,18.405254345807748,18.405254345807805,60.73733934116564,47.85366129910017,64.44467806704701,"{'happy': (['m1', 'm3', 'm12', 'e1', 'e2'], 3.175695069682753, 130)}"
120,57,697,0,23.25656666666632,2.604192054201401,157.397505635003,7.592459296493491,16.674965261187204,46.183126921524746,48.19514568288295,40.886644603077606,66.69986104474869,50.02489578356148,48.79820931750567,23.93874419349333,40.51172094283493,8.28648837467074,34.06667442920207,10.127930235708732,13.810813957784603,18.50626166695676,18.50626166695681,17.49369767986053,60.76758141425245,49.71893024802472,62.63609744878296,"{'happy': (['m1', 'm3', 'm12', 'e1', 'e2'], 3.175695069682753, 130)}"
121,57,698,0,23.289933333332986,1.856533308610892,156.84135795042053,7.426133234443682,18.657928838007727,44.71124284863295,46.74631426190128,41.01216126808121,68.9171571236284,50.26373219076192,49.198132678189154,25.99146632055272,42.70026609805086,6.497866580138179,34.3458662093019,10.210933197359964,12.06746650597097,13.127672920174687,12.995733160276416,12.067466505970913,61.26559918416007,48.26986602388365,65.00518229536532,"{'happy': (['m1', 'm3', 'm12', 'e1', 'e2'], 3.175695069682753, 130)}"
122,57,699,0,23.32329999999965,1.8544571400427683,147.91548191597536,7.646122666577397,20.733461132477988,41.17563069508598,43.01381255980006,40.96629720534696,71.07677241245372,50.37847087576955,49.143114211134616,25.96239996059944,46.36142850107035,4.636142850107035,34.30745709079213,8.345057130192686,12.053971410278336,5.864308385697099,5.864308385697152,5.563371420128476,66.76045704154131,51.924799921198826,63.07880829473505,"{'happy': (['m1', 'm3', 'm12', 'e1', 'e2'], 3.175695069682753, 130)}"
123,57,700,0,23.35666666666632,5.493616426003541,153.31903856075775,9.337352452128728,20.226325571719943,42.27666131227888,44.29095159672769,38.62932182084416,73.61354905531036,53.3883551812648,50.358150571699525,23.805671179348906,43.948931408028784,4.578013688336341,39.37091771969244,11.90283558967451,11.90283558967451,8.189399847235626,5.790780165828387,6.409219163670798,62.26098616137409,49.44254783403238,64.11834637831413,"{'happy': (['m1', 'm3', 'm12', 'e1', 'e2'], 3.175695069682753, 130)}"
124,57,701,0,23.390033333332983,5.796614461585624,147.56909936046873,5.796614461585516,18.69351994272701,40.49340778143549,44.335575378598485,38.66824142786548,68.21805026129371,49.6279576907217,46.74278626202636,21.99660529977712,38.49405927460998,8.248726987416376,37.57753405378594,13.747878312360626,11.914827870712545,9.871278728065672,11.150010542603622,10.081777429064516,62.32371501603524,49.4923619244986,58.68624855676961,"{'happy': (['m1', 'm3', 'm12', 'e1', 'e2'], 3.175695069682753, 130)}"
125,57,702,0,23.42339999999965,7.362101738323076,155.69583299473408,5.820252464746482,18.76975021238241,42.69066906166098,46.34324629290412,40.65853577252027,72.36799963570711,53.660076351398686,49.694186733680965,23.926830649550027,42.332084995357775,7.36210173832319,38.65103412619635,14.724203476646268,12.883678042065526,9.911532796940389,13.014480157383904,12.883678042065412,62.57786477574638,49.69418673368091,60.76521969119538,"{'happy': (['m1', 'm3', 'm12', 'e1', 'e2'], 3.175695069682753, 130)}"
126,57,703,0,23.456766666666315,4.132284325406124,157.61292981756813,9.423058074701068,18.57230814059347,44.39081312938702,46.34794857646372,38.983892358175446,70.443025563834,51.87621750252482,49.89637073141182,24.024178500309404,36.96027461586061,8.316061788568618,39.73229521205008,17.5561304425338,15.708116711740672,11.241028677144458,12.936096115551209,12.936096115551209,62.83246684696303,48.04835700061881,61.01244689919868,"{'happy': (['m1', 'm3', 'm12', 'e1', 'e2'], 3.175695069682753, 130)}"
127,57,704,0,23.49013333333298,16.58088517166516,168.297774367404,5.526961723888348,18.515092629257914,48.04184288511468,51.71640299330533,35.43774381771668,75.89376940300177,57.37874821492648,48.82149522768066,20.265526320924096,35.00409091795973,7.36928229851776,47.90033494036573,22.1078468955534,11.053923447776697,11.20639856015355,11.053923447776697,11.053923447776754,58.95425838814259,47.90033494036584,58.98303762265536,"{'happy': (['m1', 'm3', 'm12', 'e1', 'e2'], 3.175695069682753, 130)}"
128,57,705,0,23.523499999999647,18.546594298364205,164.75273989947726,5.83584146043216,18.82002321288436,46.2837786397856,48.30018240404433,37.09318859672828,79.6971705602976,61.01176180669526,51.6727430201048,25.83637151005246,38.75455726507869,4.613637769652087,47.0591052504526,23.068188848261,10.150003093234773,14.878534742488627,14.878534742488602,14.763640862887144,62.74547366727023,51.67274302010492,57.238866009337485,"{'happy': (['m1', 'm3', 'm12', 'e1', 'e2'], 3.175695069682753, 130)}"
129,57,706,0,23.55686666666632,18.481016103219744,160.36691243377572,5.815206731275411,20.311643896916745,46.12012559282537,47.95342317570347,36.82454121956741,80.99645726529981,60.71254068719603,51.49003533960519,25.74501766980262,36.77859667114655,5.516789500671962,49.65110550604789,25.745017669802564,9.19464916778668,13.003197554346348,14.71143866845864,14.71143866845864,62.52361434094911,53.32896517316249,57.03647728693273,"{'happy': (['m1', 'm3', 'm12', 'e1', 'e2'], 3.175695069682753, 130)}"
130,57,707,0,23.59023333333298,16.738942768845643,163.1824451682998,5.845492374457403,18.8511464754357,46.360319575903695,50.04642799059934,38.86263404110584,79.67901435353129,61.02873208483485,52.682449353029256,27.727604922646947,40.66715388654893,4.62126748710773,45.28842137365666,21.25783044069601,8.318281476794027,14.90313984195815,14.78805595874502,14.788055958745076,61.00073082982334,51.75819585560765,61.02873208483485,"{'happy': (['m1', 'm3', 'm12', 'e1', 'e2'], 3.175695069682753, 130)}"
131,57,708,0,23.623599999999644,11.30198495177588,158.2059693165789,7.66087406884664,18.673019449858344,44.74740549117747,46.59927773531368,39.0187324928595,76.20208569820376,57.59908129898304,52.024976657146,31.58659297041004,40.87676737347181,2.7870523209185194,39.9477499331656,17.651331365817327,8.361156962755558,14.979956112825963,16.825221444038036,15.793296485204962,61.31515106020783,55.74104641837073,57.59908129898327,"{'happy': (['m1', 'm3', 'm12', 'e1', 'e2'], 3.175695069682753, 130)}"
132,57,709,0,23.65696666666631,1.864584053467297,153.45198245356204,9.507550473363905,15.375754000576483,43.04726562829578,44.90513045987011,41.02084917628184,65.36690269558898,50.34376944361856,50.34376944361856,29.83334485547772,42.88543322974914,4.661460133668356,28.9010528287439,8.390628240603064,12.119796347537772,17.190615575301727,16.781256481206242,16.781256481206242,61.53127376442268,55.93752160402062,65.26044187135744,"{'happy': (['m1', 'm3', 'm12', 'e1', 'e2'], 3.175695069682753, 130)}"
133,57,710,0,23.690333333332976,1.8580348806123084,154.7643793600961,9.474156113178555,16.825221444038064,42.89606623183507,43.09679763339525,39.01873249285944,66.99240033648465,50.20133803822053,49.23792433622742,29.72855808979768,42.73480225408417,2.7870523209185194,30.65757553010394,8.361156962755672,12.077226723980402,14.864279044898865,16.72231392551123,16.72231392551123,59.4571161795954,53.88301153775837,65.0577587620684,"{'happy': (['m1', 'm3', 'm12', 'e1', 'e2'], 3.175695069682753, 130)}"
134,57,711,0,23.72369999999964,4.1546922976149805,154.49646621167102,7.660874068846695,16.82522144403798,44.63152940847045,44.74740549117768,39.0187324928595,66.91505676595595,50.16694177653369,48.30890689592127,31.58659297041004,40.87676737347181,2.787052320918633,30.65757553010394,10.219191843368094,8.361156962755672,14.979956112825963,16.82522144403809,15.79329648520502,59.4571161795954,55.74104641837073,63.200504076557806,"{'happy': (['m1', 'm3', 'm12', 'e1', 'e2'], 3.175695069682753, 130)}"
135,57,712,0,23.757066666666308,5.657294278382437,158.9533029308075,7.5430590378433635,18.95170128327433,43.536260198103605,47.48234338748918,41.52966088341935,73.54482561897237,54.71968155057654,51.85853088517274,32.05800091083404,45.25835422705984,2.8286471391912755,34.88664805002543,10.37170617703464,10.37170617703464,15.203521543431412,15.086118075686612,15.086118075686612,58.4587075432857,54.68717802436407,62.23023706220715,"{'happy': (['m1', 'm3', 'm12', 'e1', 'e2'], 3.175695069682753, 130)}"
136,57,713,0,23.79043333333297,5.935345278259084,159.93525485564322,9.570456691694252,18.86282237839118,47.07293864513221,49.123723033707606,41.3348967973717,75.07683911529784,56.338902668146574,53.492247869649646,31.90765662400156,43.16918249129628,3.7538419557648695,37.53841955764892,13.1384468451771,11.261525867294722,16.99624232857504,16.996242328575065,16.892288800942026,60.06147129223831,56.30762933647344,61.93839227012063,"{'happy': (['m1', 'm3', 'm12', 'e1', 'e2'], 3.175695069682753, 130)}"
137,57,714,0,23.82379999999964,9.425472592525466,162.39189373728738,9.425472592525466,20.736039703556003,45.39908786908415,49.33764506371461,37.74898831522346,77.31186079832736,56.584245074683565,51.84009925889006,30.16151229608147,39.586984888606935,2.8276417777576626,42.4146266663646,16.02330340729327,10.368019851778058,15.198117888092783,16.96585066654586,15.080756148040791,58.43793007365787,56.55283555515274,64.09321362917308,"{'happy': (['m1', 'm3', 'm12', 'e1', 'e2'], 3.175695069682753, 130)}"
138,57,715,0,23.857166666666306,16.974335242187976,162.4731054804037,5.658111747395992,18.860372491319936,47.30157356490712,49.181834283372346,35.88430596864102,77.35052424903604,58.49756676921767,49.97998710199795,28.29055873697996,37.72074498263987,2.829055873698053,44.32187535460196,19.80339111588603,6.6011303719620855,15.205718425394103,15.08829799305596,16.03131661762194,58.46715472309188,56.58111747395986,60.35319197222384,"{'happy': (['m1', 'm3', 'm12', 'e1', 'e2'], 3.175695069682753, 130)}"
139,57,716,0,23.89053333333297,15.209100104169478,160.62599958839877,7.545826779045456,18.86456694761364,47.31209320777375,51.07387713172858,37.77626587349779,79.23118117997723,60.36661423236359,52.82078745331813,32.06976381094313,41.50204728474995,0.943228347380682,42.44527563213069,17.921338600232957,6.602598431664774,15.209100104169478,16.978110252852275,16.978110252852275,58.480157537602224,56.59370084284086,64.16726363512734,"{'happy': (['m1', 'm3', 'm12', 'e1', 'e2'], 3.175695069682753, 130)}"
140,57,717,0,23.92389999999964,17.058546391314167,159.49490294483962,5.686182130438056,18.953940434793594,45.647133277272566,49.425829628229614,37.95523614210392,79.62911084396619,60.6822176964426,52.12333619568233,32.22169873914913,41.698668956545816,0.9476970217397138,42.64636597828553,18.00624341305388,4.738485108698342,15.281155313120369,17.058546391314223,17.058546391314223,58.7572153478601,56.861821304380726,60.770956058783725,"{'happy': (['m1', 'm3', 'm12', 'e1', 'e2'], 3.175695069682753, 130)}"
141,57,718,0,23.957266666666303,18.96013119329828,162.52189104912733,5.659810700577623,18.96013119329828,47.31577674124853,51.25176570268229,37.77920698496567,81.1458876604295,62.3721525138035,52.82489987205844,32.07226063660693,41.50527847090308,0.9433017834296606,44.33518382119189,19.809337452021964,4.716508917148076,18.960131193298302,17.083921900894147,16.979432101733096,58.484710572636175,58.484710572636175,60.40078512691796,"{'happy': (['m1', 'm3', 'm12', 'e1', 'e2'], 3.175695069682753, 130)}"
142,57,719,0,23.99063333333297,17.08088239513875,162.49297577861276,5.964902871621009,18.95675787959326,47.307358500018125,51.0687659674201,37.9135157591866,79.24570459198186,60.47834994721157,51.87236751400423,32.066554463202635,41.49789401120341,0.943133954800146,42.4410279660035,17.919545141201525,4.715669774000389,18.95675787959326,18.95675787959326,17.919545141201468,58.47430519760485,58.47430519760485,62.3610555000359,"{'happy': (['m1', 'm3', 'm12', 'e1', 'e2'], 3.175695069682753, 130)}"
143,57,720,0,24.023999999999635,22.53496291698366,163.6480738880919,5.938484150424904,20.65704934056828,46.98538267060869,48.96999481651716,35.87748850152411,84.52697406971583,63.87667200442612,52.58158013962839,30.04661722264484,39.43618510472129,0.9389567882077472,49.764709775005485,25.35183328160656,4.694783941038281,15.140223282089307,16.901222187737687,16.901222187737687,58.2153208688743,58.2153208688743,61.9995947287444,"{'happy': (['m1', 'm3', 'm12', 'e1', 'e2'], 3.175695069682753, 130)}"
144,57,721,0,24.0573666666663,18.86267909600156,164.49510751605274,5.658803728800422,16.97641118640138,49.18784917248754,51.24264718541638,36.03709781291194,77.42894269029291,60.47834994721157,50.92923355920419,28.29401864400228,39.61162610160324,1.8862679096001784,43.384161920803535,20.74894700560173,5.658803728800422,17.08088239513875,16.97641118640138,16.97641118640138,56.58803728800473,56.58803728800473,62.27541427560475,"{'happy': (['m1', 'm3', 'm12', 'e1', 'e2'], 3.175695069682753, 130)}"
145,57,722,0,24.090733333332967,17.004668500118726,161.76794165502474,5.938287825000794,16.900663435784963,48.96837587559531,50.840900130152185,35.72856133390225,75.13752919172752,58.24367633094238,49.76306456092237,30.04562388583992,39.43488135016486,0.9389257464325738,40.373807096597375,19.717440675082457,4.694628732162528,16.900663435784907,16.900663435784907,17.839589182217424,56.33554478594982,58.2133962788148,60.20849909833681,"{'happy': (['m1', 'm3', 'm12', 'e1', 'e2'], 3.175695069682753, 130)}"
146,57,723,0,24.12409999999964,16.898428982013456,167.37018716819207,5.632809660671114,16.898428982013456,50.73004546020007,52.70683405256339,33.79685796402691,73.22652558872494,56.32809660671148,47.87888211570476,26.286445083132094,35.67446118425062,2.816404830335614,42.24607245503364,19.71483381234907,6.571611270783023,15.137721110478914,18.86967882906439,17.83723059212531,56.32809660671148,56.32809660671148,60.20053887189962,"{'happy': (['m1', 'm3', 'm12', 'e1', 'e2'], 3.175695069682753, 130)}"
147,57,724,0,24.1574666666663,17.00523069057763,163.76655409663977,3.755827152830534,15.140223282089252,50.84258097850103,54.58885136554659,35.6803579518907,71.36071590378134,56.36869716284824,47.88679619859005,26.290790069814136,37.558271528305966,3.755827152830648,39.43618510472129,18.77913576415301,7.511654305661182,13.278854243655395,13.145395034907096,13.145395034907096,54.45949371604365,54.45949371604365,60.12256968474491,{}
148,57,725,0,24.190833333332964,16.900663435784963,165.93238140286314,5.633554478594988,17.004668500118836,47.09627584216796,51.01400550035653,35.72856133390219,75.11405971459976,58.24367633094243,49.76306456092232,24.41206940724487,39.43488135016492,3.755702985729954,43.19058433589487,20.65636642151492,7.511405971460022,5.633554478594988,5.633554478594988,6.572480225027505,60.091247771679775,58.2133962788148,61.99754503114031,{}
149,57,726,0,24.22419999999963,19.04997151642371,165.3039582335529,5.686629039384684,18.955430131282696,45.65072094150565,49.61110833789409,34.3297440595637,77.74037647959884,58.79239873201137,49.28411834133465,28.43314519692388,39.80640327569336,1.1368683772161605e-13,43.59748930195008,20.850973144410887,5.686629039384798,4.238563031629512,7.582172052513044,6.634400545948893,60.6573764201043,62.55291943323255,58.79239873201138,{}
150,57,727,0,24.257566666666296,15.163152347834853,161.65388999753404,7.814909843431957,17.058546391314167,47.53624077328648,51.49056915671133,36.06233112238644,75.81576173917426,58.7572153478601,51.17563917394261,28.43091065219039,41.698668956545816,0.9476970217396,40.7509719348061,18.00624341305388,6.633879152177656,5.993762240910921,5.993762240911046,4.738485108698455,60.65260939133947,58.7572153478601,60.77095605878395,{}
151,57,728,0,24.29093333333296,13.525149712289249,155.16373658482075,5.7964927338382495,19.32164244612761,44.60747549603382,48.65065257130077,38.83602067587033,77.3831176919656,58.09359548191701,51.20235248223793,32.846792158416804,46.37194187070605,0.9660821223063748,37.677202769948735,14.491231834595624,2.8982463669191247,5.7964927338382495,6.110039826515011,5.7964927338382495,61.82925582760811,59.89709158299536,59.92824741947557,{}
152,57,729,0,24.324299999999628,16.312947805723752,153.4224935870277,8.156473902861876,18.46500313989514,45.04559944218772,47.603700130475765,43.59137414911239,85.86117499860673,67.78343894045659,59.13443579574852,44.86060646574021,57.09531732003308,8.156473902861876,34.66501408716283,10.195592378577317,0.0,8.156473902861876,10.195592378577317,8.156473902861876,67.29090969861033,63.2126727471794,57.1317185461217,{}
153,57,730,0,24.357666666666294,10.452794504771244,141.81823814327825,8.199846638677514,20.499616596693727,41.20371941548772,45.28513320488125,52.26397252385591,91.03307098883144,70.77564994324239,64.57379227958535,55.34896481107313,65.59877310941994,9.224827468512215,29.724444065205944,5.124904149173403,1.0249808298347034,12.469429971984797,10.452794504771145,9.224827468512215,69.69869642875864,61.49884979008118,53.29900315140367,{}
154,57,731,0,24.39103333333296,8.53145104563538,134.75118052518178,12.586335510551017,22.854849076389023,37.474458342948736,37.474458342948736,49.832472892306754,93.68614585737194,70.8373405762033,66.21378597824162,55.86788191914138,64.14460516642157,10.345904059100237,33.10689298912075,4.138361623640094,2.069180811820047,16.682269032726843,16.553446494560433,14.484265682740386,70.35214760188171,62.07542435460152,49.70342872344408,{}
155,57,732,0,24.424399999999626,10.40494352253874,131.37578398162256,10.202886549856998,24.571804673358088,34.74977942104552,36.95642689187075,51.663291037823086,96.68547293488724,72.1453026708086,66.31876257407015,53.055010059256176,67.33905122905588,9.182597894871378,35.71010292449921,5.101443274928329,1.0202886549858476,16.324618479771118,16.324618479771118,15.30432982478544,67.33905122905588,61.21731929914171,53.094237428799545,{}
156,57,733,0,24.45776666666629,7.550892723484889,134.04777387062006,10.471204188481693,23.13164610929264,33.507853403141326,35.66363636843224,53.84276495154945,94.05449873459948,71.11173548209281,65.96858638743458,58.63874345549743,60.73298429319368,7.329842931937264,32.460732984293145,5.2356020942407895,1.047120418848067,16.75392670157072,18.848167539267024,16.753926701570663,67.01570680628271,64.92146596858635,50.30539120194472,{}
157,57,734,0,24.49113333333296,4.563344642297653,132.7925450087144,12.413639514681812,24.574362970527645,34.75339739959949,38.98923371496666,49.36011928625527,90.62577276657272,66.09764886330316,63.26448271461084,53.06053388967359,59.18290318463596,7.142764177456115,33.673031122292855,3.061184647481128,5.101974412468621,14.285528354912174,16.32631811989961,15.305923237405864,65.30527247959833,65.30527247959833,49.36011928625548,{}
158,57,735,0,24.524499999999623,5.830569276290826,131.9951259285108,8.499442242403587,24.82275423481397,30.989900789111104,35.285784423561715,50.53627210907697,88.54502228243855,64.00361192399969,59.78110856492583,53.59685595476117,57.71969102820424,6.184252610164776,30.92126305082365,2.0614175367214784,2.0614175367214784,18.55275783049421,20.614175367215807,17.52204906213342,65.96536117509066,65.96536117509066,43.28976827115321,{}
159,57,736,0,24.55786666666629,4.68055602223422,140.2605753595489,10.673309904702602,23.120241221178333,37.73584905660369,39.99068818413825,55.420629514231926,85.38647923762075,62.44640608197315,62.79624862927119,58.60983205398645,60.70304034162882,5.23302071910598,24.07189530788719,3.1398124314636107,5.233020719105866,18.954807218942825,16.87598473584747,16.74566630113901,62.79624862927119,64.88945691691356,48.18927365909349,{}
160,57,737,0,24.591233333332955,5.792692601830502,135.16972326275277,8.444227975724704,26.70299348500339,30.788583502903283,35.0565601220639,47.50361133332888,87.20359538263887,60.65062572538584,57.34473108116788,53.2486788610845,53.2486788610845,6.144078330125126,32.76841776066726,2.048026110041633,2.048026110041633,20.480261100417067,22.897628008738604,19.4562480453962,65.5368355213347,69.63288774141813,47.28235437212172,{}
161,57,738,0,24.62459999999962,2.85405021807973,131.2397683545653,10.290424404035578,26.31304286893236,30.338969975054475,30.27177394576665,42.57225139722926,81.35294801633312,55.08390859522429,53.480133970854354,60.54354789153331,56.507311365431065,16.14494610440886,22.19930089356228,4.03623652610213,6.054354789153308,20.28183753237621,22.56324811408046,19.17212349898557,66.59790268068662,70.63413920678886,44.58168958155671,{}
162,57,739,0,24.657966666666287,2.0596404876603174,133.89247414892117,10.502147037565829,23.02748069809681,33.018548835030664,37.13069693640512,48.4781795437802,82.43709443771293,59.44480696995576,57.66993365448957,51.49101219150862,53.55065267916893,5.149101219150907,27.805146583414626,1.029820243830159,5.149101219150793,18.650837861865565,18.536764388943084,16.47712390128271,63.84885511747064,65.90849560513095,49.81605744104708,{}
163,57,740,0,24.69133333333296,2.8985126746789907,133.28431629825786,12.466974409117435,24.93394881823487,36.94893172146115,39.15674999106397,47.84741252290907,83.60588856910026,58.69040847841103,58.41240207719,53.28850715813826,57.3876230933796,8.1982318704828,26.644253579069183,2.049557967620672,2.049557967620672,18.44602170858633,20.59780265286534,18.44602170858633,63.53629699624179,65.58585496386246,45.50757207630715,{}
164,57,741,0,24.72469999999962,2.884798757598196,128.57596929990677,8.159443055424958,20.500346961159806,32.89176649770034,32.8917664977001,49.6319544856406,80.49053810372753,60.028773571569886,58.13603176990239,50.99651909640568,55.0762406241181,4.079721527712536,26.51818993013092,2.0398607638561543,4.079721527712422,18.47172484489329,18.806586999059903,16.318886110849746,63.235683679543,67.31540520725548,47.31421754108401,{}
165,57,742,0,24.758066666666284,4.162096559874385,133.1870899159785,10.611305788128243,23.266827091992504,33.36174185292733,37.51663140014786,44.92365819518832,82.85081580971688,59.59215379235867,56.18830355830346,52.02620699842908,52.02620699842908,8.324193119748656,29.13467591912024,4.162096559874385,2.081048279937136,18.84469366588947,21.22261157625659,18.729434519434506,62.43144839811487,68.67459323792639,46.2067704791269,{}
166,57,743,0,24.79143333333295,2.0611712094018912,136.09974522194457,14.574681393545884,26.87438461173522,33.04308817132783,37.32939827355014,44.06280774975248,85.73084792085488,59.02296111398799,57.71279386325455,49.468109025646754,53.59045144445065,8.244684837607792,32.978739350431056,4.122342418803896,4.122342418803896,18.664699136775145,19.00305959917344,17.519955279916587,61.83513628205844,68.01864991026429,48.1185263820993,{}
167,57,744,0,24.824799999999616,2.911228198301534,129.70493630095316,10.496582543553206,24.788214894129105,35.05582969029615,35.05582969029615,46.94214419764503,84.40051722462356,59.94585757145098,56.61010301651584,49.40518081441383,51.463730015014335,5.146373001501388,31.907512609308924,3.0878238009008783,3.0878238009008783,18.64095583724308,20.99316508710627,18.52694280540516,59.69792681741672,65.87357441921841,46.0305594757073,{}
168,57,745,0,24.85816666666628,4.12321837141144,134.06801619277192,10.512185467315708,24.82506199418251,33.05010946560797,35.10793935892584,46.098982822760114,82.07690545347833,57.50374626150992,55.66344801405489,49.47862045693762,53.60183882834906,6.18482755711716,28.862528599880307,2.06160918570572,4.123218371411554,16.492873485645873,18.66866518088727,16.492873485645873,61.84827557117211,63.90988475687783,49.86367389425867,{}
169,57,746,0,24.891533333332948,2.092406248201314,136.0064061330761,12.727610324719896,23.11138240600024,31.455763273167385,35.63239443509617,44.73053661351114,80.84923446708913,57.87309728402426,56.4949687014315,50.217749956828015,50.217749956828015,6.277218744603488,29.293687474816352,4.184812496402287,6.277218744603488,20.924062482011664,23.393813037615573,19.87785935791112,60.679781197833904,69.04940619063854,48.533000960594514,{}
170,57,747,0,24.924899999999614,4.649402938763978,135.16894682226788,12.647743390965127,27.348608556373243,33.333333333333414,37.65729369280694,42.409079777298615,78.71097259652143,51.43845251256264,51.981905129317056,45.74407651379909,47.823352718971705,5.198190512931774,30.14950497500388,1.0396381025863093,5.19819051293166,18.713485846554192,21.20453988864939,19.75312394914056,60.29900995000787,68.61611477069857,48.003818842179406,{}
171,57,748,0,24.95826666666628,4.099115935241343,131.23574298495737,8.1982318704828,20.90147214227513,36.94893172146093,38.995499820809776,44.76302168618752,74.60503614364588,53.79845664475183,51.23894919051759,47.13983325527613,51.23894919051759,6.148673902862129,22.54513764382773,2.0495579676207853,0.0,12.2973478057242,12.466974409117343,11.272568821913865,61.48673902862106,65.58585496386246,47.3177200505878,{}
172,57,749,0,24.991633333332945,2.079922628317263,122.78592067967566,6.577292862406488,14.707273948265176,31.26809331557845,33.53774465202537,50.98993000594941,70.16464154456224,55.4992579727685,55.11794965040872,47.83822045129818,51.99806570793282,1.1368683772161605e-13,18.719303654855707,1.1368683772161605e-13,4.159845256634526,8.575740689664542,10.399613141586542,9.35965182742791,62.397678849519366,66.557524106154,47.88341481229999,{}
173,57,750,0,25.02499999999961,2.026700319178872,131.79786600366762,10.133501595894586,16.33978035177934,36.53685960399419,36.53685960399396,44.2638031087872,70.78959884182912,54.57057616725279,52.6942082986518,46.61410734111507,50.66750797947293,6.080100957536729,20.26700319178917,0.0,2.0267003191789854,8.106801276715657,8.106801276715657,8.106801276715657,58.77430925618853,66.88111053290419,47.00896330342595,{}
174,57,751,0,25.05836666666628,2.0064056433046744,136.4355837447199,8.025622573218811,14.187430361917022,38.174470856654416,38.174470856654416,46.84001136837295,66.9670759142897,52.78029191843864,53.16974954757461,48.15373543931287,48.15373543931287,2.0064056433046744,18.057650789742297,0.0,4.012811286609463,14.18743036191711,12.204489067672812,12.038433859828274,56.17935801253179,66.21138622905528,56.74972144766862,{}
175,57,752,0,25.091733333332943,11.915403063685062,129.09880844388806,10.126145455675513,19.958053127593,35.746209191055186,37.78433409995312,46.74254661744433,65.05150497287427,45.28549917788244,49.64751276535458,53.61931378658301,51.63341327596879,6.950651787149695,10.922452808377898,12.908353318992226,0.9929502553070506,17.87310459552765,18.30909804536812,16.880154340220543,53.61931378658295,69.50651787149644,58.13636829227824,{}
176,57,753,0,25.12509999999961,1.929644537944796,131.3434635693292,7.718578151779639,13.644647380604182,36.66324622095294,36.66324622095294,45.41843827921203,66.98396294337017,53.37133081306607,52.10040252451222,52.10040252451222,46.31146891067749,4.824111344862217,16.401978572531675,0.9648222689725116,0.9648222689725116,19.296445379448983,19.39268759932153,19.296445379448983,52.10040252451222,69.46720336601629,60.5920675519582,{}
177,57,754,0,25.158466666666275,3.8546272308517473,133.11027448481397,11.723391044046096,13.62816526940797,34.74514032158935,34.691645077665726,45.36357487899419,66.9030493737632,53.30686068169435,53.96478123192463,52.03746761649876,46.25552677022114,4.818284038564684,16.382165731119926,2.8909704231388105,2.8909704231388105,19.2731361542588,19.369262117922908,18.309479346545857,50.11015400107283,69.38329015533162,60.5188751002123,{}
178,57,755,0,25.19183333333294,2.7881165816075817,138.5107583231786,10.05269729695709,16.257373664573695,37.66538089885445,39.62658202106476,46.40350803678271,71.24715383389245,54.99025453891646,54.21614389381568,57.17338810620561,45.3444112566458,5.914488424779961,17.743465274339655,1.9714961415932064,0.0,21.686457557526296,20.105394593914223,20.70070948672958,51.2588996814257,72.945357238952,63.85334831547059,{}
179,57,756,0,25.225199999999607,4.476334487567216,144.63479368445627,10.207613154495752,14.155412549475122,40.0875685176291,42.087067221430274,45.16441819904931,66.03162370214295,51.97176633451929,52.04881866198025,54.05069630282571,42.03943045775327,4.003755281690815,16.015021126763145,1.1368683772161605e-13,2.0018776408453505,22.020654049299367,20.41522630899145,20.018776408453903,52.04881866198025,74.06947271127956,62.57268785078389,{}
180,57,757,0,25.258566666666272,1.9540112906762488,135.7299620523605,9.963541700938794,18.015093964441817,37.33133329112337,39.275140867123945,43.6930207475416,69.74479190657124,51.73519350487862,51.7812992029202,56.66632742961088,41.034237104201,5.86203387202886,19.54011290676226,1.1368683772161605e-13,1.9540112906763625,21.582760137179022,21.84651037377085,20.51711855210044,48.85028226690588,72.2984177550207,67.46292958296081,{}
181,57,758,0,25.29193333333294,6.181560707296268,145.29955354315285,9.967467141795552,15.759949335481268,39.29061450563985,41.23615317437568,45.34081022054917,65.56535241668331,49.83733570897776,51.8017000235933,56.68865285600782,43.00518492524725,4.886952832414522,14.660858497243453,0.9773905664828816,0.9773905664828816,19.54781132965786,19.934934283591105,18.57042076317498,50.82430945711047,74.28168305269992,61.72281401528613,{}
182,57,759,0,25.325299999999604,4.243616831260071,136.9709095897152,7.8248428071035745,15.300578078529862,36.10816732934564,36.10816732934564,44.30466042472573,64.02097621312744,48.79236743339151,49.3428816668295,49.3428816668295,39.85386596167007,0.9489015705158864,18.029129839803204,0.948901570516,4.744507852579773,20.875834551350977,19.35387049815876,18.97803141031909,47.44507852579767,70.21871621818053,61.46655955439505,{}
183,57,760,0,25.35866666666627,1.9359170330200184,137.94003207955168,9.871278728065588,17.848273151558605,36.83333358064129,40.70032485572761,45.19443819223415,70.99828906742242,53.158462807794734,53.23771840805023,54.20567692456029,42.590174726440296,3.871834066039924,21.295087363220205,1.9359170330200184,1.9359170330200184,21.29508736322009,19.742557456131333,20.32712884671014,48.397925825500295,69.69301318872039,62.70100255909085,{}
184,57,761,0,25.392033333332936,3.904669573920728,144.9468885333848,13.805091670060444,21.56424254839026,41.04548836603051,44.94612212192494,45.57771451712575,77.0368646456004,55.53011251909837,56.61770882184959,54.665374034889226,42.95136531312727,3.9046695739206143,27.33268701744464,3.904669573920728,5.857004360880978,21.475682656563663,21.827766492404344,20.49951526308348,48.808369674008304,72.23638711753227,63.23274519798921,{}
185,57,762,0,25.4253999999996,1.935917033019905,147.7524550376169,11.775723590220178,21.38290252902801,40.70032485572761,42.63415013797555,42.984333844522304,76.38903913097417,55.06314357007082,54.20567692456029,54.20567692456029,40.65425769342028,4.83979258254999,28.0707969787901,4.83979258254999,2.903875549529971,23.23100439624011,20.211567200549613,19.35917033020013,48.397925825500295,69.69301318872039,62.70100255909085,{}
186,57,763,0,25.458766666666268,1.9343771039195872,147.3304705068057,11.76635656718885,21.62699349241708,44.53270521189157,44.49067339015073,42.95014186964946,76.64626021447076,55.019343481690285,54.16255890974878,52.2281818058292,42.55629628623126,4.835942759798968,28.04846800683424,4.835942759798968,2.9015656558793808,19.440249298736003,19.7268531990663,19.343771039195985,46.42505049407043,69.63757574110565,68.39055837767721,{}
187,57,764,0,25.492133333332934,1.888873949937306,134.76026872058347,11.489571687134218,21.11825276494026,41.59813370085679,43.44410084855508,42.236505529880574,75.19996014640401,54.08911845256897,52.88847059824087,54.77734454817795,41.55522689861783,6.611058824780116,25.49979832415181,2.833310924905732,0.9444369749685392,18.98294826084388,19.262810258893428,18.88873949937169,45.33297479849216,67.99946219773818,64.66462792080745,{}
188,57,765,0,25.5254999999996,4.408399389981063,138.69303707372666,10.05269729695709,22.04199694990585,39.62658202106476,41.44833277771544,46.40350803678282,82.75588424994932,60.73360179888128,57.17338810620572,57.17338810620572,43.37291511505259,4.928740353983244,30.558190194696067,6.900236495576564,0.9857480707966032,21.77588662788972,20.105394593914223,19.714961415932976,45.344411256645856,69.00236495576542,67.49315614611463,{}
189,57,766,0,25.558866666666265,4.306406183862539,135.3061584052539,7.94062065265609,23.1907070265626,42.54415470910088,42.41318214163689,44.960200511392046,78.56093602135917,55.584344568593465,52.96179331213057,55.85061840188325,44.29531804287296,5.7776501795051445,26.962367504357417,1.9258833931683057,1.92588339316842,19.354888562124607,17.75576756287804,18.2958922350997,46.221201436041326,65.48003536772518,63.81623206365133,{}
190,57,767,0,25.59223333333293,5.348449205896861,138.67343748332823,9.64205392803803,20.886361838479573,39.88989449736311,41.77272367695917,45.73627760215949,80.51592455091621,59.7077163996986,56.72887053482225,56.72887053482225,43.49213407669697,4.7274058779019015,29.309916442991494,6.618368229062639,0.945481175580312,18.90962351160738,17.433811463593507,17.96414233602701,47.2740587790185,66.18368229062588,62.8585011587584,{}
191,57,768,0,25.6255999999996,1.874961091299156,137.33370066627634,7.73066262334928,20.962702276559124,37.54606659355925,37.54606659355925,45.34925875825178,74.29200614736325,53.32937827270423,52.49891055637295,50.62394946507391,39.37418291727965,0.0,28.12441636948552,5.624883273897126,3.749922182598084,16.874649821691264,19.120926383521965,18.749610912990303,44.99906619117684,67.49859928676523,67.9139792029408,{}
192,57,769,0,25.658966666666263,2.6597896571898816,145.4153491563259,9.403776515643813,21.02748353419559,41.54724261609315,43.29823865275426,45.48940204591022,77.93229084335972,56.9219843943112,55.48228144229836,54.541903790733954,41.37661666883264,2.821132954693212,29.15170719849573,6.582643560950601,0.9403776515642904,18.80755303128757,19.180015981893263,18.80755303128757,43.25737197196139,63.94568030637771,62.519203160491855,{}
193,57,770,0,25.69233333333293,1.864584053467297,135.0762138126104,9.507550473364017,20.59500401743728,39.33344369792592,41.19000803487475,43.24870456482223,73.5743225530244,53.03422496075347,52.208353497085966,55.937521604020674,41.02084917628184,5.593752160402119,24.239592695075544,1.864584053467297,0.0,18.6458405346736,19.01510094672796,18.64584053467354,41.020849176281786,63.39585781789003,65.92300141495336,{}
194,57,771,0,25.725699999999595,1.863956373493238,142.88170924507156,9.504349920927773,20.83966579112445,41.176142131040365,41.17614213104013,43.234145636405565,73.85596373204532,53.01637190613355,52.19077845781106,57.78264757829078,39.14308384335828,5.591869120479714,24.23143285541232,3.72791274698659,0.0,18.63956373493255,19.46027585850692,18.63956373493249,39.14308384335823,65.23847307226379,65.90080957664816,{}
195,57,772,0,25.75906666666626,3.7425287957082674,143.44190637562113,7.715420765810781,22.533007228688508,43.2014933547289,45.06601445737679,41.54881238027911,72.30445530455486,49.93156194266143,48.65287434420986,54.26666753777249,35.554023559230245,3.742528795708381,26.19770156995924,3.742528795708495,0.0,18.80597445266661,17.252205307366417,18.712643978542246,39.29655235493868,65.4942539248978,66.15918725578408,{}
196,57,773,0,25.792433333332927,2.60884052328593,141.4078201426898,7.606011796301374,20.624695264322256,44.42695323812057,44.4269532381208,39.13260784928805,69.46573725974835,48.84178673038527,47.04058503876729,53.49713592644128,35.04984767594431,5.534186475149113,23.98147472564608,1.8447288250496283,1.8447288250497424,18.53929524644599,17.007559414195384,17.524923837972096,38.73930532604368,66.41023770178919,65.22101308214665,{}
197,57,774,0,25.825799999999592,5.2905933795234565,152.66135312595088,9.352536137904169,20.912906566377004,46.91208260591084,46.91208260591085,41.82581313275389,76.30202283000772,55.39354855896984,52.374202372263085,56.11521682742477,37.41014455161644,5.611521682742477,28.057608413712387,5.611521682742477,1.870507227580788,20.575579503389065,19.528668783076288,19.64032588959861,39.28065177919734,65.46775296532888,62.43124361498309,{}
198,57,775,0,25.85916666666626,4.185877857426629,150.70322985729712,9.54527013100896,22.773637692382906,43.21804864192287,43.218048641922856,41.56473434195455,77.86182896197575,55.08844270207175,52.41548163441604,54.28746312135951,37.43962973886863,4.679953717358558,30.887694534566663,6.551935204302026,0.9359907434717344,16.847833382490876,17.25881654210422,16.847833382490876,41.183592712755456,65.51935204302004,62.48044943683801,{}
199,57,776,0,25.892533333332924,4.187391380721746,152.61878374133678,9.548721495141772,20.684187594352245,43.43598659529732,45.09958539432185,41.36837518870447,73.8929251252218,53.2638817200775,51.49810476629739,54.30709229900458,37.45316710276177,4.68164588784532,27.153546149502176,6.554304242983221,0.936329177569064,18.726583551380884,19.55112721411388,19.662912728950005,41.19848381303797,67.41570078497125,62.50304102190782,{}
200,57,777,0,25.92589999999959,5.2755025464650425,144.39128532252775,9.510547467560368,22.45964278454569,43.06083509664824,46.66658383645311,39.34584248590157,75.44153097321026,53.05094254377992,50.35963893442687,52.22481074681304,37.3034362477236,5.595515437158497,29.84274899817899,5.59551543715861,1.1368683772161605e-13,18.651718123861823,19.021094935120725,18.651718123861883,42.89895168488215,65.28101343351636,62.0011839253135,"{'neutral': (['m1', 'm3', 'm12', 'e1', 'e2'], 1.692096695548261, 72)}"
201,57,778,0,25.959266666666256,7.718377399868562,150.70322985729734,9.54527013100896,20.67671134078118,47.13528945332754,46.94905684262118,41.56473434195455,79.42144822040252,58.78141102282685,54.28746312135951,56.15944460830286,39.31161122581199,6.551935204302026,30.88769453456655,8.423916691245381,2.807972230415203,20.676711340781235,19.544060502695565,18.719814869434344,39.31161122581205,65.51935204302004,66.18454018366877,"{'neutral': (['m1', 'm3', 'm12', 'e1', 'e2'], 1.692096695548261, 72)}"
202,57,779,0,25.99263333333292,4.16485939411724,146.04351310138335,9.497340660331515,24.28509477589225,44.85690847172744,46.60178035601624,39.81744987855048,77.47086294457604,53.33622426394411,50.289707098663655,54.01487058745357,39.11421663229402,7.450326977579834,29.801307910319224,3.725163488789804,1.862581744395016,20.488399188344488,18.994681320663087,18.62581744394953,42.83938012108388,67.05294279821823,64.0088892352264,"{'neutral': (['m1', 'm3', 'm12', 'e1', 'e2'], 1.692096695548261, 72)}"
203,57,780,0,26.025999999999588,8.374782761443493,152.61878374133678,11.235950130828542,22.549792697160928,43.23367535765964,43.23367535765964,41.87391380721704,83.43318219036694,60.96933880216024,56.1797506541426,56.17975065414271,39.325825457899896,6.554304242983449,34.644179570054575,12.172279308397492,0.9363291775691778,20.599241906518955,19.55112721411388,19.66291272894989,44.94380052331411,65.54304242983312,64.35517882110099,"{'neutral': (['m1', 'm3', 'm12', 'e1', 'e2'], 1.692096695548261, 72)}"
204,57,781,0,26.059366666666254,1.873294870301379,150.8089633356723,13.246195059520083,22.789615690536912,46.981996329658735,46.981996329658735,43.24837045132151,79.47717035712037,56.69619072499423,56.1988461090383,61.818730719942096,44.959076887230594,10.303121786657016,25.28948074906725,0.9366474351506896,2.809942305451841,20.606243573314032,20.94407335947652,19.6695961381634,41.212487146628064,63.69202559024342,62.271206882172,"{'neutral': (['m1', 'm3', 'm12', 'e1', 'e2'], 1.692096695548261, 72)}"
205,57,782,0,26.09273333333292,6.754260708934876,147.0864561484622,11.239769221807704,20.94407335947652,43.24837045132162,43.24837045132139,41.59389618502762,79.76365491687923,58.822652096804624,55.26219867388761,56.1988461090383,39.3391922763268,6.556532046054485,30.909365359971048,8.42982691635575,0.9366474351505758,18.732948703012767,19.103934196758946,19.6695961381634,43.08578201692933,63.69202559024336,60.411944331737445,"{'neutral': (['m1', 'm3', 'm12', 'e1', 'e2'], 1.692096695548261, 72)}"
206,57,783,0,26.126099999999585,4.191389461627585,148.83859454326276,9.55783852233482,22.57132302175172,45.14264604350343,45.02574646174797,41.6194632117916,76.11729438938646,53.67597490053743,51.54727466006631,52.48449783570396,37.48892702550273,3.7488927025503926,29.99114162040223,5.623339053825362,0.0,18.744463512751395,19.115677044669443,19.681686688389,44.98671243060335,65.60562229462988,62.30948388334328,"{'neutral': (['m1', 'm3', 'm12', 'e1', 'e2'], 1.692096695548261, 72)}"
207,57,784,0,26.15946666666625,2.6515954042368834,144.96735502604068,7.73066262334928,20.70962214657722,43.28683815019125,45.15504262486584,41.63089229509058,72.13119338365466,51.48466992017611,49.68646891942433,48.748988373774864,35.624260734681684,0.9374805456495778,29.06189691513498,6.56236381954659,2.812441636948506,13.257977021184749,13.649922782782294,13.124727639093235,44.99906619117684,63.7486771041672,62.57989861439674,"{'neutral': (['m1', 'm3', 'm12', 'e1', 'e2'], 1.692096695548261, 72)}"
208,57,785,0,26.19283333333292,6.763538492975669,148.62037549040335,9.37934032307612,20.71963999428766,45.17688543480088,46.93420398172241,41.6510303708175,77.72977981355012,57.05229987612308,53.46223984153437,48.7725696799962,37.51736129230483,1.875868064615133,33.76562516307433,11.255208387691482,1.875868064615247,16.88281258153711,15.46880434026322,14.069010484614296,46.896701615381005,65.65538226153336,62.15891998286296,"{'neutral': (['m1', 'm3', 'm12', 'e1', 'e2'], 1.692096695548261, 72)}"
209,57,786,0,26.226199999999583,5.234239225902231,142.68703179019428,9.436158958517504,20.440357608860023,44.45252970597134,46.26457563735039,41.0896113924622,75.14825529559947,54.80350953665505,51.81632471383239,48.11515866284435,40.71282656086828,3.701166050988036,29.60932840790417,5.551749076481997,1.850583025493961,12.954081178458068,13.472447784833692,12.028789665711145,49.96574168833837,64.77040589229046,59.67950934463568,"{'neutral': (['m1', 'm3', 'm12', 'e1', 'e2'], 1.692096695548261, 72)}"
210,57,787,0,26.25956666666625,2.642668619276475,147.81237233009125,9.343244505596545,22.501512477384424,44.88648693017288,46.71622252798284,41.78425968983057,75.58217050872906,53.14984111890088,51.387844780781,46.716222527982666,39.24162692350541,1.8686489011192864,31.76703131902821,7.474595604477258,1.8686489011192864,13.080542307835117,13.60396934463186,13.080542307835117,56.05946703357921,69.14000934141438,63.78090430322672,"{'neutral': (['m1', 'm3', 'm12', 'e1', 'e2'], 1.692096695548261, 72)}"
211,57,788,0,26.292933333332915,13.154194501376956,145.14984582717236,7.441136106376462,22.32340831912927,40.968505951603376,44.64681663825854,37.62191613643397,80.33756699176396,58.14689636111566,51.15781073133769,44.64681663825843,40.9262485850702,5.580852079782289,37.20568053188208,11.161704159564692,1.8602840265940583,13.021988186158694,13.154194501377011,13.021988186158753,59.52908885101124,72.55107703716993,61.50201402347773,"{'neutral': (['m1', 'm3', 'm12', 'e1', 'e2'], 1.692096695548261, 72)}"
212,57,789,0,26.32629999999958,15.33764138462126,150.94369811290565,7.439848879604369,22.396910983919582,42.81954592839006,46.53623987411984,39.23594601203672,84.21337121794784,61.82800904689322,53.93890437713213,48.3590177174288,39.05920661792328,4.649905549752702,39.989187727873855,15.809678869159484,0.9299811099505176,13.01973553930776,13.540729350790228,13.019735539307703,61.378753256736616,72.53852657614323,63.484409663084,"{'neutral': (['m1', 'm3', 'm12', 'e1', 'e2'], 1.692096695548261, 72)}"
213,57,790,0,26.359666666666246,22.820919950449216,157.97437774057173,7.503472258460988,20.634548710767604,46.934203981722185,50.68316413727182,39.571480173861055,90.35377086960182,69.81153328242407,58.15191000307249,50.6484377446115,39.39322935692002,5.627604193845741,45.0208335507657,20.634548710767604,3.751736129230494,13.131076452306672,13.26439029100722,13.131076452306672,60.02777806768762,71.2829864553791,62.15891998286296,"{'neutral': (['m1', 'm3', 'm12', 'e1', 'e2'], 1.692096695548261, 72)}"
214,57,791,0,26.393033333332912,22.50151247738452,149.91176849717854,7.704636796509188,20.55513791231237,48.620793704936965,50.4881130804838,39.41919175308147,90.00604990953772,69.54286786710293,57.92811593469844,52.32216923134058,41.11027582462475,7.474595604477258,42.97892472574404,18.68648901119297,3.737297802238686,13.080542307835117,13.603969344631851,13.080542307835117,59.79676483581778,72.87730714365296,63.78090430322695,"{'neutral': (['m1', 'm3', 'm12', 'e1', 'e2'], 1.692096695548261, 72)}"
215,57,792,0,26.42639999999958,19.13775337411349,150.5505344715376,7.506444453917766,20.64272224827392,46.9527950583652,48.827964289183726,37.952111033972,84.96718193532638,64.49101805157069,54.42172229090397,50.668500063944975,39.40883338306833,7.506444453917652,39.40883338306844,16.889500021315143,3.753222226958769,13.136277794356149,13.2696444399135,13.136277794356031,58.1749445178628,71.31122231221894,65.9222259993052,"{'neutral': (['m1', 'm3', 'm12', 'e1', 'e2'], 1.692096695548261, 72)}"
216,57,793,0,26.459766666666244,17.3858920358453,149.2734982835219,5.657294278382551,20.743412354069164,45.29762395612004,47.18181920764864,40.00311147412113,83.50765962267042,62.94048874150199,53.74429564463367,49.02988374598158,39.6010599486774,4.714411898652088,38.65817756894705,16.029000455417076,2.8286471391912755,15.203521543431412,13.33437049137372,13.2003533162258,58.4587075432857,69.77329610005069,62.48685768520248,"{'neutral': (['m1', 'm3', 'm12', 'e1', 'e2'], 1.692096695548261, 72)}"
217,57,794,0,26.49313333333291,9.61694073668694,147.41284513141218,7.544148996527952,18.95443977057753,43.41983818152829,43.41983818152806,42.1730749715585,78.15115724849942,59.2227709081718,53.75206160026187,49.036968477431856,39.60678223177183,2.829055873697939,33.00565185980997,12.259242119357964,0.9430186245659796,15.08829799305596,13.336297284316586,13.202260743923944,58.46715472309188,67.89734096875185,62.353429737977706,"{'neutral': (['m1', 'm3', 'm12', 'e1', 'e2'], 1.692096695548261, 72)}"
218,57,795,0,26.526499999999576,2.655331938795841,140.87030203791824,7.510412880894933,20.7388054144043,41.30727084492173,43.18487406514532,43.347836433123724,73.61066737530439,52.87378674832565,51.634088556152165,46.940080505592846,43.18487406514544,1.8776032202237047,28.1640483033558,5.632809660671228,3.7552064404474095,13.143222541566049,15.483112799964497,14.0820241516779,56.32809660671148,65.71611270783006,60.20053887189985,"{'neutral': (['m1', 'm3', 'm12', 'e1', 'e2'], 1.692096695548261, 72)}"
219,57,796,0,26.55986666666624,2.6675856600258,141.67115225658114,7.5450716384006,22.71367343439115,41.54074161581452,43.425148384286345,45.4273468687822,77.70416491834992,54.99368720834456,53.75863542360446,49.04296564960407,41.49789401120347,0.0,32.06655446320269,7.5450716384006,3.772535819200357,15.090143276801255,17.080882395138776,16.033277231601346,52.81550146880437,62.24684101680515,62.3610555000359,"{'neutral': (['m1', 'm3', 'm12', 'e1', 'e2'], 1.692096695548261, 72)}"
220,57,797,0,26.593233333332908,3.772074498263919,150.98903225490156,11.316223494791984,20.74640974045189,45.26489397916794,47.15093122829967,43.746307727064256,76.02859212697052,55.50207395609818,54.69508022482791,45.26489397916788,39.60678223177189,0.9430186245659796,33.00565185980986,8.487167621093931,8.487167621093931,15.08829799305596,15.552661584041209,16.031316617621997,50.92300572656387,60.35319197222384,58.58870819052438,"{'neutral': (['m1', 'm3', 'm12', 'e1', 'e2'], 1.692096695548261, 72)}"
221,57,798,0,26.626599999999573,4.19752366680374,157.96302740403874,9.38594825613734,20.64908616350204,50.71887144124074,50.71887144124074,43.33828845141474,75.46209004836514,54.95390546249545,53.49990505998272,43.17536197823159,33.78941372209425,4.692974128068613,36.605198198935454,12.201732732978485,10.324543081751017,13.273735319561451,13.273735319561489,13.14032755859222,52.56131023436888,60.07006883927875,58.464739433912,"{'neutral': (['m1', 'm3', 'm12', 'e1', 'e2'], 1.692096695548261, 72)}"
222,57,799,0,26.65996666666624,4.19803221378678,165.47916675027395,13.141919562465546,20.73674943232404,48.848934921511095,50.69026116951,39.82603045897522,77.54437109473943,56.820951439904775,54.44509533021454,41.303175767749,31.916090365987827,2.8161256205282825,40.364467227572845,17.83546226334613,10.325793941937263,16.896753723170036,15.48157785126186,15.019336642817848,54.44509533021454,61.954763651623466,61.98320283772158,"{'neutral': (['m1', 'm3', 'm12', 'e1', 'e2'], 1.692096695548261, 72)}"
223,57,800,0,26.693333333332905,13.209884030524268,162.70158934796893,5.604479146003087,18.77477277949866,48.60806547058499,50.47489600839776,39.62965209157292,77.16200717794122,58.3930667578958,51.37439217169401,39.23135402202081,31.75871516068355,3.7363194306686864,41.09951373735532,18.68159715334332,5.604479146003087,16.813437438008975,17.223581548848465,15.879357580341775,50.44031231402681,57.91295117536413,58.03335245122488,"{'neutral': (['m1', 'm3', 'm12', 'e1', 'e2'], 1.692096695548261, 72)}"
224,57,801,0,26.72669999999957,15.126892684495068,165.20680775601514,7.736018652928649,22.515121431369263,50.65902322058105,52.535283339861735,37.71236166328253,82.89588151842808,60.5075707379801,52.535283339861735,39.40146250489636,33.77268214705396,0.9381300596403436,45.96837292237899,21.576991371728923,4.690650298201945,15.010080954246234,17.298263583154775,15.948211013886578,52.53528333986179,60.04032381698488,60.15747577973328,"{'neutral': (['m1', 'm3', 'm12', 'e1', 'e2'], 1.692096695548261, 72)}"
225,57,802,0,26.76006666666624,16.84067168818234,163.75228735004978,5.579223223954386,18.69016648773661,50.2130090155888,52.07275009024033,37.61093561294352,78.66067220047151,59.97484755575054,51.142879552914565,37.19482149302871,31.61559826907444,2.789611611977193,43.70391525430887,21.387022358491663,4.649352686628731,14.87792859721145,16.84067168818234,16.737669671862932,53.9324911648917,59.51171438884603,59.6278349175833,"{'neutral': (['m1', 'm3', 'm12', 'e1', 'e2'], 1.692096695548261, 72)}"
226,57,803,0,26.793433333332903,16.838305952452618,160.0125335454864,7.43791929137808,20.53862594749317,46.52417030362018,50.20595521680207,37.605652122127175,82.34367905237599,61.81197342570693,52.99517495106886,39.04907627973489,33.4706368112013,0.9297399114223026,45.55725565969078,21.38401796271205,2.789219734266794,16.73531840560065,18.68754093957132,17.665058317022954,52.065435039646616,59.503354331024696,57.67385832009508,"{'neutral': (['m1', 'm3', 'm12', 'e1', 'e2'], 1.692096695548261, 72)}"
227,57,804,0,26.82679999999957,22.27991740081657,161.06711352331646,5.85099295662103,20.43663980836437,49.99090573519612,51.806900086269934,35.34890844301463,83.77347019538938,63.34223470475127,51.80690008627016,38.85517506470262,33.304435769745055,0.925123215826261,47.181284007138856,23.128080395656298,0.925123215826261,18.50246431652505,18.86888531990309,17.57734110069879,53.65714651792263,59.207885812880136,57.476886161467874,"{'neutral': (['m1', 'm3', 'm12', 'e1', 'e2'], 1.692096695548261, 72)}"
228,57,805,0,26.860166666666235,20.79500979640142,160.0540449263852,5.579886659703334,20.459584418912183,48.35901771742874,50.25341187825373,37.38477793998011,84.02830925799209,63.67484971703104,53.00892326718156,39.05920661792322,33.47931995821989,0.9299811099506314,47.42903660747834,23.249527748763853,2.789943329851667,16.84267424358959,16.84267424358959,16.73965997911,53.93890437713213,59.51879103683547,57.77870177131344,"{'neutral': (['m1', 'm3', 'm12', 'e1', 'e2'], 1.692096695548261, 72)}"
229,57,806,0,26.8935333333329,18.60370480859004,157.44468527531382,7.404551264094266,18.60370480859006,48.12958321661222,49.98072103263576,37.20740961718008,81.7859418821908,63.18321425986491,53.68299666468306,38.87389413649464,33.32048068842391,0.9255689080116554,45.35287649257691,23.13922270029434,4.627844540058845,18.51137816023549,18.60370480859004,18.51137816023549,53.682996664683,57.38527229673008,59.35199346190485,"{'neutral': (['m1', 'm3', 'm12', 'e1', 'e2'], 1.692096695548261, 72)}"
230,57,807,0,26.926899999999566,15.126684673209688,157.79933087627953,7.337519843888799,18.43529044964737,47.72914248657217,47.72914248657217,37.09803883034144,77.82615058057006,59.41239250725414,51.36263890722205,34.85321925847211,31.18445933652765,3.668759921944456,44.025119063333136,22.012559531666625,7.337519843888913,18.34379960972217,16.611017036284895,16.50941964874994,49.52825894624982,56.865778790138734,57.13143920802212,{}
231,57,808,0,26.960266666666232,4.178425968983007,157.14437348218323,9.528277210861066,18.77968903579328,43.14110992364231,44.84757362686332,43.14110992364233,73.73471672335828,54.99037177321775,53.256493681900224,37.37297802238618,29.89838241790892,9.34324450559643,39.24162692350535,16.81784011007369,13.080542307835117,16.921335487592625,18.77968903579328,18.68648901119309,50.453520330221295,57.92811593469855,61.77856138022519,{}
232,57,809,0,26.99363333333289,6.769123548641932,148.42285230040943,5.632251241056679,20.73674943232404,43.22138699309742,45.09710582294839,45.21419067380285,77.54437109473949,56.82095143990483,53.506386790038505,45.05800992845343,39.42575868739675,2.8161256205282825,34.73221598651617,12.203211022289452,4.693542700880471,18.86780814650781,17.308930237188342,16.89675372316998,50.69026116951011,60.07734657127122,62.068442212632526,{}
233,57,810,0,27.026999999999564,6.702132874284832,145.2868875865056,7.435348840986762,20.447209312713653,42.79364626115419,44.6120930459208,41.06305611871207,73.08800412454622,52.87076792827927,50.18860467666093,46.47093025616744,37.176744204933925,0.92941860512326,30.670813969070537,8.364767446110136,0.9294186051233736,18.681082762890643,17.137632298739735,16.729534892220272,48.32976746641418,59.482790727894326,61.45418147854644,{}
234,57,811,0,27.06036666666623,4.213328352245842,141.63302389745812,5.9585460984771546,22.689467563416432,45.261423660364485,45.26142366036471,41.83731098264467,74.35062265586903,51.73994664878294,48.99070075717452,47.106443035744746,37.68515442859575,0.9421288607147744,31.09025240359153,6.59490202500433,0.9421288607150018,16.9583194928681,17.37199783171933,16.9583194928681,48.99070075717452,62.18050480718301,58.684873229348696,{}
235,57,812,0,27.093733333332896,4.133387297353006,142.63480524347702,9.425573237717906,25.945032042124087,42.51566088139202,46.212674871078434,37.15453076589087,74.76748081842668,48.94181908244496,47.136928368499866,44.36416787623512,35.12163290201954,2.772760492264638,34.197379404598,6.469774481951049,2.7727604922647515,9.42557323771785,9.42557323771795,9.24253497421563,48.06118186592141,61.00073082982334,63.09341881790322,{}
236,57,813,0,27.12709999999956,10.0410924246765,145.62866999294127,7.687877000288379,24.31120169213381,44.78884593892345,48.47918539015132,35.86599038371241,77.55414552381721,53.39356166996814,47.54689336341755,41.020849176281786,33.56251296241237,1.8645840534674107,39.15626512281449,11.187504320804123,1.8645840534674107,5.896332497785998,3.729168106934708,3.729168106934708,46.614601336683904,61.531273764422735,63.5054445164816,{}
237,57,814,0,27.160466666666228,9.44972030036896,148.44461845485532,11.27283478944395,26.011499756968053,44.51641544106287,48.18430820957519,35.98346286074313,82.56814651781755,56.69832180221373,50.964172144742975,38.918095092349176,31.505124598568383,1.1368683772161605e-13,46.33106558613008,18.532426234452146,7.412970493780904,4.143976484823571,2.620880852444013,1.853242623445169,46.33106558613008,63.010249197136886,63.25505574954061,{}
238,57,815,0,27.193833333332893,9.46038767962127,152.31834353752942,9.46038767962127,26.04086301048331,46.4204585784628,48.27436771206457,33.85668061063079,78.71518353378968,52.771145398868725,47.31103405022338,31.540689366815627,24.1193506922707,5.566004005908667,50.094036053177774,22.26401602363456,11.132008011817334,4.148654440082623,4.148654440082623,2.7830020029543334,44.52803204726911,63.08137873363125,61.47852366837138,{}
239,57,816,0,27.22719999999956,7.609006337046085,156.90710063293386,11.225465181443726,25.90219676708097,44.29092258866149,46.1732720468377,31.589103099851364,76.22422168216288,50.3711216231258,46.13637769652212,23.990916402191488,20.300006186469773,9.2272755393044,53.518198127965775,23.990916402191488,16.609095970747944,5.219735284575095,4.126563070601135,3.690910215721829,46.13637769652223,62.74547366727023,61.15115372200731,{}
240,57,817,0,27.260566666666225,4.150038582569247,168.90198175349605,9.279768379871824,24.198675336713634,50.11074925130788,51.966702927282086,29.92635380921506,67.22550133795913,43.04852445184576,40.83098087143605,16.70358308376933,14.847629407795012,13.91965256980768,51.03872608929498,23.199420949679507,19.48751359773076,3.711907351948639,1.8559536759743764,1.8559536759743764,46.39884189935907,59.39051763117965,61.35885024808966,{}
241,57,818,0,27.29393333333289,9.31318055971973,173.52378554284144,9.13232488608162,25.5705096810284,49.34836621903895,51.1410193620568,25.5705096810284,69.42969740883079,43.87319430585975,39.26899701015077,10.958789863297966,12.7852548405142,13.698487329122372,57.533646782313895,28.31020714685292,19.17788226077129,5.479394931648983,5.479394931648926,5.479394931648926,45.66162443040781,51.14101936205674,62.126663198166696,{}
242,57,819,0,27.32729999999956,11.15528277556363,173.1765585940309,11.155282775563668,27.56982067182309,49.8204794389402,53.46741461113635,20.256277454722657,70.07387749234867,42.53739200442156,36.67834382815124,0.0,16.50525472266804,11.92046174414918,61.4362259121533,28.42571646681722,21.09004770118701,1.8339171914075223,1.833917191407636,0.9169585957037611,49.51576416800418,47.6818469765966,62.35318450785712,{}
243,57,820,0,27.360666666666223,14.71837496373402,178.02074252514834,5.773021626804213,21.983011422493146,49.59425438820461,53.2246295412349,22.209257637582866,64.54434396555345,42.618821421332704,34.68620491201273,5.476769196633541,12.77912812547845,18.25589732211188,60.24446116296929,31.03502544759021,23.73266651874541,1.8255897322111423,2.5817737586221847,1.825589732211256,52.94210223412466,43.814153573068666,62.17734579098491,{}
244,57,821,0,27.39403333333289,13.368411882070513,170.88377479718713,3.672585190439008,20.530375347452107,50.12103369811238,53.75666204700824,24.499198928862125,61.94596373940594,41.42864929111752,33.97141301156171,7.34517038087813,18.36292595219561,18.362925952195496,55.08877785658649,27.544388928293188,22.035511142634505,1.8362925952194475,3.672585190439122,0.9181462976097804,60.59765564224534,42.23472969004979,62.67651575331675,{}
245,57,822,0,27.427399999999555,15.122073921164397,180.28426743209187,4.100548023607231,19.145651497068865,49.817861538417645,53.96545540496278,24.94265987168629,63.23358834932227,44.08804279230222,34.84259567799495,7.335283300630408,22.005849901891565,16.504387426418475,53.18080392957097,25.673491552206656,20.1720290767338,2.5934142819000607,4.10054802360718,3.6676416503153177,64.18372888051687,40.34405815346776,64.60152810969875,{}
246,57,823,0,27.46076666666622,3.64473202964723,164.79066509590982,4.07493428903084,15.570302055991885,47.9389651666874,49.74091202951559,27.75745216946724,48.89921146837039,33.45419300474264,29.15785623717693,9.111830074117734,20.0460261630592,20.04602616305908,38.26968631129466,16.401294133411966,23.6907581927062,3.6447320296470025,4.074934289030967,1.822366014823558,63.78281051882448,38.26968631129472,69.63250765480521,{}
247,57,824,0,27.494133333332886,1.7600663205485034,117.01463097007206,6.346009366954647,18.37563186253635,36.751263725072846,38.96072884119606,32.31052264463818,57.46555890800262,39.55257126443421,33.44126009042077,15.84059688493619,58.08218857809925,8.80033160274229,14.080530564387686,12.320464243839185,0.0,7.467328983587334,11.13163681177024,10.560397923290736,63.36238753974459,33.44126009042077,55.57463407320651,{}
248,57,825,0,27.527499999999552,3.8792558400227,125.89365658665665,8.8460643529324,23.596592069130413,36.801852242944335,40.50061999631794,26.424538604808955,62.55112090771041,38.986038694734766,34.69711904161511,10.4091357124845,36.4319749936958,0.8674279760402896,35.564547017655286,7.806851784363289,9.541707736444096,4.90691363239265,6.255112090770978,4.337139880201846,64.18967022698774,31.227407137453497,58.18883760034017,{}
249,57,826,0,27.56086666666621,14.77226265922618,151.63542124044875,5.066844290821643,19.293968240819684,43.91671030417464,47.80051343867968,30.45379963667855,68.9398118749846,49.67704274971344,37.61939955119124,1.7913999786280783,35.827999572563044,9.852699882454772,45.680699455017816,18.809699775595504,15.226899818339234,5.374199935884462,4.005692127104104,1.7913999786281352,66.28179920924157,32.24519961530672,54.8063006860477,{}
250,57,827,0,27.594233333332884,5.259466313236658,126.87080925040428,3.9201747339223374,19.989047464964003,36.98285447418935,40.92782579063705,30.617543445115267,58.2775870959922,38.44970050155599,32.43337559829274,7.012621750982248,31.556797879419832,8.765777188727725,35.06310875491101,8.765777188727725,10.518932626473315,5.543964275585597,6.321091824650022,3.506310875491124,68.37306207207638,33.30995331716542,60.52831035775696,{}
251,57,828,0,27.62759999999955,5.239725067194854,110.2972843897617,3.9054604778858,20.4431365087304,31.63181900093491,33.36826895024591,28.216783030918307,57.45143429186575,37.00926120149725,32.31163791436836,10.479450134389822,31.43835040316924,5.239725067194854,33.184925425567485,8.732875111991461,8.732875111991461,5.523155175138081,4.9400601687554255,3.493150044796608,69.86300089593158,34.93150044796579,58.58190716828685,{}
252,57,829,0,27.660966666666216,5.259466313236658,130.65419570122032,4.958672394015668,20.52015829565801,38.92636788253046,40.66413709924824,29.01988616376233,58.93314863006538,38.44970050155599,32.43337559829274,5.259466313236658,31.556797879419943,7.889199469855043,35.93968647378381,11.39551034534611,11.39551034534611,3.920174733922312,5.543964275585578,1.7531554377455336,66.61990663433085,31.556797879419832,57.42754939997221,{}
253,57,830,0,27.69433333333288,3.953426232803213,145.97728583207757,6.374708255548796,22.36395598508729,41.00905629316602,43.01792825114671,30.92782296681797,62.50915728558552,40.70301428261698,32.70848026214162,3.536051920231557,31.82446728208368,8.840129800578893,37.12854516243101,10.608155760694558,14.144207680926115,3.53605192023133,6.374708255548953,3.5360519202315004,65.41696052428313,37.12854516243101,57.01712398454499,{}
254,57,831,0,27.727699999999547,3.95578409903735,143.99271469630474,7.294105472905538,21.88231641871667,41.03351453860666,43.04358460958581,32.475999696614416,64.12764049829252,42.78834721123356,36.26614881401781,7.076321719808334,33.612528169089614,7.960861934784475,38.035229243969866,11.499022794688583,15.037183654592807,3.955784099037376,5.003715073934085,3.538160859904167,65.45597590822723,38.91976945894595,59.04595805260822,{}
255,57,832,0,27.761066666666213,7.406137602408431,151.19493525723,5.6802482436331925,22.72099297453295,43.4455449545056,47.252018280317365,32.97480731836583,68.39924645672838,45.795625414491234,37.72129646260919,8.98126106252596,34.12879203759883,7.185008850020836,41.31380088761978,14.370017700041672,12.573765487536434,2.5402842403676256,5.080568480735131,3.592504425010361,64.66507965018741,41.31380088761972,61.49377039025801,{}
256,57,833,0,27.79443333333288,5.577927191617254,144.43492898781815,5.577927191617254,21.818181818181763,40.72268881766775,44.65826597052801,31.55352113725916,64.20676372108512,42.6264597461602,36.15985682359883,8.819477274048495,29.986222731764883,8.819477274048495,40.56959546062296,12.347268183667891,14.111163638477592,2.494524874800135,3.944190142157395,3.527790909619398,59.9724454635296,38.805700005813264,61.96271245325605,{}
257,57,834,0,27.827799999999545,3.615507630310958,141.74449995669642,5.716619504750257,22.36067977499789,41.61761818978643,43.72373160976035,31.571063113930663,62.88281455225327,40.624214421766034,36.15507630310936,14.46203052124372,28.92406104248755,7.231015260621916,37.96283011826483,10.84652289093276,10.84652289093276,5.113099925649127,5.71661950475024,6.32713835304412,59.65587590013047,45.19384537888675,61.56987634552007,{}
258,57,835,0,27.86116666666621,1.840798269584184,142.32597013159543,5.522394808752551,18.772532594395056,40.53937666778416,40.66456289474159,37.2733241127575,62.96498848634674,44.25579193346064,41.41796106564391,16.56718442625754,29.452772313346827,11.96518875229708,37.73636452647554,13.805987021881265,15.646785291465449,4.116150063654218,5.821115244782675,5.522394808752551,64.42793943544598,51.542351548356805,64.53304217976022,{}
259,57,836,0,27.89453333333288,8.312344464623981,134.50852839150778,5.877715138493936,17.633145415482165,35.75274540819812,37.91012353409223,39.07686090281911,57.40936215271434,40.209758139864505,37.17393455058641,11.152180365175925,37.17393455058641,11.152180365176037,26.0217541854106,3.717393455058754,16.72827054776394,8.312344464623981,7.434786910117282,8.36413527388197,63.195688735996896,50.18481164329165,61.449537042572864,{}
260,57,837,0,27.927899999999543,5.762887145922341,148.33138649666162,5.762887145922377,16.801558861647756,42.073023163052326,42.07302316305255,33.50413925284941,61.66558534048734,45.00958746372656,39.18127595118676,7.289539711848647,21.86861913554605,16.40146435165957,43.737238271092224,21.86861913554617,21.86861913554617,8.149953160188954,5.467154783886542,6.378347247867623,63.78347247867612,49.20439305497871,60.24904895888743,{}
261,57,838,0,27.96126666666621,5.91176761286428,161.857244610369,7.708001928157063,23.124005784470803,45.022680794169744,48.92858313024296,35.47060567718622,72.16232015372238,49.07123236333576,43.9324290375298,9.347325327134058,28.04197598140206,14.955720523414245,50.47555676652348,22.43358078512153,20.56411571969465,4.180250967855391,2.643822849909238,2.804197598140149,63.56181222451119,48.60609170109677,67.32670214123097,{}
262,57,839,0,27.994633333332875,1.858696727529264,162.56956807994771,7.663602933593291,17.136337112081407,44.76334487567209,46.61587677154476,35.266290830964294,61.78594213124591,44.68610004697772,41.82067636940974,9.293483637646546,26.021754185410487,15.798922183999252,41.82067636940974,19.516315639057893,23.23370909411653,2.6285941204104946,4.156172232312067,2.7880450912939523,63.195688735996896,48.32611491576233,61.449537042572864,{}
263,57,840,0,28.02799999999954,21.913285395639225,152.6137987242248,11.069406999890356,20.74890441444959,40.40610178208844,42.2099299752651,40.69194942113462,51.79239607569164,31.096744084425104,40.03558461876162,14.558394406822458,36.39598601705609,14.558394406822458,23.657390911086395,1.8197993008528783,25.47719021193928,5.147169704126313,5.754710675076895,4.549498252132025,61.87317622899536,45.49498252132014,63.92652154860525,{}
264,57,841,0,28.061366666666206,0.0,149.8546957010584,5.744553670679943,16.748108055545828,43.74921735035598,45.55977955892416,38.834202543662734,61.28122277183823,44.53418689284516,43.598096977030536,16.349286366386423,32.698572732772845,13.624405305322057,35.423453793837325,13.624405305322057,17.25758005340799,7.489981621342559,7.266349496171756,8.174643183193268,59.94738334341707,45.41468435107356,62.00393524587821,{}
265,57,842,0,28.094733333332872,0.0,154.95842034667268,7.336979801316602,22.087234050060864,46.002629319216766,47.83125636766702,39.21167841062508,68.4839369903952,46.439372936496,45.85612375822916,18.34244950329162,34.85065405625414,11.922592177139675,41.27051138240631,13.75683712746877,17.425327028127185,9.352850794437511,12.97007042734938,11.005469701975017,58.69583841053338,44.02187880790007,62.47213189780974,{}
