,video_id,frame_seq,gap,time_seconds,m1,m3,m4,m5,m6,m7,m8,m9,m10,m11,m12,m13,m14,m15,m16,m17,e1,e2,e3,b1,b2,b3,m_0_16,m_1_15,m_2_14,m_3_13
0,17,5,1,0.166833333333333,11.045361017187261,78.02563681252464,8.0,14.0,21.02379604162864,23.0,22.0,55.00909015790027,41.012193308819754,35.5,35.0,33.0,12.0,21.0,6.0,5.0,8.0,9.055385138137417,9.0,27.0,30.0,25.019992006393608,199.0628041598932,198.04039991880444,193.02331465395574,180.01111076819674
1,17,6,0,0.2001999999999996,9.055385138137417,76.02631123499285,8.0,15.0,20.024984394500787,22.02271554554524,23.021728866442675,55.036351623268054,40.049968789001575,35.5,36.0,34.0,12.0,20.0,4.0,5.0,8.0,8.0,8.0,27.0,30.0,24.020824298928627,200.0024999843752,199.00251254695254,194.0,182.0
2,17,7,0,0.2335666666666662,6.082762530298219,75.05997601918082,9.0,14.0,20.024984394500787,22.02271554554524,24.0,53.009433122794285,39.01281840626232,36.0,38.0,35.0,12.5,16.5,1.5,4.5,8.0,8.0,8.0,27.0,29.0,27.0,204.0,203.0,196.0025510038071,185.0
3,17,8,0,0.2669333333333328,6.082762530298219,75.05997601918082,9.0,15.0,20.024984394500787,22.02271554554524,24.020824298928627,54.0,39.0,36.0,37.0,34.0,11.5,18.5,2.5,4.5,7.0,7.0710678118654755,7.5,26.0,28.0,28.0,206.0024271701671,204.0,197.00253805471644,185.00270268296083
4,17,9,0,0.3002999999999994,5.0990195135927845,76.10519036176179,8.0,14.0,21.095023109728988,23.08679276123039,26.019223662515376,53.03772242470448,39.05124837953327,36.5,38.0,34.0,10.0,17.0,3.0,4.0,6.0,6.0,6.5,25.0,29.0,30.01666203960727,209.0095691589263,206.03883129157958,198.0631212517868,186.06719216455113
5,17,10,0,0.333666666666666,5.0,76.16429609731846,9.055385138137417,15.033296378372908,22.090722034374522,24.020824298928627,24.0,53.03772242470448,38.01315561749642,35.5,38.0,33.0,11.5,17.5,1.5,4.5,7.0710678118654755,7.0,7.0,26.0,29.0,31.016124838541646,212.02122535255756,208.08652046684813,201.12185361118767,188.17013578142522
6,17,11,0,0.3670333333333326,5.0990195135927845,74.16872656315464,9.0,14.0,21.095023109728988,23.08679276123039,24.0,52.009614495783374,38.01315561749642,35.5,38.0,33.0,11.5,16.5,1.5,4.5,7.0,7.0,7.0,26.0,29.0,30.01666203960727,214.02102700435768,210.05951537600004,202.08908926510605,188.09572031282372
7,17,12,0,0.4003999999999992,4.123105625617661,76.23647421018367,9.0,13.0,22.090722034374522,23.08679276123039,25.019992006393608,51.03920062069938,38.05259518088089,36.0,38.0,32.0,10.0,16.0,2.0,3.0,7.0710678118654755,8.0,8.0,27.0,31.0,31.016124838541646,216.0208323287363,212.05895406702354,204.0612653102004,190.12890364171355
8,17,13,0,0.4337666666666658,3.1622776601683795,76.23647421018367,9.0,16.0,22.02271554554524,23.08679276123039,24.020824298928627,52.03844732503075,36.05551275463989,34.5,37.0,31.0,10.0,18.0,2.0,3.0,8.0,8.0,8.5,29.0,31.0,32.01562118716424,221.03619613086,216.08331726442927,207.15453169071634,195.25624189766637
9,17,14,0,0.4671333333333324,5.0990195135927845,78.31347265956222,8.0,14.035668847618199,21.095023109728988,22.090722034374522,24.0,51.03920062069938,37.013511046643494,34.5,37.0,30.0,9.5,17.5,3.5,3.5,9.0,9.0,9.0,31.0,32.0,35.0,226.00884938426637,220.05681084665386,212.1508896988179,200.2023975880409
10,17,15,0,0.5004999999999991,4.123105625617661,78.23042886243178,9.0,14.0,21.02379604162864,22.090722034374522,24.020824298928627,51.03920062069938,37.05401462729781,35.0,38.0,32.0,11.0,16.0,2.0,4.0,9.0,9.0,9.0,31.0,32.0,35.0,223.0022421411946,219.03652663425797,211.11608181282637,199.2034136253694
11,17,16,0,0.5338666666666656,5.0990195135927845,79.30952023559341,8.0,13.038404810405298,23.08679276123039,24.186773244895647,24.0,50.039984012787215,37.013511046643494,34.5,37.0,30.0,9.5,16.5,3.5,4.5,9.055385138137417,9.0,9.5,31.0,33.0,35.014282800023196,221.03619613086,216.14809737770074,208.19462048765814,195.31000998412753
12,17,17,0,0.5672333333333321,3.1622776601683795,78.31347265956222,8.06225774829855,14.0,22.02271554554524,22.090722034374522,24.0,49.040799340956916,35.05709628591621,33.5,37.0,30.0,9.5,15.5,1.5,3.5,9.0,9.0,9.5,30.0,32.0,35.0,222.03603311174518,216.11339616044165,209.2390976849212,197.36514383244068
13,17,18,0,0.6005999999999987,7.0710678118654755,77.23341245859851,7.0,14.0,22.090722034374522,23.194827009486403,23.08679276123039,51.088159097779204,37.12142238654117,33.5,36.0,30.0,10.0,18.0,4.0,5.0,9.0,9.0,9.5,30.0,32.0,36.0,225.055548698538,219.18485349129398,212.2851855405836,200.48940121612415
14,17,19,0,0.6339666666666652,4.123105625617661,79.30952023559341,8.0,13.0,22.090722034374522,23.08679276123039,23.021728866442675,48.041648597857254,35.05709628591621,33.0,37.0,30.0,10.5,14.5,1.5,4.5,10.0,9.0,9.5,31.0,33.0,34.0147027033899,225.07998578283232,221.27358631341428,215.39266468475662,202.63267258761604
15,17,20,0,0.6673333333333318,10.0,93.34345183246653,9.0,15.0,24.331050121192877,26.30589287593181,25.0,59.0,44.0,39.0,41.0,33.0,12.0,22.0,8.0,7.0,10.0,10.04987562112089,10.0,33.0,32.0,38.0,231.17525819170183,228.0548179714693,222.00900882621858,212.0
16,17,21,0,0.7006999999999983,9.055385138137417,88.2779700718135,10.0,15.0,23.194827009486403,24.331050121192877,26.076809620810597,60.00833275470999,45.0111097397076,40.5,41.0,34.0,11.5,22.5,8.5,4.5,10.0,11.045361017187261,10.5,32.0,32.0,40.0,225.17992805754247,224.0803427344755,222.05629916757596,214.03737991294884
17,17,22,0,0.7340666666666649,9.055385138137417,86.37129152675674,10.0,14.0,23.194827009486403,25.317977802344327,26.019223662515376,59.0,45.0,40.5,42.0,34.0,12.0,21.0,8.0,5.0,11.045361017187261,10.0,10.0,31.0,33.0,39.0,230.07824755939012,226.01991062736045,220.0,211.0213259365034
18,17,23,0,0.7674333333333314,9.055385138137417,85.47514258543241,10.0,15.0,22.20360331117452,24.186773244895647,26.0,60.00833275470999,45.0111097397076,40.5,42.0,33.0,11.5,22.5,8.5,4.5,9.0,10.0,9.5,31.0,33.0,37.013511046643494,228.07893370497854,225.01999911119012,220.0,210.00952359357422
19,17,24,0,0.800799999999998,9.055385138137417,85.70880934886448,10.0,16.0312195418814,21.37755832643195,24.331050121192877,26.019223662515376,61.00819617067857,45.0,40.5,44.0,33.0,12.5,22.5,7.5,5.5,9.0,10.0,9.5,30.0,33.0,36.013886210738214,226.07963198837706,225.00888871331284,222.00900882621858,212.03773249117714
20,17,25,0,0.8341666666666645,6.082762530298219,76.32168761236873,10.0,15.0,20.09975124224178,21.213203435596427,23.08679276123039,54.00925846556311,39.01281840626232,36.0,42.0,35.0,15.5,15.5,1.5,7.5,9.0,10.0,10.0,34.0,36.0,35.014282800023196,235.00212764994276,232.01939574095957,227.1079038695043,216.18741869035765
21,17,26,0,0.867533333333331,6.0,78.23042886243178,11.0,16.0,20.223748416156685,21.213203435596427,25.0,58.0,42.0,39.0,45.0,39.0,17.0,16.0,1.0,8.0,10.04987562112089,11.0,11.0,34.0,34.0,34.0,233.00214591286493,230.0195643852931,225.055548698538,214.11445537375565
22,17,27,0,0.9008999999999976,6.082762530298219,73.33484846919642,9.0,13.0,18.24828759089466,20.09975124224178,26.076809620810597,54.08326913195984,41.10960958218893,38.0,45.0,38.0,15.5,12.5,0.5,9.5,10.04987562112089,11.0,10.5,35.0,35.0,33.0,234.03418553707064,232.0021551624036,226.05530296810116,215.14878572745886
23,17,28,0,0.934266666666664,3.0,75.23961722390672,9.0,14.035668847618199,19.1049731745428,21.095023109728988,26.0,52.009614495783374,38.0,36.5,43.0,37.0,14.0,12.0,1.0,7.0,9.055385138137417,10.04987562112089,9.5,33.0,33.0,36.013886210738214,237.17082451262846,231.05410621756974,226.0,213.00938946440834
24,17,29,0,0.9676333333333308,6.0,77.1621668954417,9.0,14.0,20.09975124224178,22.090722034374522,24.020824298928627,53.009433122794285,39.01281840626232,36.0,41.0,36.0,14.5,14.5,0.5,7.5,9.0,10.04987562112089,10.0,35.0,34.0,34.0147027033899,225.00888871331284,222.00225224082752,216.08331726442927,203.24615617521528
25,17,30,0,1.0009999999999972,7.0,74.10802925459562,9.0,14.0,20.09975124224178,21.095023109728988,23.021728866442675,53.009433122794285,39.01281840626232,35.5,39.0,35.0,14.0,16.0,2.0,7.0,8.0,9.0,9.0,35.0,34.0,34.0147027033899,226.03539545832197,224.0,218.05733191066977,205.15603817582362
26,17,31,0,1.0343666666666638,4.123105625617661,75.05997601918082,11.0,16.0,21.095023109728988,22.090722034374522,23.021728866442675,54.0,38.0,36.0,40.0,37.0,15.5,15.5,0.5,6.5,10.0,10.04987562112089,10.0,35.0,34.0,37.013511046643494,227.05505940189926,225.0,218.05733191066977,205.19746587129188
27,17,32,0,1.0677333333333303,5.0,79.02531240052139,9.0,15.033296378372908,19.1049731745428,21.095023109728988,24.020824298928627,53.03772242470448,38.01315561749642,35.5,37.0,35.0,12.0,17.0,3.0,4.0,10.0,9.0,9.0,32.0,33.0,35.0,224.0200883849482,221.00904958847272,214.11445537375565,203.24615617521528
28,17,33,0,1.1010999999999969,2.23606797749979,76.16429609731846,11.0,15.0,20.09975124224178,21.213203435596427,24.0,52.009614495783374,37.013511046643494,36.0,42.0,37.0,15.5,12.5,1.5,6.5,8.0,9.055385138137417,9.5,34.0,33.0,36.0,225.00222221124838,223.0201784592596,218.14673960433146,205.35091916034852
29,17,34,0,1.1344666666666634,0.0,73.24616030891995,9.0,14.035668847618199,19.1049731745428,20.09975124224178,27.073972741361768,50.00999900019995,36.05551275463989,36.0,43.0,37.0,13.0,10.0,3.0,5.0,9.0,10.0,9.5,33.0,33.0,40.0,235.01914815605983,231.0,225.03555274667156,213.05867736377226
30,17,35,0,1.16783333333333,0.0,77.31752712031083,11.0,15.0,19.235384061671343,20.223748416156685,24.08318915758459,50.039984012787215,35.05709628591621,35.0,43.0,36.0,15.5,10.5,3.5,6.5,9.0,10.0,9.5,34.0,34.0,34.0,232.1055794245369,230.0021739027699,226.03539545832197,214.1494805036893
31,17,36,0,1.2011999999999965,2.0,74.43117626371358,9.0,12.041594578792296,19.1049731745428,19.235384061671343,25.179356624028344,48.041648597857254,36.124783736376884,35.0,44.0,36.0,15.0,8.0,3.0,7.0,9.0,10.0,10.0,33.0,33.0,38.0,233.0772404161333,230.0021739027699,225.055548698538,212.11553455605272
32,17,37,0,1.234566666666663,0.0,78.40918313565064,12.0,14.0,20.09975124224178,21.213203435596427,23.08679276123039,49.040799340956916,35.05709628591621,35.0,44.0,36.0,17.0,9.0,4.0,6.0,9.055385138137417,10.0,9.5,33.0,33.0,37.0,229.17678765529462,229.01964981197574,225.00888871331284,214.0840956259946
33,17,38,0,1.2679333333333296,2.23606797749979,75.66372975210778,9.0,14.0,21.213203435596427,22.20360331117452,26.0,51.0098029794274,37.013511046643494,36.0,46.0,36.0,15.0,10.0,2.0,8.0,10.0,9.0,9.5,31.0,32.0,36.013886210738214,227.01982292302142,227.0,222.00900882621858,212.05895406702354
34,17,39,0,1.301299999999996,2.23606797749979,80.75270893288967,11.0,12.0,22.20360331117452,23.194827009486403,25.019992006393608,50.039984012787215,38.05259518088089,37.0,46.0,35.0,15.5,9.5,1.5,7.5,10.04987562112089,10.0,10.0,30.0,32.0,38.01315561749642,228.01973598791838,224.0,219.03652663425797,209.11719202399405
35,17,40,0,1.334666666666663,4.123105625617661,80.89499366462674,10.0,14.035668847618199,23.345235059857504,24.515301344262525,26.0,54.037024344425184,40.01249804748511,38.0,47.0,35.0,15.0,13.0,1.0,8.0,9.0,10.0,9.5,29.0,31.0,36.013886210738214,227.17834403833479,224.0200883849482,218.00917411888886,209.0598000573042
36,17,41,0,1.3680333333333292,9.0,92.13576938409967,10.0,13.0,25.019992006393608,27.073972741361768,27.0,59.0,46.0,41.5,41.0,36.0,11.5,20.5,7.5,3.5,9.055385138137417,10.0,9.5,30.0,33.0,36.05551275463989,217.38905216224666,215.18828964420902,212.08488866489287,206.0606706773517
37,17,42,0,1.4013999999999958,3.1622776601683795,88.2779700718135,10.04987562112089,13.038404810405298,23.194827009486403,24.186773244895647,28.0178514522438,54.037024344425184,41.012193308819754,39.5,42.0,35.0,10.5,15.5,2.5,3.5,10.04987562112089,10.04987562112089,9.5,30.0,34.0,37.05401462729781,222.22511109233358,220.11133546457802,217.03686322834653,210.00238093888365
38,17,43,0,1.4347666666666623,4.47213595499958,87.36704184073076,10.04987562112089,13.0,24.331050121192877,25.317977802344327,27.018512172212592,54.037024344425184,41.048751503547585,39.0,45.0,37.0,14.0,13.0,1.0,7.0,11.0,10.0,10.0,29.0,33.0,39.01281840626232,218.27734651126764,215.18828964420902,211.0852908186641,203.03940504246953
39,17,44,0,1.4681333333333288,3.0,72.3394774656273,9.0,13.0,20.09975124224178,21.095023109728988,25.079872407968907,50.039984012787215,37.05401462729781,35.5,43.0,36.0,14.5,10.5,2.5,6.5,8.0,9.0,9.0,32.0,34.0,34.058772731852805,229.0087334579186,226.07963198837706,220.22715545545242,209.40391591371923
40,17,45,0,1.5014999999999954,2.23606797749979,70.25667228100119,9.0,11.045361017187261,20.09975124224178,21.095023109728988,26.076809620810597,48.16637831516918,37.12142238654117,36.0,42.0,36.0,13.0,9.0,2.0,6.0,7.0,8.0,8.5,32.0,34.0,33.015148038438355,229.13969538253298,222.1823575354263,216.27991122617004,206.47518010647187
41,17,46,0,1.534866666666662,2.0,74.33034373659252,10.0,12.0,20.09975124224178,20.223748416156685,25.079872407968907,49.040799340956916,37.05401462729781,36.0,42.0,35.0,13.5,10.5,1.5,5.5,8.0,10.0,10.0,32.0,35.0,34.058772731852805,223.0807028857494,220.14540649307222,213.23461257497573,203.29781110479277
42,17,47,0,1.5682333333333285,2.23606797749979,77.64663547121665,10.0,13.0,21.37755832643195,22.20360331117452,24.08318915758459,49.09175083453431,36.124783736376884,35.0,44.0,34.0,15.0,10.0,2.0,8.0,10.04987562112089,10.0,9.5,32.0,32.0,36.0,228.0021929719098,224.1428116179504,220.32702966272657,211.53250341259616
43,17,48,0,1.601599999999995,3.0,73.24616030891995,10.04987562112089,12.0,20.024984394500787,21.095023109728988,24.0,49.01020301937138,37.013511046643494,35.5,41.0,35.0,14.0,11.0,1.0,6.0,9.0,10.0,10.0,31.0,34.0,37.013511046643494,221.18318200080222,219.27608168699112,212.33935103979195,200.42205467462907
44,17,49,0,1.6349666666666616,4.47213595499958,74.81310045707235,9.0,12.041594578792296,20.396078054371138,21.587033144922902,27.0,52.08646657242167,40.049968789001575,38.0,47.0,36.0,14.5,10.5,0.5,8.5,11.0,10.04987562112089,10.0,30.0,33.0,39.01281840626232,217.0829334609241,214.05840324546944,211.03791128610044,204.02205763103166
45,17,50,0,1.668333333333328,1.0,77.64663547121665,9.055385138137417,13.0,21.213203435596427,22.20360331117452,27.0,50.00999900019995,37.013511046643494,36.5,47.0,37.0,15.0,8.0,4.0,8.0,8.0,8.06225774829855,8.0,29.0,32.0,39.05124837953327,234.00213674238105,230.00869548780108,223.0807028857494,213.15018179677915
46,17,51,0,1.7016999999999949,4.123105625617661,75.8023746329889,9.0,13.0,20.223748416156685,21.37755832643195,26.0,52.009614495783374,39.01281840626232,37.0,48.0,37.0,16.5,9.5,2.5,9.5,10.0,10.0,10.0,31.0,33.0,39.0,231.01947969814148,228.0021929719098,224.03571143904713,213.08449028495716
47,17,52,0,1.7350666666666612,3.1622776601683795,75.95393340703298,10.0,13.0,21.37755832643195,22.360679774997898,27.018512172212592,53.03772242470448,40.049968789001575,38.5,48.0,36.0,15.0,11.0,1.0,8.0,9.0,9.0,9.0,30.0,33.0,38.0,226.01991062736045,225.0,220.05681084665386,209.11719202399405
48,17,53,0,1.7684333333333278,4.123105625617661,85.21150157109074,10.0,14.0,23.194827009486403,24.186773244895647,26.019223662515376,54.0,40.0,38.0,41.0,35.0,12.0,16.0,2.0,5.0,9.0,9.055385138137417,9.0,29.0,31.0,35.014282800023196,223.22410264126944,221.05655384991417,220.03636063160107,214.0023364358436
49,17,54,0,1.8017999999999943,1.0,78.63841300535,9.055385138137417,14.0,24.331050121192877,24.186773244895647,26.0,50.00999900019995,36.013886210738214,35.5,45.0,35.0,14.0,10.0,3.0,8.0,7.0,8.0,7.5,30.0,33.0,38.01315561749642,231.05410621756974,230.0021739027699,225.01999911119012,214.05840324546944
50,17,55,0,1.8351666666666608,2.23606797749979,75.23961722390672,9.055385138137417,13.0,22.090722034374522,23.08679276123039,23.021728866442675,47.095647357266465,34.132096331752024,33.0,38.0,32.0,12.0,12.0,1.0,6.0,7.0710678118654755,8.06225774829855,8.5,31.0,33.0,38.0,228.07893370497854,224.1428116179504,217.23029254687293,203.4158302591025
51,17,56,0,1.868533333333328,2.23606797749979,75.1065909225016,8.0,13.0,20.09975124224178,21.02379604162864,25.019992006393608,48.041648597857254,35.05709628591621,34.0,36.0,32.0,9.0,14.0,1.0,3.0,9.0,9.0,9.0,33.0,35.0,38.0,224.03571143904713,219.0821763631172,212.11553455605272,200.2023975880409
52,17,57,0,1.901899999999994,2.0,75.16648189186454,9.055385138137417,12.041594578792296,20.09975124224178,22.090722034374522,23.021728866442675,46.09772228646444,34.058772731852805,33.0,38.0,33.0,12.5,10.5,1.5,5.5,8.0,9.0,9.0,32.0,33.0,37.0,227.05505940189926,224.1093483101497,217.18655575334307,205.29490982486632
53,17,58,0,1.9352666666666605,3.1622776601683795,77.1621668954417,9.055385138137417,13.0,21.095023109728988,23.021728866442675,23.0,48.041648597857254,35.05709628591621,33.5,38.0,33.0,12.5,12.5,0.5,5.5,10.04987562112089,10.04987562112089,10.0,32.0,32.0,38.01315561749642,224.0022321317357,223.03587155433092,217.0829334609241,206.15528128088303
54,17,59,0,1.968633333333327,2.0,78.10249675906654,9.055385138137417,13.0,22.02271554554524,23.021728866442675,24.020824298928627,48.041648597857254,35.05709628591621,34.0,38.0,34.0,12.0,12.0,2.0,5.0,8.0,9.055385138137417,9.5,31.0,34.0,39.0,221.02036105300343,219.0570701894828,213.11499243366245,201.2486024796197
55,17,60,0,2.0019999999999936,4.123105625617661,76.16429609731846,9.0,13.0,22.02271554554524,23.021728866442675,23.0,49.01020301937138,36.013886210738214,34.0,39.0,34.0,13.5,12.5,1.5,6.5,8.0,8.0,8.5,32.0,34.0,37.0,221.00904958847272,219.0570701894828,214.1494805036893,202.2473732833136
56,17,61,0,2.0353666666666603,5.0990195135927845,71.11258679024411,8.0,14.0,20.09975124224178,21.02379604162864,25.079872407968907,52.08646657242167,38.118237105091836,35.5,40.0,36.0,13.0,14.0,0.0,7.0,7.0,8.0,8.5,32.0,33.0,38.01315561749642,225.055548698538,220.11133546457802,213.19005605327843,200.30227157973022
57,17,62,0,2.068733333333327,5.0990195135927845,75.23961722390672,10.0,15.0,23.08679276123039,24.08318915758459,24.020824298928627,54.0,39.0,36.5,41.0,35.0,14.0,16.0,1.0,6.0,8.06225774829855,8.0,8.0,32.0,34.0,34.0147027033899,235.01914815605983,231.00865784641059,226.07963198837706,213.15018179677915
58,17,63,0,2.102099999999994,3.0,77.10382610480494,10.0,15.0,21.213203435596427,22.090722034374522,27.0,55.0,40.0,38.5,40.0,36.0,11.0,17.0,3.0,4.0,7.0710678118654755,8.06225774829855,8.0,32.0,34.0,39.01281840626232,232.01939574095957,229.00218339570478,223.0560467685196,213.11499243366245
59,17,64,0,2.1354666666666606,6.0,73.43704787094863,9.0,15.0,21.213203435596427,22.090722034374522,25.019992006393608,55.00909015790027,40.01249804748511,37.0,44.0,36.0,15.0,15.0,1.0,8.0,8.06225774829855,9.0,9.0,31.0,33.0,36.0,232.1055794245369,228.01973598791838,221.0,210.02142747824567
60,17,65,0,2.1688333333333274,2.0,81.09870529176159,10.04987562112089,16.0,20.09975124224178,22.090722034374522,25.179356624028344,53.03772242470448,37.05401462729781,36.0,37.0,33.0,10.0,18.0,2.0,2.0,9.055385138137417,9.0,8.5,32.0,33.0,34.0147027033899,225.17992805754247,223.0807028857494,220.05681084665386,211.0213259365034
61,17,66,0,2.202199999999994,9.0,87.20665112249179,9.055385138137417,14.0,23.194827009486403,25.317977802344327,26.1725046566048,58.034472514187634,44.04543109109048,39.5,39.0,33.0,10.0,22.0,8.0,4.0,9.0,9.055385138137417,9.0,34.0,35.0,38.0,223.32263655975405,222.1823575354263,219.1118435867856,210.08569680013915
62,17,67,0,2.235566666666661,6.0,88.20430828479978,10.0,15.0,24.186773244895647,25.317977802344327,25.0,56.0,41.0,38.0,40.0,34.0,12.0,19.0,4.0,5.0,9.0,9.0,9.0,33.0,34.0,38.01315561749642,225.10886255321003,223.0201784592596,220.00227271553356,213.00938946440834
63,17,68,0,2.268933333333328,5.0,87.20665112249179,10.0,16.0312195418814,23.194827009486403,25.317977802344327,25.079872407968907,56.08029957123981,40.049968789001575,37.5,39.0,33.0,11.0,20.0,5.0,4.0,10.0,10.04987562112089,9.5,34.0,35.0,35.014282800023196,227.17834403833479,227.05505940189926,223.00896842952304,213.00234740490538
64,17,69,0,2.3022999999999945,8.06225774829855,85.28774824088158,9.0,15.0,22.20360331117452,23.08679276123039,26.076809620810597,58.008620049092706,43.01162633521314,39.0,40.0,33.0,10.5,21.5,6.5,3.5,9.0,10.04987562112089,9.5,31.0,34.0,34.0147027033899,224.26992665089986,222.14409737825582,219.14607000811125,211.0852908186641
65,17,70,0,2.335666666666661,7.0710678118654755,86.28441342444185,9.0,15.033296378372908,24.186773244895647,26.1725046566048,25.019992006393608,56.00892785976178,41.0,37.5,41.0,34.0,12.5,18.5,4.5,6.5,9.055385138137417,9.0,9.0,32.0,34.0,32.0,225.22211259110415,222.08106627986098,219.03652663425797,211.05923339195564
66,17,71,0,2.369033333333328,4.0,79.40403012442127,9.0,15.0,24.186773244895647,24.331050121192877,26.0,54.0,39.0,37.0,41.0,33.0,11.0,17.0,3.0,4.0,7.0,8.06225774829855,8.0,31.0,35.0,39.05124837953327,231.01947969814148,227.0,222.00225224082752,212.00943375236866
67,17,72,0,2.4023999999999948,3.1622776601683795,80.50465825031493,10.0,16.0,23.194827009486403,24.331050121192877,26.0,55.00909015790027,39.01281840626232,37.5,43.0,34.0,12.5,16.5,2.5,5.5,8.06225774829855,9.055385138137417,9.0,32.0,35.0,36.0,229.00218339570478,226.00221237855172,221.02036105300343,210.03809178337153
68,17,73,0,2.435766666666661,3.1622776601683795,82.49242389456137,9.055385138137417,15.0,21.213203435596427,22.360679774997898,27.16615541441225,54.00925846556311,39.01281840626232,37.5,43.0,34.0,11.5,15.5,1.5,4.5,8.0,9.055385138137417,9.5,31.0,35.0,38.01315561749642,229.21823662178366,227.07928130941406,223.03587155433092,214.00934559032697
69,17,74,0,2.4691333333333283,3.0,76.23647421018367,9.0,14.035668847618199,22.20360331117452,23.345235059857504,28.0178514522438,54.0,40.01249804748511,38.5,41.0,35.0,10.0,16.0,3.0,4.0,8.06225774829855,9.055385138137417,9.0,31.0,36.0,38.01315561749642,227.00881040171106,225.00222221124838,221.02036105300343,211.05923339195564
70,17,75,0,2.502499999999995,4.123105625617661,77.92945527847606,10.04987562112089,16.0,22.360679774997898,23.53720459187964,25.019992006393608,55.00909015790027,39.01281840626232,37.0,46.0,34.0,15.0,15.0,1.0,8.0,8.0,9.055385138137417,8.5,32.0,34.0,39.05124837953327,232.1055794245369,229.0087334579186,222.00900882621858,212.05895406702354
71,17,76,0,2.535866666666662,4.0,83.38465086573187,9.0,15.033296378372908,21.213203435596427,23.194827009486403,28.0178514522438,56.0,41.012193308819754,39.0,43.0,35.0,11.0,17.0,3.0,5.0,8.0,9.0,9.0,31.0,34.0,39.01281840626232,225.10886255321003,223.03587155433092,221.00904958847272,211.0
72,17,77,0,2.5692333333333286,1.4142135623730951,75.66372975210778,10.0,14.0,21.213203435596427,22.20360331117452,26.019223662515376,51.03920062069938,37.05401462729781,36.5,46.0,36.0,15.0,10.0,3.0,8.0,8.0,9.055385138137417,9.0,31.0,33.0,38.01315561749642,227.00881040171106,225.00222221124838,220.02045359466015,212.11553455605272
73,17,78,0,2.602599999999996,4.0,76.6550715869472,10.0,15.0,22.360679774997898,23.194827009486403,25.0,54.0,39.0,37.0,47.0,37.0,17.0,12.0,1.0,10.0,7.0710678118654755,8.0,8.0,31.0,32.0,37.05401462729781,227.00220263248548,225.03555274667156,221.11083193728885,212.19095173922943
74,17,79,0,2.635966666666662,1.4142135623730951,78.16009211867653,9.0,13.038404810405298,21.213203435596427,21.213203435596427,28.0178514522438,51.0098029794274,38.0,37.5,40.0,35.0,9.5,13.5,0.5,3.5,7.0,9.055385138137417,9.0,31.0,32.0,37.013511046643494,230.0195643852931,225.00888871331284,220.03636063160107,211.05923339195564
75,17,80,0,2.669333333333329,3.0,76.94153624668537,10.04987562112089,15.0,21.37755832643195,22.360679774997898,26.019223662515376,54.037024344425184,39.05124837953327,37.5,46.0,34.0,14.0,14.0,0.0,7.0,9.0,10.0,9.5,32.0,34.0,35.0,230.05434140654683,228.21919288263203,222.3803048833237,211.463944917331
76,17,81,0,2.702699999999996,5.0,80.89499366462674,9.055385138137417,14.0,22.360679774997898,23.345235059857504,27.073972741361768,55.00909015790027,41.012193308819754,38.5,46.0,34.0,13.0,15.0,3.0,7.0,10.0,9.0,9.5,31.0,34.0,39.0,226.03539545832197,224.0089283934906,220.05681084665386,210.08569680013915
77,17,82,0,2.7360666666666624,5.0,78.77182237323191,10.04987562112089,16.0,22.360679774997898,23.345235059857504,25.0,56.00892785976178,40.01249804748511,37.5,45.0,34.0,14.5,16.5,1.5,7.5,8.0,8.0,8.0,32.0,34.0,40.01249804748511,230.10649708341572,229.01964981197574,223.0022421411946,213.00234740490538
78,17,83,0,2.769433333333329,1.0,78.63841300535,10.0,15.0,22.20360331117452,23.345235059857504,26.0,52.0,37.0,36.5,45.0,35.0,14.0,12.0,2.0,7.0,9.055385138137417,10.0,9.5,31.0,34.0,40.0,227.03523955544875,225.0,221.00904958847272,213.05867736377226
79,17,84,0,2.802799999999996,1.0,73.68174807915459,10.0,14.0,21.095023109728988,21.213203435596427,25.019992006393608,49.040799340956916,35.05709628591621,35.0,44.0,34.0,14.0,10.0,3.0,6.0,8.0,9.055385138137417,8.5,33.0,36.0,39.05124837953327,231.00865784641059,228.01973598791838,223.0807028857494,211.19185590358356
80,17,85,0,2.8361666666666627,6.082762530298219,78.40918313565064,10.0,14.0,20.09975124224178,21.37755832643195,24.08318915758459,54.00925846556311,40.01249804748511,37.0,43.0,35.0,15.0,15.0,2.0,7.0,8.06225774829855,10.04987562112089,10.0,33.0,36.0,35.05709628591621,231.01947969814148,229.0785891348207,224.22310318073826,213.283848427395
81,17,86,0,2.869533333333329,3.0,83.15046602394962,10.04987562112089,15.0,24.186773244895647,24.186773244895647,25.0,53.009433122794285,38.01315561749642,36.5,38.0,33.0,10.5,17.5,2.5,3.5,9.0,9.055385138137417,8.0,32.0,33.0,36.013886210738214,230.13908837917995,228.0350850198276,224.0089283934906,216.00231480241132
82,17,87,0,2.9028999999999963,4.0,88.36288813749809,9.0,16.0312195418814,23.194827009486403,25.495097567963924,26.019223662515376,55.0,39.01281840626232,37.0,40.0,32.0,10.0,19.0,4.0,4.0,8.0,7.0,7.0,34.0,31.0,39.0,227.17834403833479,224.0803427344755,222.00225224082752,211.00236965494014
83,17,88,0,2.936266666666663,9.055385138137417,89.08984229416954,9.0,14.0,23.08679276123039,24.08318915758459,24.0,56.00892785976178,42.01190307520001,37.5,35.0,31.0,9.0,23.0,9.0,2.0,9.0,9.055385138137417,9.0,36.0,33.0,35.014282800023196,227.14092541856036,225.01999911119012,223.0022421411946,214.03737991294884
84,17,89,0,2.96963333333333,11.045361017187261,91.26883367283708,9.0,14.0,25.179356624028344,26.1725046566048,24.0,58.008620049092706,44.01136216933077,38.5,39.0,32.0,11.5,22.5,8.5,5.5,10.0,10.04987562112089,9.5,36.0,33.0,38.0,223.1815404552984,222.03603311174518,220.00227271553356,212.00943375236866
85,17,90,0,3.002999999999997,6.324555320336759,89.35882720806042,10.0,13.0,21.37755832643195,23.345235059857504,24.0,53.03772242470448,40.049968789001575,37.0,39.0,31.0,11.0,18.0,5.0,4.0,8.06225774829855,7.0710678118654755,6.5,33.0,32.0,38.0,223.14345161801185,223.0201784592596,221.0,212.00943375236866
86,17,91,0,3.036366666666664,9.0,91.13725912051558,9.0,14.035668847618199,24.186773244895647,25.079872407968907,24.0,56.00892785976178,42.0,37.5,35.0,30.0,8.5,23.5,9.5,2.5,9.055385138137417,7.0710678118654755,7.0,37.0,33.0,34.0147027033899,219.58369702689677,220.22715545545242,221.0814329607984,214.03737991294884
87,17,92,0,3.06973333333333,4.123105625617661,87.14355971613737,10.0,14.0,22.20360331117452,24.08318915758459,25.019992006393608,53.0,39.0,37.0,38.0,33.0,10.5,17.5,4.5,3.5,8.0,8.0,7.5,33.0,33.0,37.013511046643494,224.1428116179504,224.0200883849482,222.00225224082752,214.00934559032697
88,17,93,0,3.103099999999997,8.06225774829855,89.27485648266257,9.0,15.0,24.186773244895647,26.1725046566048,25.0,57.0087712549569,42.01190307520001,38.0,39.0,32.0,10.5,21.5,6.5,4.5,11.0,10.0,9.5,34.0,31.0,33.015148038438355,221.50846484954022,221.22612865572637,220.08180297334897,213.03755537463343
89,17,94,0,3.136466666666664,12.041594578792296,89.20201791439474,8.0,12.041594578792296,25.179356624028344,26.1725046566048,27.0,59.033888572581766,47.01063709417264,41.0,42.0,36.0,12.0,20.0,8.0,7.0,9.0,8.0,8.0,30.0,29.0,33.015148038438355,224.43707358633955,223.22410264126944,220.08180297334897,212.08488866489287
90,17,95,0,3.1698333333333304,10.0,95.04735661763561,8.0,14.0,27.073972741361768,29.068883707497267,26.019223662515376,58.008620049092706,44.01136216933077,39.0,35.0,32.0,7.5,24.5,10.5,2.5,7.0,5.0990195135927845,5.0,33.0,32.0,39.01281840626232,224.64416306683776,224.37691503361035,222.1823575354263,215.14878572745886
91,17,96,0,3.203199999999997,4.123105625617661,86.37129152675674,11.0,16.0312195418814,21.37755832643195,23.194827009486403,24.186773244895647,55.00909015790027,39.05124837953327,37.0,40.0,32.0,12.0,19.0,3.0,5.0,12.041594578792296,12.041594578792296,12.0,37.0,41.0,45.044422518220834,227.01982292302142,226.00884938426637,223.0560467685196,215.08370463612533
92,17,97,0,3.236566666666664,14.035668847618199,79.42921376924235,10.04987562112089,15.033296378372908,22.360679774997898,23.769728648009426,23.021728866442675,62.03224967708329,47.01063709417264,40.0,48.0,33.0,17.5,21.5,8.5,10.5,13.038404810405298,14.035668847618199,14.0,35.0,44.0,45.09988913511872,233.10512649875378,229.21823662178366,224.26992665089986,212.2851855405836
93,17,98,0,3.2699333333333307,17.0,85.58621384311844,9.055385138137417,14.142135623730951,22.360679774997898,23.194827009486403,23.0,63.071388124885914,49.01020301937138,40.5,42.0,32.0,14.0,26.0,12.0,8.0,14.035668847618199,15.033296378372908,14.5,35.0,43.0,42.1070065428546,226.00221237855172,225.03555274667156,222.11033294288674,213.15018179677915
94,17,99,0,3.303299999999997,6.082762530298219,83.02409288875127,12.041594578792296,15.132745950421556,20.396078054371138,21.37755832643195,23.0,56.142675390472796,41.048751503547585,38.0,46.0,33.0,16.5,16.5,2.5,7.5,15.033296378372908,15.132745950421556,15.0,35.0,47.0,45.27692569068709,223.503914954526,222.89908030317218,220.10224896624752,210.3734774157617
95,17,100,0,3.336666666666664,5.0990195135927845,83.02409288875127,11.045361017187261,14.317821063276353,20.396078054371138,20.615528128088304,25.0,55.226805085936306,41.048751503547585,38.5,47.0,34.0,15.5,14.5,2.5,7.5,15.033296378372908,15.132745950421556,15.5,36.0,46.0,44.181444068749045,216.33307652783935,216.6679487141557,215.92822881689185,209.267771049438
96,17,101,0,3.370033333333331,12.041594578792296,83.54639429682169,10.04987562112089,14.142135623730951,21.587033144922902,22.80350850198276,26.0,62.12889826803627,48.041648597857254,42.0,47.0,31.0,13.0,23.0,10.0,7.0,15.033296378372908,15.132745950421556,15.0,37.0,48.0,45.39823785126467,213.45959805077868,213.84573879317773,211.482859825566,203.79646709401024
97,17,102,0,3.4033999999999978,13.038404810405298,83.54639429682169,10.04987562112089,14.142135623730951,21.587033144922902,22.80350850198276,26.0,63.12685640834652,49.040799340956916,42.5,48.0,32.0,14.0,23.0,10.0,8.0,14.142135623730951,15.132745950421556,15.0,36.0,48.0,45.5411901469428,215.45533179756774,215.83790213954546,213.4689672996991,205.65018842685265
98,17,103,0,3.4367666666666645,14.035668847618199,83.54639429682169,10.04987562112089,14.142135623730951,21.587033144922902,22.80350850198276,26.019223662515376,64.07027391856539,50.00999900019995,43.0,49.0,33.0,15.0,23.0,11.0,9.0,13.152946437965905,14.142135623730951,14.0,35.0,47.0,45.5411901469428,218.38727069131113,216.8340379184043,214.34784813475503,206.51876428063383
99,17,104,0,3.470133333333332,16.0312195418814,84.34453153583817,10.04987562112089,14.142135623730951,21.587033144922902,22.561028345356956,26.019223662515376,66.06814663663572,52.009614495783374,44.0,50.0,35.0,16.5,23.5,10.5,10.5,13.152946437965905,14.142135623730951,14.0,33.0,46.0,45.70557952810576,220.32702966272657,219.73848092675985,217.329243315298,208.50419660045213
100,17,105,0,3.503499999999998,17.029386365926403,84.34453153583817,10.04987562112089,14.142135623730951,21.587033144922902,22.561028345356956,26.076809620810597,67.02984409947557,53.0,44.5,51.0,36.0,17.5,23.5,11.5,11.5,12.165525060596439,13.152946437965905,13.0,32.0,45.0,45.70557952810576,223.27113561766106,220.7351353998724,218.21548982599745,209.3800372528384
101,17,106,0,3.536866666666665,18.027756377319946,84.17244204607586,10.198039027185569,14.035668847618199,21.587033144922902,23.53720459187964,27.16615541441225,69.00724599634447,55.0,46.0,52.0,38.0,18.0,24.0,12.0,12.0,12.165525060596439,13.152946437965905,13.0,31.0,45.0,44.721359549995796,225.26872841120226,222.72853431924702,220.20445045457188,211.36697944570244
102,17,107,0,3.570233333333332,23.021728866442675,88.11923740024082,8.06225774829855,12.165525060596439,24.515301344262525,26.476404589747453,25.0,68.11754546370561,56.0357029044876,44.5,47.0,33.0,15.0,28.0,17.0,11.0,11.180339887498949,12.165525060596439,12.0,32.0,46.0,43.41658669218482,218.2292372712694,216.390850083824,215.67104580819372,209.77368757782756
103,17,108,0,3.6035999999999984,19.1049731745428,84.72307831990054,9.219544457292887,12.165525060596439,23.53720459187964,24.515301344262525,26.076809620810597,66.48308055437865,54.3323108288245,44.5,52.0,35.0,17.5,22.5,11.5,11.5,11.180339887498949,12.165525060596439,12.0,33.0,46.0,44.721359549995796,216.33307652783935,216.59178193089414,215.92822881689185,208.06249061279644
104,17,109,0,3.636966666666665,10.198039027185569,78.85429601486528,9.055385138137417,13.038404810405298,19.6468827043885,20.615528128088304,31.016124838541646,63.071388124885914,50.039984012787215,45.0,57.0,40.0,17.5,14.5,3.5,11.5,12.041594578792296,11.045361017187261,11.5,32.0,44.0,43.56604182158393,215.00232556881798,216.0092590608097,216.08331726442927,209.0861066642162
105,17,110,0,3.670333333333332,18.0,76.11832893594026,10.04987562112089,15.033296378372908,19.6468827043885,21.587033144922902,29.154759474226502,72.00694410957877,57.0350769263968,48.0,62.0,49.0,26.5,16.5,3.5,18.5,13.038404810405298,14.142135623730951,13.5,30.0,41.0,39.45883931389772,224.0022321317357,221.03619613086,218.11235636707977,206.196508214858
106,17,111,0,3.703699999999999,19.026297590440446,94.54099639838793,11.180339887498949,15.132745950421556,25.495097567963924,26.476404589747453,25.019992006393608,70.25667228100119,55.14526271584895,45.5,54.0,37.0,20.5,24.5,11.5,13.5,13.152946437965905,13.152946437965905,13.0,29.0,45.0,43.73785545725808,217.14741536569116,217.27862297059966,215.45533179756774,207.40781084616847
107,17,112,0,3.7370666666666654,21.095023109728988,93.74433316206373,11.180339887498949,15.132745950421556,26.30589287593181,28.442925306655784,26.019223662515376,73.17103251970687,58.077534382926416,47.5,56.0,38.0,21.0,26.0,12.0,13.0,12.165525060596439,14.142135623730951,14.0,27.0,43.0,46.389654018972806,220.38375620721234,219.44703233354514,216.453228204155,206.4097865896867
108,17,113,0,3.770433333333332,15.132745950421556,93.17188417113823,11.045361017187261,14.142135623730951,23.53720459187964,25.709920264364882,27.018512172212592,67.26812023536856,53.150729063673246,45.5,54.0,34.0,17.0,23.0,11.0,10.0,13.152946437965905,14.142135623730951,14.5,29.0,48.0,47.265209192385896,220.81893034792103,221.19900542271884,219.4288039433292,210.3734774157617
109,17,114,0,3.803799999999999,10.198039027185569,82.71033792700887,11.180339887498949,15.132745950421556,21.587033144922902,22.80350850198276,24.020824298928627,60.40695324215582,45.27692569068709,40.0,57.0,36.0,22.5,13.5,1.5,14.5,14.142135623730951,14.142135623730951,14.0,29.0,45.0,43.41658669218482,225.39077177204928,221.7746604100658,217.0829334609241,206.34194920083507
110,17,115,0,3.8371666666666657,10.198039027185569,91.2414379544733,10.04987562112089,13.038404810405298,24.515301344262525,26.476404589747453,28.0178514522438,61.204574992397426,48.16637831516918,43.0,48.0,33.0,12.5,20.5,8.5,6.5,14.035668847618199,14.035668847618199,14.0,29.0,43.0,42.42640687119285,220.22715545545242,220.38375620721234,218.38727069131113,210.28789789238942
111,17,116,0,3.870533333333333,9.219544457292887,87.86353054595519,11.045361017187261,15.132745950421556,22.561028345356956,24.041630560342615,27.018512172212592,62.12889826803627,47.042533945356304,42.5,55.0,37.0,19.0,16.0,4.0,12.0,13.152946437965905,14.142135623730951,14.0,30.0,43.0,41.43669871020132,223.4390297150433,223.57325421436258,219.5130975591206,209.40391591371923
112,17,117,0,3.9038999999999993,9.055385138137417,90.93404203047393,10.04987562112089,16.0312195418814,23.345235059857504,25.495097567963924,27.0,62.07253821135398,46.04345773288535,41.5,47.0,34.0,13.5,21.5,6.5,6.5,12.041594578792296,13.152946437965905,13.0,30.0,43.0,41.30375285612676,218.08255317654368,219.18485349129398,221.18318200080222,213.23461257497573
113,17,118,0,3.937266666666666,11.0,84.72307831990054,10.04987562112089,13.038404810405298,22.360679774997898,23.53720459187964,26.076809620810597,60.13318551349163,47.095647357266465,41.5,52.0,35.0,17.5,16.5,5.5,10.5,13.038404810405298,15.132745950421556,14.5,28.0,40.0,39.319206502675,229.7063342618135,225.88713996153035,219.91134577370036,211.85372312045877
114,17,119,0,3.970633333333333,6.324555320336759,85.15867542417507,10.04987562112089,14.035668847618199,20.615528128088304,21.587033144922902,27.018512172212592,57.07889277132134,43.04648650006177,40.0,47.0,33.0,13.0,17.0,5.0,7.0,14.0,14.035668847618199,14.0,30.0,42.0,37.21558813185679,229.31419493786248,227.49505489130968,223.503914954526,215.52262062252305
115,17,120,0,4.004,3.1622776601683795,78.64477096412705,8.0,13.152946437965905,20.615528128088304,20.615528128088304,27.073972741361768,51.24451190127583,38.118237105091836,36.5,51.0,35.0,16.0,8.0,2.0,11.0,13.038404810405298,14.035668847618199,14.5,29.0,40.0,39.20459156782532,234.61670869739862,230.8679276123039,225.07776433935007,214.03270778084362
116,17,121,0,4.037366666666666,1.0,79.62411694957753,8.06225774829855,11.180339887498949,19.4164878389476,19.6468827043885,28.071337695236398,46.2709412050371,35.12833614050059,35.5,50.0,34.0,14.0,4.0,5.0,8.0,12.041594578792296,13.038404810405298,13.0,29.0,39.0,38.2099463490856,225.43513479491168,224.64416306683776,221.73181999884454,212.6805115660577
117,17,122,0,4.070733333333333,2.23606797749979,78.44743462982075,8.0,11.045361017187261,18.681541692269406,19.6468827043885,28.0178514522438,45.09988913511872,34.058772731852805,35.0,50.0,35.0,14.5,2.5,5.5,9.5,13.038404810405298,13.038404810405298,13.0,29.0,38.0,38.118237105091836,229.63013739489858,227.79376637651873,221.90313201935658,212.8497122384712
118,17,123,0,4.1041,1.0,75.95393340703298,8.06225774829855,11.045361017187261,17.46424919657298,18.439088914585774,27.018512172212592,47.095647357266465,36.05551275463989,35.5,46.0,34.0,13.0,7.0,2.0,8.0,13.038404810405298,14.142135623730951,14.0,27.0,38.0,38.2099463490856,229.42754847663784,227.56317804073663,222.64994947226015,214.67417171145672
119,17,124,0,4.137466666666667,1.4142135623730951,84.34453153583817,10.04987562112089,15.132745950421556,21.587033144922902,22.80350850198276,28.0,54.147945482723536,39.05124837953327,38.5,49.0,34.0,13.5,12.5,0.5,7.5,14.035668847618199,14.142135623730951,14.0,30.0,40.0,40.049968789001575,226.2675407565124,225.31977276750482,221.38202275704322,213.3377603707323
120,17,125,0,4.170833333333333,3.1622776601683795,83.3606621854697,9.055385138137417,14.035668847618199,23.345235059857504,23.53720459187964,27.018512172212592,53.03772242470448,39.01281840626232,37.5,49.0,34.0,14.5,11.5,0.5,8.5,14.035668847618199,14.035668847618199,14.0,28.0,38.0,40.11234224026316,228.49288829195538,225.64130827488125,219.73848092675985,210.6086417980041
121,17,126,0,4.2042,1.0,77.10382610480494,10.0,13.038404810405298,18.24828759089466,19.6468827043885,25.019992006393608,48.093658625644196,35.05709628591621,35.0,48.0,35.0,16.5,6.5,4.5,8.5,12.041594578792296,13.038404810405298,12.5,27.0,36.0,43.18564576337837,230.62740513651016,226.88322987827902,222.0923231451281,212.042448580467
122,17,127,0,4.237566666666667,1.4142135623730951,74.52516353554684,9.0,12.041594578792296,19.4164878389476,19.4164878389476,26.019223662515376,48.093658625644196,36.05551275463989,35.5,50.0,35.0,16.5,5.5,5.5,9.5,13.038404810405298,14.142135623730951,13.5,28.0,37.0,39.05124837953327,231.5534495532295,227.8793540450736,221.19900542271884,211.1492363235065
123,17,128,0,4.270933333333334,1.4142135623730951,81.04936767180853,9.0,13.152946437965905,20.396078054371138,21.840329667841555,26.0,49.09175083453431,36.013886210738214,35.5,48.0,35.0,15.5,7.5,3.5,8.5,13.038404810405298,14.142135623730951,14.0,28.0,37.0,38.118237105091836,230.4256930118688,226.56566377101365,219.65882636488797,210.535032714273
124,17,129,0,4.3043000000000005,0.0,73.7563556583431,10.0,13.038404810405298,18.681541692269406,18.681541692269406,27.073972741361768,50.08991914547278,37.05401462729781,37.0,52.0,36.0,17.0,6.0,5.0,10.0,12.041594578792296,13.038404810405298,13.0,28.0,38.0,36.22154055254967,228.31557108528537,225.49944567559362,220.6558406206371,211.68372634664195
125,17,130,0,4.337666666666667,1.4142135623730951,75.50496672405067,10.0,13.038404810405298,18.439088914585774,19.6468827043885,25.079872407968907,49.16299421312742,36.124783736376884,35.5,50.0,35.0,17.5,6.5,3.5,9.5,12.041594578792296,13.038404810405298,13.0,25.0,36.0,32.2490309931942,229.42754847663784,226.56566377101365,221.81523843054606,212.76277869965884
126,17,131,0,4.371033333333334,2.23606797749979,74.96665925596525,10.0,13.038404810405298,19.4164878389476,19.4164878389476,27.16615541441225,52.23983154643591,39.20459156782532,38.0,48.0,36.0,15.0,10.0,1.0,8.0,9.219544457292887,10.04987562112089,10.5,25.0,37.0,35.22782990761707,228.21919288263203,227.3719419805355,224.57070156189118,216.52020690919358
127,17,132,0,4.404400000000001,11.0,92.26592003551474,11.0,15.033296378372908,26.1725046566048,27.16615541441225,26.0,63.00793600809346,48.0,42.5,41.0,34.0,11.5,25.5,10.5,4.5,10.04987562112089,11.045361017187261,10.5,28.0,37.0,32.2490309931942,224.0089283934906,222.03603311174518,220.05681084665386,212.08488866489287
128,17,133,0,4.437766666666668,8.0,84.71717653463199,10.04987562112089,14.035668847618199,23.345235059857504,24.515301344262525,26.019223662515376,58.008620049092706,44.0,40.0,47.0,36.0,15.5,16.5,3.5,8.5,9.219544457292887,9.055385138137417,9.0,24.0,35.0,33.13608305156178,227.2201575564985,225.22211259110415,222.27235545609355,213.283848427395
129,17,134,0,4.471133333333334,6.0,76.11832893594026,10.0,13.038404810405298,21.37755832643195,22.561028345356956,26.076809620810597,55.08175741568164,42.04759208325728,39.0,51.0,38.0,18.5,10.5,0.5,11.5,7.615773105863909,7.0710678118654755,7.0,21.0,33.0,29.274562336608895,224.1807306616695,220.32702966272657,214.5250568115529,205.62344224333955
130,17,135,0,4.504500000000001,5.385164807134504,77.78174593052023,9.0,15.033296378372908,21.213203435596427,22.20360331117452,25.079872407968907,54.230987451824994,39.20459156782532,36.5,48.0,37.0,17.5,11.5,2.5,10.5,9.219544457292887,10.0,10.0,20.0,30.0,29.068883707497267,230.3670983452281,226.3183598385248,219.27608168699112,210.23796041628637
131,17,136,0,4.537866666666668,7.0,81.61494961096282,11.0,15.132745950421556,23.194827009486403,25.179356624028344,23.08679276123039,56.142675390472796,41.048751503547585,37.5,46.0,36.0,18.0,15.0,0.0,10.0,9.055385138137417,9.0,9.0,21.0,29.0,31.016124838541646,226.2675407565124,225.17992805754247,219.14607000811125,210.11663427725088
132,17,137,0,4.571233333333335,7.0710678118654755,77.05841939723393,10.0,15.0,22.02271554554524,23.021728866442675,24.08318915758459,56.08029957123981,41.10960958218893,37.5,44.0,41.0,18.5,13.5,2.5,9.5,12.041594578792296,12.041594578792296,11.5,24.0,28.0,25.0,223.10983842045155,222.11033294288674,218.1857007230309,209.28927349484493
133,17,138,0,4.604600000000001,11.0,77.0,10.0,15.0,22.02271554554524,23.0,24.020824298928627,60.00833275470999,45.0111097397076,39.5,43.0,43.0,19.0,17.0,1.0,11.0,6.082762530298219,7.0710678118654755,7.0,22.0,24.0,24.020824298928627,224.0022321317357,223.0022421411946,217.00230413523263,208.00240383226344
134,17,139,0,4.637966666666668,8.0,74.00675644831355,8.0,15.0,20.0,21.02379604162864,25.019992006393608,56.00892785976178,41.012193308819754,37.0,42.0,43.0,17.5,13.5,2.5,10.5,5.0990195135927845,6.082762530298219,6.0,23.0,22.0,22.0,220.0,218.0022935659164,214.0,206.0218435020908
135,17,140,0,4.671333333333335,3.0,74.10802925459562,9.0,11.180339887498949,21.02379604162864,22.02271554554524,27.018512172212592,50.00999900019995,39.01281840626232,37.5,39.0,43.0,14.0,9.0,3.0,6.0,6.082762530298219,7.0710678118654755,6.5,26.0,23.0,21.02379604162864,221.27358631341428,221.27358631341428,218.33002542023394,210.28789789238942
136,17,141,0,4.704700000000002,4.0,73.00684899377592,9.055385138137417,12.041594578792296,20.0,22.0,27.0,52.03844732503075,40.01249804748511,38.0,43.0,42.0,15.5,9.5,2.5,7.5,9.0,10.04987562112089,10.0,27.0,23.0,20.0,223.37860237721964,220.22715545545242,216.11339616044165,206.03883129157958
137,17,142,0,4.738066666666668,5.0990195135927845,72.00694410957877,10.04987562112089,14.035668847618199,21.02379604162864,21.02379604162864,26.019223662515376,55.14526271584895,41.10960958218893,38.5,44.0,43.0,17.5,11.5,2.5,9.5,7.0710678118654755,8.06225774829855,7.5,28.0,24.0,25.0,226.63847863944022,224.57070156189118,220.44500447957535,211.28653530218153
138,17,143,0,4.771433333333335,5.0,70.00714249274856,10.04987562112089,14.035668847618199,18.0,18.027756377319946,25.019992006393608,54.08326913195984,40.049968789001575,37.5,42.0,41.0,16.5,12.5,1.5,7.5,10.0,11.0,10.5,29.0,26.0,25.019992006393608,219.0570701894828,217.02073633641555,211.0,199.00251254695254
139,17,144,0,4.804800000000002,4.0,77.00649323271382,10.04987562112089,13.152946437965905,21.0,22.0,24.020824298928627,51.03920062069938,38.0,36.0,41.0,40.0,16.5,10.5,2.5,7.5,7.0,7.0710678118654755,7.0,28.0,23.0,22.02271554554524,227.31695933211847,226.10838109190027,221.03619613086,212.00943375236866
140,17,145,0,4.838166666666669,5.0990195135927845,73.02739212103907,9.055385138137417,15.0,20.024984394500787,21.0,24.020824298928627,53.009433122794285,38.01315561749642,35.5,42.0,40.0,17.0,12.0,2.0,8.0,9.055385138137417,10.0,10.0,30.0,25.0,33.015148038438355,230.21728866442677,228.07893370497854,223.00896842952304,213.00234740490538
141,17,146,0,4.871533333333336,6.0,76.0,11.045361017187261,16.0312195418814,20.024984394500787,21.0,23.0,56.0357029044876,40.01249804748511,37.0,42.0,42.0,19.0,14.0,2.0,9.0,9.0,11.0,11.0,29.0,26.0,35.014282800023196,229.0785891348207,226.01991062736045,220.00909072126996,212.05895406702354
142,17,147,0,4.904900000000002,5.0,73.02739212103907,10.0,15.033296378372908,18.027756377319946,19.026297590440446,23.021728866442675,53.03772242470448,38.01315561749642,35.5,43.0,41.0,19.0,11.0,4.0,9.0,9.0,11.0,11.0,27.0,25.0,34.0147027033899,229.10696191953662,226.00884938426637,221.00226243185838,211.03791128610044
143,17,148,0,4.938266666666669,2.23606797749979,77.23341245859851,11.0,16.0312195418814,22.090722034374522,23.08679276123039,24.020824298928627,53.009433122794285,37.0,36.0,47.0,41.0,20.0,9.0,5.0,10.0,11.045361017187261,12.041594578792296,12.0,28.0,27.0,38.01315561749642,230.0195643852931,226.00221237855172,220.02045359466015,212.05895406702354
144,17,149,0,4.971633333333336,2.23606797749979,72.11102550927978,11.0,15.0,19.026297590440446,20.024984394500787,24.020824298928627,52.0,37.0,36.0,43.0,39.0,17.0,11.0,4.0,7.0,11.045361017187261,11.0,11.5,27.0,30.0,30.14962686336267,223.0,223.0022421411946,218.02064122463267,208.0600874747485
145,17,150,0,5.005000000000003,3.1622776601683795,72.24956747275377,10.04987562112089,15.0,20.024984394500787,21.02379604162864,24.0,52.03844732503075,37.05401462729781,35.5,44.0,38.0,17.0,11.0,3.0,8.0,13.038404810405298,13.0,13.0,29.0,32.0,31.064449134018133,223.00896842952304,219.03652663425797,213.11499243366245,201.2486024796197
146,17,151,0,5.038366666666669,7.0,67.7421582177598,10.0,14.0,19.235384061671343,20.396078054371138,26.019223662515376,57.0087712549569,43.01162633521314,39.5,52.0,42.0,21.0,10.0,3.0,13.0,11.045361017187261,12.0,11.5,25.0,31.0,28.284271247461902,235.05318547086316,229.10696191953662,222.14409737825582,211.19185590358356
147,17,152,0,5.071733333333336,8.06225774829855,70.71067811865476,11.0,14.0,18.24828759089466,19.235384061671343,24.0,57.0087712549569,43.01162633521314,39.0,53.0,43.0,24.0,9.0,3.0,15.0,11.180339887498949,13.038404810405298,12.5,23.0,31.0,30.59411708155671,224.26992665089986,224.32119828495925,219.32852071721086,210.28789789238942
148,17,153,0,5.105100000000003,6.082762530298219,75.8023746329889,11.0,13.038404810405298,18.24828759089466,19.235384061671343,26.019223662515376,56.08029957123981,43.04648650006177,40.0,52.0,41.0,20.5,9.5,1.5,11.5,13.152946437965905,14.035668847618199,13.5,21.0,31.0,31.400636936215164,229.31419493786248,226.2675407565124,222.22511109233358,211.19185590358356
149,17,154,0,5.13846666666667,5.0990195135927845,75.31268153505093,10.04987562112089,14.142135623730951,20.396078054371138,21.587033144922902,24.08318915758459,53.33854141237835,39.20459156782532,36.5,51.0,37.0,20.0,9.0,3.0,12.0,12.165525060596439,13.152946437965905,12.5,21.0,33.0,28.442925306655784,224.18296099391677,220.31114361284588,215.34158910902465,209.267771049438
150,17,155,0,5.171833333333336,6.082762530298219,66.49060083951716,10.0,14.142135623730951,16.278820596099706,17.46424919657298,25.019992006393608,55.14526271584895,41.048751503547585,38.0,52.0,38.0,20.0,10.0,2.0,12.0,12.165525060596439,13.152946437965905,12.5,21.0,34.0,27.51363298439521,228.87551201471948,226.88322987827902,222.89908030317218,211.7663807123312
151,17,156,0,5.205200000000003,6.082762530298219,72.56721022610694,10.04987562112089,15.132745950421556,16.492422502470642,18.681541692269406,24.0,55.14526271584895,40.049968789001575,37.0,51.0,36.0,19.5,11.5,1.5,11.5,12.165525060596439,13.038404810405298,12.5,19.0,33.0,24.351591323771842,228.87551201471948,226.88322987827902,221.90313201935658,210.85777196963835
152,17,157,0,5.23856666666667,5.385164807134504,73.7563556583431,11.0,15.033296378372908,17.72004514666935,18.973665961010276,23.08679276123039,54.230987451824994,39.20459156782532,36.5,51.0,35.0,20.0,11.0,2.0,12.0,12.165525060596439,13.038404810405298,12.5,18.0,34.0,28.460498941515414,226.97356674291393,225.97787502319778,221.90313201935658,211.85372312045877
153,17,158,0,5.271933333333337,7.0710678118654755,73.00684899377592,9.055385138137417,12.165525060596439,18.681541692269406,19.6468827043885,25.079872407968907,53.33854141237835,41.19465984809196,37.5,52.0,35.0,18.5,9.5,0.5,12.5,12.36931687685298,13.152946437965905,12.5,18.0,34.0,26.0,228.26519664635694,225.39077177204928,220.31114361284588,209.16022566444127
154,17,159,0,5.305300000000004,6.324555320336759,70.83078426785913,10.04987562112089,13.038404810405298,15.524174696260024,17.72004514666935,24.08318915758459,53.33854141237835,40.311288741492746,37.0,51.0,35.0,19.0,10.0,1.0,11.0,13.152946437965905,13.038404810405298,12.5,19.0,33.0,26.570660511172846,226.07299706068392,224.08257406590099,220.10224896624752,210.05237442123808
155,17,160,0,5.33866666666667,4.123105625617661,74.95331880577403,9.055385138137417,13.152946437965905,21.587033144922902,22.561028345356956,24.08318915758459,50.35871324805669,37.21558813185679,35.0,51.0,34.0,18.5,7.5,3.5,12.5,11.40175425099138,11.180339887498949,10.5,18.0,34.0,27.892651361962706,228.1622229905731,226.38462845343543,220.42232191862965,209.61870145576228
156,17,161,0,5.372033333333337,6.082762530298219,76.11832893594026,9.0,13.038404810405298,20.396078054371138,21.587033144922902,23.08679276123039,51.15662224971465,38.118237105091836,35.0,48.0,35.0,18.5,9.5,1.5,11.5,12.36931687685298,13.038404810405298,12.5,18.0,30.0,26.476404589747453,220.90722034374522,218.91550881561588,212.94130646729863,203.8872237291979
157,17,162,0,5.405400000000004,4.47213595499958,84.5931439302264,10.04987562112089,15.132745950421556,20.396078054371138,20.396078054371138,28.0178514522438,57.3149195236284,42.190046219457976,40.0,46.0,36.0,13.0,16.0,2.0,6.0,12.041594578792296,13.152946437965905,12.5,22.0,33.0,32.7566787083184,227.49505489130968,227.31695933211847,222.1823575354263,211.05923339195564
158,17,163,0,5.438766666666671,2.23606797749979,71.19691004531025,11.0,13.038404810405298,15.524174696260024,17.46424919657298,26.1725046566048,49.36598018878993,36.345563690772494,36.5,50.0,37.0,17.5,5.5,5.5,9.5,12.165525060596439,13.038404810405298,13.0,22.0,32.0,28.635642126552707,223.4390297150433,221.44299492194375,217.45114393812693,206.4097865896867
159,17,164,0,5.472133333333337,1.0,76.53103945458993,11.0,13.038404810405298,19.235384061671343,19.235384061671343,24.08318915758459,49.09175083453431,36.05551275463989,35.5,47.0,38.0,18.5,6.5,5.5,9.5,13.152946437965905,14.035668847618199,13.5,23.0,30.0,27.294688127912362,220.14540649307222,219.18485349129398,216.18741869035765,206.196508214858
160,17,165,0,5.505500000000004,1.4142135623730951,72.3394774656273,10.0,12.0,18.24828759089466,19.235384061671343,26.019223662515376,49.040799340956916,37.05401462729781,36.5,47.0,40.0,17.5,5.5,5.5,9.5,13.0,14.035668847618199,13.5,25.0,29.0,30.4138126514911,224.0,222.00225224082752,217.02073633641555,206.03883129157958
161,17,166,0,5.538866666666671,3.1622776601683795,74.06078584514209,9.055385138137417,13.0,20.024984394500787,20.024984394500787,24.08318915758459,49.040799340956916,36.05551275463989,34.5,42.0,39.0,16.5,8.5,4.5,8.5,13.0,12.0,12.5,27.0,27.0,26.019223662515376,229.0087334579186,225.03555274667156,218.05733191066977,209.0861066642162
162,17,167,0,5.572233333333338,2.0,77.02596964660685,12.0,16.0312195418814,20.0,21.0,24.020824298928627,54.0,38.01315561749642,37.0,42.0,44.0,19.0,11.0,5.0,8.0,8.0,8.06225774829855,8.5,29.0,26.0,24.020824298928627,226.17913254763357,223.1815404552984,217.14741536569116,206.15528128088303
163,17,168,0,5.605600000000004,7.0,77.41446893184762,10.04987562112089,14.035668847618199,22.02271554554524,24.08318915758459,24.020824298928627,55.00909015790027,41.0,37.5,40.0,48.0,20.0,11.0,5.0,10.0,9.055385138137417,9.055385138137417,9.0,33.0,24.0,22.090722034374522,221.44299492194375,219.3855054464629,216.390850083824,208.290662296705
164,17,169,0,5.638966666666671,7.0710678118654755,72.24956747275377,9.055385138137417,14.035668847618199,20.09975124224178,21.095023109728988,25.019992006393608,55.036351623268054,41.012193308819754,37.5,40.0,46.0,18.0,12.0,3.0,8.0,8.0,7.0710678118654755,7.5,33.0,22.0,23.194827009486403,224.50167037240502,222.44100341438852,217.33154395991392,206.24257562394823
165,17,170,0,5.672333333333338,3.1622776601683795,72.24956747275377,11.0,15.132745950421556,19.026297590440446,20.024984394500787,24.186773244895647,53.33854141237835,38.2099463490856,36.5,40.0,46.0,19.0,10.0,5.0,8.0,10.04987562112089,11.180339887498949,10.5,32.0,22.0,23.194827009486403,223.98660674245681,221.9954954497951,216.8340379184043,205.62344224333955
166,17,171,0,5.705700000000005,6.082762530298219,76.94153624668537,12.041594578792296,15.132745950421556,19.235384061671343,21.213203435596427,24.0,57.14017850864661,42.04759208325728,39.0,40.0,52.0,22.0,11.0,7.0,9.0,13.038404810405298,12.041594578792296,12.0,35.0,21.0,22.360679774997898,226.38462845343543,224.39696967650877,219.10727965998757,208.86598574205422
167,17,172,0,5.739066666666671,7.280109889280518,76.94153624668537,12.041594578792296,15.132745950421556,20.09975124224178,23.194827009486403,23.021728866442675,57.14017850864661,42.04759208325728,38.5,39.0,51.0,22.0,12.0,6.0,10.0,12.041594578792296,12.165525060596439,12.0,34.0,19.0,25.495097567963924,227.98245546532743,226.0,221.65062598603234,210.3734774157617
168,17,173,0,5.772433333333338,3.1622776601683795,72.00694410957877,11.045361017187261,14.142135623730951,19.1049731745428,20.223748416156685,27.073972741361768,55.326304774492215,41.19465984809196,39.5,41.0,53.0,20.0,8.0,8.0,9.0,13.038404810405298,13.152946437965905,12.5,34.0,19.0,23.345235059857504,224.62858233092243,222.64321233758733,217.44194627532195,209.16022566444127
169,17,174,0,5.805800000000005,3.0,73.16419889536138,12.041594578792296,14.317821063276353,19.235384061671343,20.223748416156685,25.079872407968907,54.3323108288245,40.11234224026316,38.5,41.0,54.0,22.5,6.5,9.5,9.5,13.152946437965905,13.152946437965905,12.5,34.0,18.0,30.4138126514911,232.2154172315008,229.24441105510076,221.90313201935658,210.48990474604713
170,17,175,0,5.839166666666672,1.0,71.19691004531025,12.165525060596439,15.297058540778355,17.26267650163207,18.439088914585774,26.019223662515376,54.3323108288245,39.11521443121589,38.5,41.0,54.0,21.5,6.5,9.5,8.5,12.165525060596439,13.152946437965905,13.0,36.0,19.0,28.442925306655784,226.0,224.8777445635739,219.4288039433292,209.16022566444127
171,17,176,0,5.8725333333333385,1.0,74.52516353554684,13.038404810405298,16.278820596099706,18.24828759089466,19.235384061671343,26.1725046566048,56.43580423808985,40.19950248448356,39.5,40.0,55.0,21.5,8.5,8.5,7.5,14.035668847618199,14.142135623730951,13.5,35.0,20.0,24.331050121192877,220.91174708466727,220.91174708466727,217.68095920406083,205.29247428973133
172,17,177,0,5.905900000000005,0.0,74.73285756613352,11.180339887498949,15.297058540778355,18.24828759089466,20.396078054371138,28.0178514522438,54.3323108288245,39.11521443121589,39.0,39.0,55.0,19.0,7.0,10.0,7.0,13.038404810405298,14.142135623730951,13.5,36.0,20.0,25.317977802344327,225.39077177204928,226.27637967759694,221.09726366465958,207.78113485107352
173,17,178,0,5.939266666666672,1.0,73.16419889536138,11.045361017187261,16.278820596099706,18.439088914585774,20.396078054371138,27.073972741361768,55.326304774492215,39.11521443121589,38.5,39.0,52.0,18.5,9.5,8.5,5.5,14.035668847618199,15.033296378372908,14.5,35.0,19.0,30.59411708155671,224.51057881534223,225.39077177204928,220.10224896624752,207.6968945362448
174,17,179,0,5.972633333333339,6.082762530298219,70.21395872616783,8.06225774829855,15.297058540778355,17.46424919657298,19.235384061671343,26.076809620810597,55.44366510251645,40.19950248448356,37.0,39.0,52.0,19.5,9.5,6.5,9.5,12.041594578792296,12.165525060596439,12.0,34.0,19.0,26.68332812825267,228.60008748904713,226.38462845343543,221.0,207.6968945362448
175,17,180,0,6.006000000000006,2.0,74.14849964766651,12.041594578792296,16.278820596099706,19.235384061671343,21.213203435596427,24.08318915758459,54.3323108288245,38.118237105091836,37.0,39.0,52.0,21.5,8.5,8.5,8.5,14.035668847618199,15.132745950421556,14.5,36.0,19.0,24.331050121192877,231.08872754853275,227.72790781983662,222.40953216982405,213.13845265460665
176,17,181,0,6.039366666666672,3.0,75.95393340703298,10.04987562112089,14.317821063276353,20.09975124224178,21.095023109728988,26.019223662515376,53.23532661682466,39.05124837953327,37.5,41.0,53.0,21.0,6.0,10.0,10.0,13.152946437965905,14.142135623730951,13.5,37.0,18.0,24.73863375370596,228.39658491317246,226.0,218.43534512527958,209.05740838343903
177,17,182,0,6.072733333333339,1.4142135623730951,75.95393340703298,12.165525060596439,15.132745950421556,20.223748416156685,21.213203435596427,25.0,53.23532661682466,38.118237105091836,37.5,41.0,53.0,22.0,6.0,11.0,9.0,13.152946437965905,14.142135623730951,13.5,35.0,18.0,24.515301344262525,226.73552875542023,224.62858233092243,218.3231549790356,209.95475703112803
178,17,183,0,6.106100000000006,2.23606797749979,75.53806987208503,12.041594578792296,14.142135623730951,19.026297590440446,20.09975124224178,24.08318915758459,52.3450093132096,38.2099463490856,37.0,40.0,49.0,20.5,7.5,7.5,8.5,15.132745950421556,15.132745950421556,14.5,34.0,16.0,22.561028345356956,227.55438910291315,225.1443981093023,219.66565503054863,210.261741645978
179,17,184,0,6.139466666666673,3.0,77.92945527847606,13.152946437965905,16.1245154965971,21.095023109728988,22.20360331117452,23.021728866442675,55.226805085936306,39.11521443121589,37.5,40.0,52.0,23.0,9.0,9.0,9.0,14.035668847618199,15.132745950421556,14.5,37.0,20.0,26.30589287593181,222.89459392277777,222.76669409945464,219.31712199461307,212.042448580467
180,17,185,0,6.172833333333339,3.0,76.11832893594026,11.180339887498949,15.297058540778355,18.110770276274835,20.396078054371138,27.073972741361768,56.43580423808985,41.19465984809196,39.5,41.0,54.0,20.5,8.5,8.5,8.5,15.033296378372908,15.132745950421556,15.0,35.0,20.0,30.066592756745816,224.62858233092243,222.29934772733816,217.83020910791964,208.47062143141417
181,17,186,0,6.206200000000006,1.4142135623730951,78.77182237323191,13.038404810405298,15.297058540778355,20.024984394500787,21.095023109728988,24.08318915758459,53.46026561849464,38.2099463490856,37.5,41.0,52.0,22.5,6.5,9.5,9.5,14.035668847618199,14.035668847618199,14.0,35.0,19.0,29.154759474226502,222.03603311174518,221.53103620034824,216.02314690791817,207.6968945362448
182,17,187,0,6.239566666666673,3.0,73.824115301167,10.04987562112089,13.341664064126334,20.223748416156685,20.223748416156685,26.076809620810597,52.3450093132096,39.11521443121589,37.5,39.0,50.0,18.5,7.5,7.5,7.5,12.041594578792296,13.152946437965905,12.5,36.0,21.0,23.345235059857504,230.36058690670154,227.16733920174352,220.90722034374522,210.535032714273
183,17,188,0,6.27293333333334,3.1622776601683795,75.8023746329889,11.045361017187261,15.132745950421556,18.24828759089466,20.223748416156685,24.020824298928627,53.23532661682466,38.118237105091836,36.5,38.0,49.0,19.5,9.5,7.5,7.5,13.038404810405298,13.038404810405298,13.0,36.0,19.0,24.515301344262525,230.25420734483876,225.97787502319778,220.00454540758926,209.69024774652732
184,17,189,0,6.306300000000007,2.23606797749979,77.92945527847606,11.045361017187261,12.36931687685298,21.095023109728988,21.37755832643195,27.0,49.36598018878993,37.12142238654117,37.5,41.0,53.0,20.0,2.0,12.0,9.0,13.038404810405298,14.142135623730951,14.0,36.0,20.0,25.317977802344327,221.90313201935658,221.53103620034824,218.01376103356412,211.6057655169159
185,17,190,0,6.339666666666673,2.0,74.54528824815154,10.198039027185569,13.152946437965905,19.235384061671343,21.213203435596427,27.018512172212592,52.23983154643591,39.11521443121589,38.0,39.0,48.0,16.5,8.5,6.5,5.5,12.041594578792296,14.142135623730951,13.5,36.0,21.0,23.345235059857504,233.23807579381202,230.05434140654683,222.81157959136684,213.60009363293827
186,17,191,0,6.37303333333334,2.23606797749979,72.83543093852057,9.055385138137417,13.341664064126334,19.235384061671343,20.396078054371138,28.0178514522438,52.3450093132096,39.11521443121589,38.0,40.0,51.0,17.5,6.5,8.5,7.5,13.038404810405298,14.142135623730951,13.5,37.0,21.0,23.53720459187964,236.32604596192948,233.0407689654323,224.8043593883357,214.39449619801343
187,17,192,0,6.406400000000007,1.0,74.67261881037788,11.045361017187261,13.341664064126334,19.1049731745428,20.09975124224178,26.076809620810597,51.35172830587107,38.118237105091836,37.5,39.0,49.0,18.0,7.0,7.0,7.0,13.152946437965905,14.035668847618199,14.0,35.0,20.0,27.459060435491963,230.58620947489467,227.37853900489378,221.0,211.7663807123312
188,17,193,0,6.4397666666666735,2.0,74.43117626371358,10.04987562112089,12.165525060596439,18.110770276274835,20.024984394500787,27.16615541441225,51.35172830587107,39.20459156782532,38.0,41.0,49.0,18.0,6.0,6.0,7.0,14.142135623730951,15.033296378372908,14.5,35.0,19.0,27.459060435491963,229.83689869122406,227.4906591488978,223.0874268084152,212.76277869965884
189,17,194,0,6.47313333333334,1.0,74.43117626371358,11.045361017187261,13.038404810405298,20.024984394500787,20.09975124224178,26.076809620810597,51.15662224971465,38.118237105091836,37.5,40.0,48.0,18.0,7.0,7.0,7.0,14.142135623730951,14.035668847618199,14.0,36.0,22.0,27.16615541441225,220.5379785887229,221.30521909796886,218.11235636707977,207.96393918177256
190,17,195,0,6.506500000000007,1.0,75.66372975210778,12.165525060596439,13.341664064126334,19.1049731745428,20.09975124224178,26.076809620810597,50.48762224545735,37.21558813185679,37.5,41.0,51.0,20.0,4.0,10.0,8.0,13.152946437965905,14.035668847618199,14.0,35.0,19.0,32.38826948140329,224.75097330156325,221.30521909796886,215.02790516581794,207.6174366473105
191,17,196,0,6.539866666666674,1.4142135623730951,79.51100552753688,13.038404810405298,15.132745950421556,21.02379604162864,22.090722034374522,25.079872407968907,52.3450093132096,37.21558813185679,37.5,42.0,51.0,21.5,5.5,10.5,8.5,12.041594578792296,13.152946437965905,13.0,35.0,20.0,30.59411708155671,228.97379762758882,223.40322289528413,217.0184323968819,208.61447696648477
192,17,197,0,6.573233333333341,3.0,74.54528824815154,10.04987562112089,12.165525060596439,20.09975124224178,20.09975124224178,25.079872407968907,50.24937810560445,38.118237105091836,36.5,38.0,47.0,17.5,7.5,5.5,7.5,13.038404810405298,14.035668847618199,13.5,35.0,21.0,24.331050121192877,224.62858233092243,224.28776159211185,220.10224896624752,209.86185932655795
193,17,198,0,6.606600000000007,3.0,77.23341245859851,11.180339887498949,14.317821063276353,20.09975124224178,21.095023109728988,25.019992006393608,53.33854141237835,39.11521443121589,37.5,41.0,47.0,19.0,9.0,6.0,8.0,12.041594578792296,12.165525060596439,11.5,36.0,20.0,26.476404589747453,230.471256342304,229.1571513176056,221.5784285529618,211.28653530218153
194,17,199,0,6.639966666666674,1.0,79.40403012442127,13.152946437965905,15.132745950421556,20.024984394500787,21.095023109728988,25.019992006393608,53.33854141237835,38.2099463490856,38.0,42.0,50.0,21.0,7.0,9.0,8.0,14.035668847618199,14.035668847618199,14.0,37.0,21.0,35.22782990761707,228.60008748904713,225.17770760001977,217.74526401279087,209.53758612716717
195,17,200,0,6.673333333333341,2.0,78.40918313565064,11.045361017187261,15.132745950421556,20.024984394500787,22.090722034374522,25.079872407968907,53.23532661682466,38.118237105091836,37.0,40.0,48.0,19.0,9.0,8.0,8.0,12.041594578792296,13.038404810405298,13.0,34.0,21.0,32.14031735997639,227.8793540450736,225.64130827488125,220.38375620721234,214.18916872708573
196,17,201,0,6.706700000000008,2.23606797749979,75.1065909225016,10.04987562112089,13.152946437965905,19.1049731745428,21.02379604162864,24.020824298928627,49.25444142409901,36.124783736376884,35.0,38.0,42.0,16.0,9.0,5.0,6.0,13.038404810405298,13.038404810405298,13.0,37.0,24.0,29.154759474226502,225.17770760001977,224.8043593883357,221.50846484954022,211.28653530218153
197,17,202,0,6.740066666666674,1.0,76.00657866263946,10.04987562112089,11.045361017187261,21.0,21.0,25.079872407968907,46.2709412050371,35.22782990761707,35.0,40.0,41.0,15.5,5.5,6.5,6.5,10.04987562112089,12.041594578792296,11.5,33.0,23.0,29.017236257093817,222.89908030317218,223.503914954526,221.27358631341428,213.11499243366245
198,17,203,0,6.773433333333341,3.0,78.0,10.04987562112089,12.041594578792296,20.0,21.0,22.0,47.042533945356304,35.014282800023196,33.5,38.0,38.0,16.0,9.0,3.0,7.0,12.041594578792296,13.0,12.5,33.0,27.0,33.0,222.3803048833237,223.1815404552984,218.08255317654368,209.0095691589263
199,17,204,0,6.806800000000008,4.0,75.0066663703967,10.0,14.035668847618199,18.0,20.0,23.08679276123039,51.088159097779204,37.05401462729781,35.0,41.0,40.0,17.5,10.5,3.5,7.5,12.0,12.041594578792296,12.0,30.0,27.0,30.0,227.05505940189926,226.03539545832197,220.00909072126996,211.00236965494014
200,17,205,0,6.840166666666675,3.0,75.05997601918082,12.041594578792296,15.033296378372908,20.09975124224178,22.02271554554524,23.0,53.03772242470448,38.01315561749642,36.5,44.0,41.0,19.5,10.5,4.5,9.5,10.0,12.0,11.0,29.0,25.0,31.016124838541646,229.21823662178366,227.14092541856036,223.0560467685196,213.00938946440834
201,17,206,0,6.8735333333333415,3.0,77.0,11.0,14.035668847618199,20.0,22.02271554554524,24.0,52.009614495783374,38.0,36.5,44.0,44.0,20.0,8.0,6.0,10.0,12.0,13.0,12.5,29.0,24.0,28.0178514522438,224.37691503361035,222.27235545609355,217.1128738697915,207.03864373589778
202,17,207,0,6.906900000000008,8.0,77.02596964660685,10.04987562112089,15.033296378372908,21.02379604162864,22.02271554554524,24.0,57.0350769263968,42.01190307520001,38.0,45.0,43.0,20.0,13.0,2.0,11.0,10.04987562112089,12.041594578792296,11.5,31.0,27.0,33.015148038438355,235.10423220350586,232.03448019637082,226.00884938426637,214.0
203,17,208,0,6.940266666666675,0.0,72.06247289678588,11.0,14.035668847618199,19.1049731745428,19.026297590440446,26.076809620810597,51.088159097779204,37.05401462729781,37.0,46.0,43.0,18.5,6.5,6.5,9.5,11.0,12.041594578792296,11.5,30.0,26.0,30.0,227.14092541856036,224.0557966221807,218.0,207.03864373589778
204,17,209,0,6.973633333333342,5.0,78.00640999302557,9.0,14.0,21.0,22.0,25.0,53.0,39.0,36.5,44.0,45.0,19.5,8.5,5.5,11.5,11.0,11.045361017187261,10.5,31.0,27.0,26.019223662515376,226.03539545832197,225.01999911119012,221.0,213.00938946440834
205,17,210,0,7.0070000000000086,6.082762530298219,74.06078584514209,9.055385138137417,12.041594578792296,19.026297590440446,21.02379604162864,25.019992006393608,52.0,40.01249804748511,37.0,45.0,42.0,18.5,8.5,3.5,10.5,14.0,15.0,14.5,30.0,27.0,26.019223662515376,231.07790893982056,229.01964981197574,223.0022421411946,213.0211257129208
206,17,211,0,7.040366666666675,2.0,77.10382610480494,9.0,13.0,20.024984394500787,21.02379604162864,26.019223662515376,50.00999900019995,37.013511046643494,36.0,45.0,41.0,17.0,7.0,6.0,9.0,11.045361017187261,12.0,11.5,28.0,26.0,33.015148038438355,229.0087334579186,227.00881040171106,221.0814329607984,212.19095173922943
207,17,212,0,7.073733333333342,0.0,83.15046602394962,11.0,14.035668847618199,22.20360331117452,22.090722034374522,26.019223662515376,51.03920062069938,37.013511046643494,37.0,48.0,43.0,19.5,5.5,7.5,10.5,13.0,13.0,12.0,30.0,27.0,34.0147027033899,229.05457864884517,226.00221237855172,220.11133546457802,212.235718011837
208,17,213,0,7.107100000000009,1.0,80.22468448052632,11.045361017187261,15.0,20.024984394500787,22.090722034374522,26.0,53.009433122794285,38.01315561749642,37.5,48.0,42.0,19.0,8.0,7.0,9.0,12.041594578792296,13.0,12.5,30.0,27.0,34.0,227.03523955544875,225.00222221124838,219.0821763631172,212.2851855405836
209,17,214,0,7.140466666666676,0.0,81.09870529176159,12.0,12.041594578792296,20.09975124224178,22.02271554554524,26.076809620810597,50.00999900019995,38.05259518088089,38.0,47.0,43.0,19.0,5.0,7.0,9.0,12.041594578792296,13.0,12.5,32.0,29.0,34.0,228.0,226.03539545832197,221.11083193728885,214.18916872708573
210,17,215,0,7.173833333333342,1.4142135623730951,80.05623023850174,11.045361017187261,13.0,21.095023109728988,21.02379604162864,26.019223662515376,51.0098029794274,38.01315561749642,37.5,46.0,43.0,18.5,6.5,6.5,9.5,12.041594578792296,13.0,13.0,29.0,26.0,31.0,227.03523955544875,224.0022321317357,220.00909072126996,213.03755537463343
211,17,216,0,7.207200000000009,1.0,81.09870529176159,12.0,14.0,20.09975124224178,21.02379604162864,26.019223662515376,51.0098029794274,37.013511046643494,37.5,49.0,45.0,21.0,4.0,9.0,11.0,14.0,14.0,13.5,28.0,25.0,27.0,222.08106627986098,220.00909072126996,216.0208323287363,209.11719202399405
212,17,217,0,7.240566666666676,2.0,78.10249675906654,11.0,13.0,21.095023109728988,21.02379604162864,26.0,48.0,35.0,36.0,47.0,43.0,19.0,3.0,10.0,10.0,12.041594578792296,12.041594578792296,12.5,28.0,25.0,34.0147027033899,226.14154859291116,223.03587155433092,218.0022935659164,211.00947846009194
213,17,218,0,7.273933333333343,0.0,77.05841939723393,10.0,13.038404810405298,19.026297590440446,21.095023109728988,26.0,49.01020301937138,36.0,36.0,47.0,44.0,19.5,3.5,8.5,10.5,13.0,14.0,13.5,30.0,26.0,32.01562118716424,226.17913254763357,223.0807028857494,217.02073633641555,209.00239233080563
214,17,219,0,7.3073000000000095,1.0,78.16009211867653,11.0,13.038404810405298,20.09975124224178,21.02379604162864,26.0,49.01020301937138,36.0,36.5,48.0,43.0,19.5,3.5,8.5,10.5,13.038404810405298,13.0,13.0,28.0,25.0,28.0,226.17913254763357,223.0201784592596,218.00917411888886,208.0600874747485
215,17,220,0,7.340666666666676,1.0,76.16429609731846,10.0,12.0,21.095023109728988,21.095023109728988,26.019223662515376,49.01020301937138,37.013511046643494,36.5,49.0,44.0,20.5,2.5,9.5,11.5,12.041594578792296,12.041594578792296,12.0,28.0,25.0,27.0,222.22511109233358,221.0814329607984,217.00921639414304,208.0
216,17,221,0,7.374033333333343,1.4142135623730951,76.05918747922567,11.0,14.035668847618199,20.024984394500787,21.095023109728988,26.0,52.03844732503075,38.01315561749642,37.5,46.0,43.0,18.5,7.5,6.5,8.5,13.0,14.035668847618199,14.0,31.0,26.0,30.01666203960727,227.43130831088317,225.26872841120226,220.18401395196702,208.1177551291576
217,17,222,0,7.40740000000001,1.0,76.00657866263946,11.045361017187261,12.0,19.026297590440446,20.024984394500787,26.019223662515376,50.039984012787215,38.05259518088089,37.5,46.0,45.0,19.5,4.5,7.5,9.5,12.0,14.035668847618199,13.5,27.0,24.0,27.018512172212592,225.22211259110415,223.10983842045155,218.05733191066977,210.02142747824567
218,17,223,0,7.440766666666676,1.0,77.05841939723393,11.045361017187261,12.041594578792296,21.02379604162864,21.02379604162864,27.0,50.00999900019995,38.0,38.0,47.0,44.0,18.5,4.5,7.5,8.5,12.0,13.038404810405298,12.5,27.0,24.0,26.0,219.3855054464629,219.22819161777528,215.11392330576837,208.0384579831335
219,17,224,0,7.474133333333343,1.0,77.00649323271382,11.045361017187261,12.0,21.02379604162864,21.095023109728988,27.018512172212592,49.040799340956916,37.05401462729781,37.5,45.0,44.0,17.5,4.5,8.5,8.5,13.0,14.0,13.5,27.0,24.0,27.018512172212592,223.1815404552984,221.0814329607984,217.02073633641555,208.00961516237658
220,17,225,0,7.50750000000001,0.0,77.10382610480494,11.0,13.038404810405298,21.095023109728988,22.090722034374522,26.019223662515376,50.039984012787215,37.013511046643494,37.0,45.0,41.0,17.0,7.0,6.0,8.0,12.041594578792296,14.0,13.5,28.0,25.0,26.019223662515376,223.0560467685196,221.02036105300343,217.02073633641555,210.00952359357422
221,17,226,0,7.540866666666677,1.0,74.06078584514209,10.0,13.038404810405298,19.026297590440446,19.1049731745428,25.019992006393608,49.040799340956916,36.013886210738214,35.5,43.0,40.0,16.5,7.5,5.5,7.5,12.041594578792296,13.0,13.0,29.0,27.0,32.14031735997639,225.22211259110415,221.11083193728885,217.03686322834653,209.02152999152983
222,17,227,0,7.574233333333344,4.0,80.09993757800315,11.0,14.035668847618199,21.02379604162864,22.20360331117452,24.08318915758459,53.08483775994799,39.05124837953327,37.0,44.0,40.0,18.0,11.0,3.0,8.0,11.045361017187261,13.0,12.5,30.0,26.0,32.01562118716424,227.31695933211847,224.1428116179504,219.0570701894828,210.03809178337153
223,17,228,0,7.60760000000001,5.0,79.02531240052139,10.04987562112089,15.033296378372908,20.024984394500787,22.02271554554524,24.020824298928627,54.00925846556311,39.0,36.5,44.0,42.0,19.0,11.0,4.0,10.0,12.041594578792296,14.0,13.5,29.0,27.0,30.066592756745816,231.10603626906848,229.05457864884517,224.0200883849482,214.00934559032697
224,17,229,0,7.640966666666677,8.0,77.05841939723393,11.0,14.035668847618199,21.02379604162864,22.02271554554524,23.021728866442675,56.0,42.01190307520001,38.0,46.0,43.0,21.5,11.5,3.5,11.5,13.0,13.0,12.5,28.0,26.0,29.017236257093817,226.10838109190027,223.03587155433092,218.0022935659164,208.0
225,17,230,0,7.674333333333344,5.0,77.10382610480494,10.0,14.0,21.095023109728988,22.090722034374522,26.019223662515376,55.00909015790027,41.012193308819754,38.5,48.0,44.0,20.0,9.0,4.0,11.0,13.0,13.0,13.0,28.0,27.0,26.076809620810597,224.1428116179504,222.03603311174518,217.02073633641555,207.0024154448445
226,17,231,0,7.707700000000011,3.0,74.10802925459562,10.0,14.0,19.1049731745428,21.095023109728988,25.019992006393608,52.009614495783374,38.01315561749642,36.5,47.0,43.0,20.0,7.0,7.0,11.0,13.038404810405298,14.0,13.5,27.0,26.0,29.068883707497267,225.17992805754247,223.14345161801185,218.08255317654368,207.02173798903343
227,17,232,0,7.741066666666677,10.0,78.05767098754612,9.0,13.038404810405298,20.09975124224178,22.02271554554524,23.0,55.00909015790027,42.0,37.0,46.0,43.0,21.5,10.5,2.5,13.5,12.0,13.0,13.0,28.0,26.0,29.017236257093817,229.05457864884517,226.00884938426637,219.0,210.00238093888365
228,17,233,0,7.774433333333344,3.1622776601683795,72.06247289678588,10.04987562112089,12.0,19.026297590440446,21.02379604162864,25.019992006393608,50.00999900019995,38.01315561749642,36.5,47.0,44.0,20.5,4.5,6.5,11.5,12.041594578792296,14.0,13.5,26.0,25.0,29.154759474226502,223.14345161801185,221.14474897677312,218.05733191066977,208.02163349036562
229,17,234,0,7.807800000000011,2.0,79.1012010022604,10.04987562112089,13.038404810405298,22.090722034374522,23.08679276123039,25.0,50.039984012787215,37.013511046643494,36.0,47.0,43.0,20.0,5.0,7.0,12.0,11.045361017187261,13.0,12.5,26.0,24.0,27.0,228.1074308302998,224.03571143904713,219.00228309312212,210.0
230,17,235,0,7.841166666666678,1.0,72.17340230306452,10.04987562112089,13.0,19.1049731745428,20.09975124224178,25.019992006393608,49.040799340956916,36.05551275463989,35.5,49.0,44.0,21.5,2.5,9.5,12.5,12.041594578792296,13.0,12.5,27.0,25.0,25.019992006393608,231.07790893982056,226.01991062736045,219.00228309312212,210.0
231,17,236,0,7.874533333333344,4.123105625617661,71.17583859709698,10.04987562112089,13.0,20.09975124224178,20.09975124224178,24.020824298928627,51.0098029794274,38.01315561749642,36.0,49.0,44.0,22.5,4.5,7.5,13.5,11.045361017187261,13.0,12.5,26.0,24.0,27.0,228.1074308302998,224.03571143904713,218.00917411888886,209.0
232,17,237,0,7.907900000000011,2.0,73.10950690573696,11.0,13.0,20.09975124224178,21.095023109728988,24.020824298928627,50.00999900019995,37.013511046643494,36.0,48.0,44.0,22.0,4.0,8.0,13.0,13.038404810405298,13.0,13.0,27.0,26.0,26.076809620810597,224.0557966221807,222.00900882621858,218.0022935659164,211.0
233,17,238,0,7.941266666666678,10.0,71.06335201775947,9.055385138137417,14.035668847618199,21.02379604162864,21.02379604162864,25.019992006393608,58.077534382926416,44.04543109109048,39.0,50.0,47.0,23.5,9.5,4.5,15.5,12.041594578792296,13.0,12.5,27.0,26.0,33.06055050963308,229.13969538253298,225.055548698538,218.00917411888886,207.0024154448445
234,17,239,0,7.974633333333345,3.1622776601683795,72.24956747275377,9.0,13.0,19.1049731745428,19.1049731745428,25.019992006393608,50.039984012787215,37.05401462729781,35.5,47.0,41.0,19.0,6.0,6.0,11.0,12.041594578792296,13.0,13.0,27.0,27.0,34.0147027033899,230.0347799790284,226.00221237855172,219.0091322296858,209.03827400741713
235,17,240,0,8.008000000000012,6.082762530298219,77.31752712031083,11.0,14.0,20.223748416156685,21.213203435596427,23.08679276123039,54.00925846556311,40.01249804748511,37.0,47.0,40.0,20.5,10.5,3.5,11.5,13.0,14.0,13.5,26.0,25.0,28.0178514522438,227.00220263248548,223.0022421411946,216.0208323287363,206.0606706773517
236,17,241,0,8.041366666666677,10.04987562112089,79.22752047110903,10.04987562112089,15.0,23.194827009486403,24.186773244895647,25.019992006393608,60.00833275470999,45.0111097397076,40.0,49.0,43.0,21.0,14.0,0.0,13.0,11.045361017187261,12.041594578792296,11.5,27.0,26.0,32.01562118716424,230.07824755939012,226.00221237855172,218.02064122463267,206.08736011701444
237,17,242,0,8.074733333333343,4.123105625617661,75.23961722390672,10.0,14.0,22.090722034374522,22.360679774997898,25.0,53.009433122794285,39.01281840626232,37.0,48.0,42.0,20.0,8.0,6.0,12.0,13.0,13.0,13.0,27.0,25.0,30.01666203960727,227.07928130941406,223.0201784592596,217.00230413523263,207.00966161027364
238,17,243,0,8.10810000000001,8.06225774829855,76.10519036176179,10.04987562112089,14.035668847618199,21.095023109728988,23.08679276123039,24.020824298928627,56.0357029044876,42.01190307520001,38.0,47.0,43.0,21.0,11.0,3.0,12.0,12.0,14.0,13.5,28.0,25.0,26.0,228.07893370497854,225.03555274667156,218.02064122463267,206.0024271701671
239,17,244,0,8.141466666666675,7.0,75.23961722390672,9.0,13.0,20.09975124224178,20.09975124224178,25.019992006393608,54.00925846556311,41.012193308819754,37.5,49.0,43.0,21.0,8.0,5.0,13.0,12.041594578792296,14.0,13.5,27.0,26.0,29.068883707497267,229.0349318335524,225.00888871331284,220.0,209.00239233080563
240,17,245,0,8.174833333333341,9.0,79.30952023559341,10.0,13.0,20.09975124224178,21.213203435596427,23.021728866442675,55.00909015790027,42.01190307520001,37.5,46.0,39.0,19.5,12.5,0.5,10.5,13.038404810405298,14.0,14.0,29.0,28.0,29.017236257093817,228.07893370497854,225.01999911119012,217.0,207.0024154448445
241,17,246,0,8.208200000000007,1.4142135623730951,81.39410298049853,11.0,14.0,20.223748416156685,20.223748416156685,25.019992006393608,51.03920062069938,37.05401462729781,36.5,48.0,40.0,19.0,7.0,5.0,10.0,13.038404810405298,14.0,14.0,27.0,27.0,32.01562118716424,227.07928130941406,225.01999911119012,221.00904958847272,212.0
242,17,247,0,8.241566666666673,1.0,78.5175139698144,11.0,14.0,20.223748416156685,20.223748416156685,26.019223662515376,51.03920062069938,37.05401462729781,37.0,49.0,40.0,18.5,6.5,6.5,9.5,12.041594578792296,13.0,12.5,27.0,27.0,28.071337695236398,229.0349318335524,227.00881040171106,223.0,212.00235847744713
243,17,248,0,8.274933333333339,4.47213595499958,89.1403387922662,10.0,14.0,21.213203435596427,23.194827009486403,27.0,55.036351623268054,41.048751503547585,39.0,41.0,36.0,11.5,16.5,2.5,4.5,13.0,14.0,13.5,29.0,29.0,35.05709628591621,224.22310318073826,222.14409737825582,219.18485349129398,210.11663427725088
244,17,249,0,8.308300000000004,2.8284271247461903,86.37129152675674,12.0,13.0,21.213203435596427,21.213203435596427,27.018512172212592,54.08326913195984,41.10960958218893,40.0,48.0,40.0,17.0,10.0,2.0,8.0,14.035668847618199,14.0,13.5,26.0,27.0,28.071337695236398,222.11033294288674,222.03603311174518,219.02054698132775,210.00238093888365
245,17,250,0,8.34166666666667,8.06225774829855,79.40403012442127,10.0,14.0,19.1049731745428,20.09975124224178,26.019223662515376,58.034472514187634,44.04543109109048,40.0,48.0,40.0,18.0,14.0,1.0,9.0,14.035668847618199,14.0,14.0,28.0,29.0,32.14031735997639,231.05410621756974,229.0349318335524,224.0200883849482,215.02092921387907
246,17,251,0,8.375033333333336,4.47213595499958,85.21150157109074,10.0,12.041594578792296,20.223748416156685,21.213203435596427,28.071337695236398,54.08326913195984,42.190046219457976,40.0,48.0,42.0,17.0,9.0,3.0,9.0,13.0,13.0,13.0,28.0,28.0,32.14031735997639,222.1823575354263,222.14409737825582,220.05681084665386,211.03791128610044
247,17,252,0,8.408400000000002,2.8284271247461903,82.60750571225353,10.0,14.0,19.4164878389476,19.4164878389476,28.0178514522438,54.00925846556311,40.01249804748511,39.0,49.0,39.0,16.0,10.0,2.0,9.0,13.038404810405298,13.0,12.5,25.0,25.0,31.064449134018133,227.17834403833479,225.14217730136662,221.0814329607984,211.05923339195564
248,17,253,0,8.441766666666668,5.0990195135927845,88.20430828479978,11.0,15.0,21.213203435596427,23.194827009486403,28.0,59.00847396772772,44.01136216933077,41.5,46.0,40.0,15.0,16.0,2.0,7.0,12.0,13.0,13.0,28.0,29.0,30.14962686336267,224.22310318073826,224.1428116179504,219.0821763631172,210.08569680013915
249,17,254,0,8.475133333333334,2.8284271247461903,85.14693182963201,10.0,16.0,19.026297590440446,20.09975124224178,28.0178514522438,56.00892785976178,40.01249804748511,39.0,44.0,39.0,13.5,14.5,0.5,4.5,13.0,13.0,13.0,27.0,27.0,31.144823004794873,226.10838109190027,225.055548698538,222.05629916757596,214.05840324546944
250,17,255,0,8.5085,1.4142135623730951,88.2779700718135,9.055385138137417,14.035668847618199,20.223748416156685,22.20360331117452,30.01666203960727,54.037024344425184,40.01249804748511,39.5,44.0,37.0,10.5,13.5,0.5,4.5,13.0,13.0,13.0,28.0,28.0,28.160255680657446,222.27235545609355,222.14409737825582,220.08180297334897,212.08488866489287
251,17,256,0,8.541866666666666,6.082762530298219,84.8528137423857,10.04987562112089,14.035668847618199,22.360679774997898,23.345235059857504,26.019223662515376,56.0357029044876,42.01190307520001,39.0,46.0,34.0,14.0,16.0,3.0,7.0,13.0,13.0,12.5,29.0,31.0,32.14031735997639,229.05457864884517,227.00881040171106,223.00896842952304,214.02102700435768
252,17,257,0,8.575233333333331,4.47213595499958,81.88406438373708,9.0,13.038404810405298,19.4164878389476,19.4164878389476,27.018512172212592,53.03772242470448,40.01249804748511,38.0,46.0,34.0,13.0,13.0,1.0,7.0,14.035668847618199,15.033296378372908,14.5,28.0,29.0,37.05401462729781,227.00881040171106,226.00221237855172,222.02026934494066,213.03755537463343
253,17,258,0,8.608599999999997,6.082762530298219,87.36704184073076,9.0,13.0,20.223748416156685,21.213203435596427,27.018512172212592,55.0,42.0,39.0,43.0,35.0,12.0,16.0,4.0,5.0,11.0,12.0,12.0,30.0,29.0,40.01249804748511,226.497240601293,227.26636354727023,223.22410264126944,215.14878572745886
254,17,259,0,8.641966666666663,5.0,93.13431161500041,8.06225774829855,14.0,23.08679276123039,24.186773244895647,27.0,54.00925846556311,40.01249804748511,37.5,37.0,32.0,7.5,19.5,5.5,1.5,11.045361017187261,12.0,11.5,27.0,27.0,36.05551275463989,225.49944567559362,224.37691503361035,222.27235545609355,216.14809737770074
255,17,260,0,8.67533333333333,4.0,92.0869154657707,9.055385138137417,14.035668847618199,22.090722034374522,23.08679276123039,25.179356624028344,52.08646657242167,38.05259518088089,36.0,37.0,33.0,10.0,17.0,4.0,3.0,10.0,12.041594578792296,11.5,29.0,29.0,36.013886210738214,228.21919288263203,228.0548179714693,224.0200883849482,216.0
256,17,261,0,8.708699999999995,9.055385138137417,92.19544457292888,8.0,12.0,21.095023109728988,23.194827009486403,26.076809620810597,55.00909015790027,43.01162633521314,38.5,38.0,32.0,9.0,20.0,8.0,3.0,10.04987562112089,10.0,10.0,27.0,27.0,34.0147027033899,221.38202275704322,222.27235545609355,222.22511109233358,214.1494805036893
257,17,262,0,8.74206666666666,7.0,92.34717104492157,10.04987562112089,13.0,22.090722034374522,23.194827009486403,25.079872407968907,55.00909015790027,42.01190307520001,38.5,41.0,33.0,12.0,18.0,6.0,4.0,10.04987562112089,10.0,10.0,29.0,29.0,30.066592756745816,224.26992665089986,223.22410264126944,222.1823575354263,214.1494805036893
258,17,263,0,8.775433333333327,5.0990195135927845,87.28115489611719,10.04987562112089,14.035668847618199,22.090722034374522,23.194827009486403,26.1725046566048,55.0,41.012193308819754,38.5,42.0,35.0,12.5,16.5,3.5,4.5,8.06225774829855,9.0,9.0,27.0,28.0,32.14031735997639,226.3183598385248,226.17913254763357,223.10983842045155,214.05840324546944
259,17,264,0,8.808799999999993,16.0,94.13288479590966,10.0,16.0,25.079872407968907,27.16615541441225,25.179356624028344,67.06713054842886,51.088159097779204,43.0,41.0,36.0,13.5,28.5,12.5,5.5,8.06225774829855,10.04987562112089,10.0,29.0,27.0,34.058772731852805,228.26519664635694,230.17601960239037,227.1079038695043,216.05786262017867
260,17,265,0,8.842166666666659,17.11724276862369,87.05170877128145,8.0,12.0,22.090722034374522,23.021728866442675,26.019223662515376,63.00793600809346,51.0098029794274,42.5,40.0,37.0,12.5,24.5,11.5,6.5,11.0,11.045361017187261,10.5,28.0,28.0,37.013511046643494,223.1815404552984,225.07998578283232,224.03571143904713,215.00232556881798
261,17,266,0,8.875533333333324,16.1245154965971,89.08984229416954,10.0,14.0,24.08318915758459,25.079872407968907,27.0,67.02984409947557,53.03772242470448,45.0,45.0,41.0,16.0,24.0,10.0,8.0,12.0,13.0,12.5,29.0,29.0,36.05551275463989,226.17913254763357,226.14154859291116,222.11033294288674,213.08449028495716
262,17,267,0,8.90889999999999,14.0,85.09406559801923,10.0,13.0,20.09975124224178,21.095023109728988,26.019223662515376,63.00793600809346,50.00999900019995,43.0,41.0,37.0,13.0,24.0,11.0,5.0,12.041594578792296,13.0,13.0,30.0,30.0,33.06055050963308,227.2201575564985,225.07998578283232,222.02026934494066,213.0
263,17,268,0,8.942266666666656,14.035668847618199,87.09190547921202,11.0,14.0,22.090722034374522,23.08679276123039,27.018512172212592,66.0,52.0,45.0,45.0,41.0,16.0,23.0,9.0,7.0,12.0,13.0,13.0,30.0,29.0,36.05551275463989,230.31283073246266,228.17756243767704,223.10983842045155,213.05867736377226
264,17,269,0,8.975633333333322,10.0,89.00561780022652,9.055385138137417,14.0,22.0,24.020824298928627,28.0178514522438,61.0,47.0,42.0,41.0,40.0,12.5,20.5,5.5,4.5,10.04987562112089,12.041594578792296,11.5,29.0,28.0,36.05551275463989,225.5681715136247,226.43321311150447,223.32263655975405,216.27991122617004
265,17,270,0,9.008999999999988,4.123105625617661,75.23961722390672,11.0,15.033296378372908,20.09975124224178,21.02379604162864,27.0,57.0350769263968,42.01190307520001,40.0,49.0,43.0,19.0,11.0,4.0,9.0,13.0,13.0,13.0,29.0,28.0,36.05551275463989,228.0548179714693,227.03523955544875,224.0200883849482,214.00934559032697
266,17,271,0,9.042366666666654,2.8284271247461903,76.32168761236873,10.0,14.0,17.26267650163207,19.1049731745428,28.0178514522438,54.00925846556311,40.01249804748511,39.0,47.0,40.0,15.5,10.5,3.5,7.5,12.041594578792296,13.0,12.5,28.0,28.0,38.05259518088089,227.14092541856036,226.10838109190027,224.1093483101497,217.0829334609241
267,17,272,0,9.07573333333332,3.1622776601683795,86.20904824900923,10.0,15.0,21.213203435596427,22.20360331117452,27.018512172212592,55.0,40.0,38.5,45.0,39.0,15.0,13.0,1.0,7.0,12.0,11.0,11.0,28.0,28.0,34.0147027033899,220.32702966272657,221.27358631341428,220.22715545545242,211.19185590358356
268,17,273,0,9.109099999999986,4.47213595499958,85.09406559801923,11.0,14.0,20.09975124224178,21.095023109728988,27.018512172212592,56.00892785976178,42.01190307520001,40.0,45.0,41.0,16.0,13.0,1.0,7.0,14.035668847618199,14.0,14.0,27.0,28.0,32.14031735997639,226.10838109190027,225.07998578283232,222.05629916757596,211.0213259365034
269,17,274,0,9.142466666666651,4.123105625617661,80.15609770940699,10.0,13.038404810405298,17.11724276862369,18.110770276274835,27.0,54.0,41.012193308819754,39.0,46.0,41.0,16.5,10.5,1.5,8.5,13.0,13.0,13.0,30.0,28.0,34.0,228.17756243767704,227.1079038695043,222.11033294288674,212.08488866489287
270,17,275,0,9.175833333333316,5.0990195135927845,86.20904824900923,10.0,13.038404810405298,20.223748416156685,22.20360331117452,28.0178514522438,56.00892785976178,43.0,40.5,48.0,42.0,17.0,11.0,1.0,9.0,12.041594578792296,14.0,13.5,28.0,29.0,39.05124837953327,226.10838109190027,224.0803427344755,221.02036105300343,212.00943375236866
271,17,276,0,9.209199999999983,5.0990195135927845,87.46427842267951,10.0,14.0,21.213203435596427,22.360679774997898,29.017236257093817,58.0,44.0,41.5,50.0,41.0,16.5,12.5,0.5,8.5,11.0,13.0,12.5,29.0,29.0,40.049968789001575,226.2211307548435,224.1093483101497,220.03636063160107,210.00238093888365
272,17,277,0,9.242566666666647,3.0,69.35416353759881,11.0,12.0,20.223748416156685,21.213203435596427,28.0178514522438,54.00925846556311,42.01190307520001,40.5,55.0,48.0,23.5,2.5,8.5,14.5,12.041594578792296,13.0,12.5,30.0,30.0,38.05259518088089,227.00881040171106,225.00222221124838,218.05733191066977,208.153789300123
273,17,278,0,9.275933333333317,5.0,75.53806987208503,13.038404810405298,15.033296378372908,19.235384061671343,20.396078054371138,25.019992006393608,58.008620049092706,43.0,40.5,53.0,44.0,23.5,9.5,4.5,12.5,13.038404810405298,14.0,13.5,27.0,28.0,35.12833614050059,227.07928130941406,225.01999911119012,221.0,210.03809178337153
274,17,279,0,9.30929999999998,6.324555320336759,82.49242389456137,10.0,14.0,21.213203435596427,22.360679774997898,28.0,58.034472514187634,44.04543109109048,41.0,51.0,42.0,18.5,11.5,1.5,10.5,14.035668847618199,14.0,14.0,28.0,29.0,37.21558813185679,224.03571143904713,223.00896842952304,218.0,210.00238093888365
275,17,280,0,9.342666666666648,7.0710678118654755,79.40403012442127,11.045361017187261,13.038404810405298,20.223748416156685,21.213203435596427,27.073972741361768,58.215118311311535,45.17742799230607,41.5,51.0,43.0,20.0,11.0,2.0,11.0,12.041594578792296,13.0,13.0,27.0,30.0,39.11521443121589,227.00881040171106,226.00221237855172,222.00225224082752,211.0
276,17,281,0,9.376033333333313,5.0990195135927845,87.28115489611719,11.045361017187261,13.038404810405298,21.37755832643195,22.20360331117452,28.071337695236398,57.0087712549569,44.0,41.5,50.0,43.0,18.5,10.5,1.5,10.5,13.038404810405298,13.0,13.0,28.0,29.0,37.12142238654117,223.0560467685196,223.0201784592596,220.00909072126996,211.0
277,17,282,0,9.409399999999978,8.06225774829855,75.4254598925323,10.0,12.0,19.1049731745428,20.09975124224178,26.0,56.00892785976178,44.01136216933077,40.0,53.0,45.0,23.0,7.0,4.0,14.0,13.0,14.0,14.0,26.0,29.0,35.22782990761707,225.00888871331284,223.03587155433092,217.05759604307792,208.0600874747485
278,17,283,0,9.442766666666644,1.4142135623730951,73.33484846919642,10.0,13.0,19.1049731745428,20.223748416156685,27.0,51.0098029794274,38.01315561749642,37.5,52.0,45.0,21.5,2.5,9.5,12.5,13.038404810405298,15.0,14.5,27.0,29.0,37.12142238654117,224.0089283934906,223.0560467685196,220.05681084665386,210.05951537600004
279,17,284,0,9.47613333333331,7.0,76.23647421018367,9.0,12.0,19.1049731745428,20.223748416156685,26.0,54.0,42.0,38.5,51.0,45.0,22.0,6.0,5.0,14.0,12.041594578792296,13.0,13.0,25.0,28.0,32.0,225.00222221124838,222.03603311174518,217.0829334609241,208.1177551291576
280,17,285,0,9.509499999999976,11.180339887498949,81.49846624323675,11.0,15.0,20.223748416156685,21.213203435596427,27.073972741361768,64.0,49.0,43.5,51.0,42.0,19.5,17.5,3.5,10.5,12.041594578792296,13.0,13.0,27.0,30.0,36.05551275463989,232.17450333746814,228.1074308302998,222.08106627986098,211.0213259365034
281,17,286,0,9.542866666666642,11.045361017187261,83.48652585896721,11.0,13.0,21.213203435596427,22.20360331117452,24.0,59.00847396772772,46.010868281309364,40.5,49.0,40.0,20.5,14.5,2.5,11.5,12.0,11.0,11.0,27.0,26.0,32.0,223.03587155433092,221.00226243185838,217.00921639414304,208.02163349036562
282,17,287,0,9.576233333333308,11.045361017187261,92.26592003551474,11.0,17.029386365926403,23.194827009486403,25.317977802344327,25.019992006393608,64.00781202322104,47.0,41.5,46.0,39.0,17.5,21.5,5.5,9.5,10.0,10.0,10.5,27.0,28.0,29.017236257093817,241.13274352522097,237.10335299189677,230.05434140654683,220.05681084665386
283,17,288,0,9.609599999999974,7.280109889280518,91.13725912051558,11.0,14.035668847618199,23.194827009486403,24.08318915758459,26.019223662515376,58.137767414994535,44.10215414239989,40.5,45.0,40.0,16.5,15.5,1.5,8.5,11.045361017187261,10.04987562112089,10.5,28.0,28.0,33.0,223.03587155433092,222.00900882621858,219.0091322296858,212.0
284,17,289,0,9.64296666666664,5.0990195135927845,82.38931969618392,11.0,13.038404810405298,18.24828759089466,20.223748416156685,25.179356624028344,54.230987451824994,41.19465984809196,38.5,48.0,40.0,19.0,10.0,3.0,10.0,11.0,10.04987562112089,10.0,28.0,30.0,32.01562118716424,220.02045359466015,219.03652663425797,216.05786262017867,210.08569680013915
285,17,290,0,9.676333333333304,1.4142135623730951,79.51100552753688,10.04987562112089,12.041594578792296,20.223748416156685,21.095023109728988,23.021728866442675,46.17358552246078,34.132096331752024,33.5,48.0,39.0,20.5,2.5,8.5,12.5,10.04987562112089,9.0,9.5,26.0,29.0,30.01666203960727,222.11033294288674,220.18401395196702,216.27991122617004,208.34586628968668
286,17,291,0,9.709699999999971,3.0,83.48652585896721,11.045361017187261,13.038404810405298,20.223748416156685,22.20360331117452,23.08679276123039,50.15974481593781,37.12142238654117,35.5,49.0,40.0,21.5,5.5,6.5,12.5,9.055385138137417,9.0,9.0,25.0,28.0,30.066592756745816,228.21919288263203,225.31977276750482,220.32702966272657,213.3377603707323
287,17,292,0,9.743066666666635,8.06225774829855,80.06247560499239,10.04987562112089,11.180339887498949,21.213203435596427,22.20360331117452,24.020824298928627,53.23532661682466,42.1070065428546,38.0,52.0,39.0,21.5,7.5,2.5,13.5,6.324555320336759,6.0,6.5,24.0,32.0,34.058772731852805,223.10983842045155,220.14540649307222,215.18828964420902,208.24024587000469
288,17,293,0,9.776433333333305,4.0,84.48076704197234,12.041594578792296,10.04987562112089,26.019223662515376,26.076809620810597,26.0,52.03844732503075,42.01190307520001,40.0,50.0,41.0,19.5,6.5,3.5,9.5,10.04987562112089,10.04987562112089,10.0,24.0,32.0,32.01562118716424,225.22211259110415,223.27113561766106,217.27862297059966,212.33935103979195
289,17,294,0,9.809799999999967,10.04987562112089,87.46427842267951,11.0,11.045361017187261,24.020824298928627,25.079872407968907,27.018512172212592,59.00847396772772,48.0,43.0,51.0,42.0,19.5,12.5,1.5,10.5,11.045361017187261,11.045361017187261,11.5,26.0,35.0,34.058772731852805,223.4390297150433,223.503914954526,218.58636736997119,212.6805115660577
290,17,295,0,9.843166666666637,2.0,77.64663547121665,11.0,10.04987562112089,22.090722034374522,23.08679276123039,28.0178514522438,51.03920062069938,41.012193308819754,40.0,50.0,40.0,17.0,6.0,4.0,8.0,11.045361017187261,11.045361017187261,12.0,25.0,36.0,34.132096331752024,223.72527796384566,222.64994947226015,218.51544567833184,212.52999788265186
291,17,296,0,9.8765333333333,4.123105625617661,75.13321502504735,12.041594578792296,14.142135623730951,15.297058540778355,16.76305461424021,26.1725046566048,56.43580423808985,42.2965719651132,40.0,55.0,42.0,22.5,7.5,4.5,12.5,12.165525060596439,12.0,12.5,24.0,36.0,30.265491900843113,223.80795338861395,221.90313201935658,219.8226557932553,210.77001684300356
292,17,297,0,9.909899999999968,4.123105625617661,77.78174593052023,9.055385138137417,11.045361017187261,22.090722034374522,22.20360331117452,27.0,51.088159097779204,40.049968789001575,38.0,48.0,37.0,15.5,8.5,1.5,8.5,10.04987562112089,12.041594578792296,12.5,22.0,36.0,31.144823004794873,231.5534495532295,228.63289352147035,221.73181999884454,212.94130646729863
293,17,298,0,9.943266666666633,6.082762530298219,74.96665925596525,13.038404810405298,14.035668847618199,16.492422502470642,18.681541692269406,24.515301344262525,57.55866572463264,43.56604182158393,40.0,56.0,44.0,26.0,7.0,4.0,15.0,13.152946437965905,12.041594578792296,13.0,23.0,37.0,30.4138126514911,226.97356674291393,225.07776433935007,223.0874268084152,213.03755537463343
294,17,299,0,9.976633333333298,7.0710678118654755,75.13321502504735,13.038404810405298,14.142135623730951,17.26267650163207,18.681541692269406,25.317977802344327,59.53990258641679,45.39823785126467,41.5,57.0,44.0,25.5,8.5,3.5,14.5,13.038404810405298,13.038404810405298,13.5,22.0,37.0,32.55764119219941,225.17770760001977,223.29352879114074,221.19900542271884,212.14381914163798
295,17,300,0,10.009999999999964,11.045361017187261,76.94153624668537,12.041594578792296,12.041594578792296,18.24828759089466,18.439088914585774,27.073972741361768,62.20128616033595,50.15974481593781,44.5,56.0,44.0,23.0,12.0,2.0,13.0,13.152946437965905,13.038404810405298,13.5,23.0,38.0,33.734255586866,226.97356674291393,224.8043593883357,221.73181999884454,211.6057655169159
296,17,301,0,10.04336666666663,8.246211251235321,73.97972695272672,12.041594578792296,14.035668847618199,15.297058540778355,17.46424919657298,25.317977802344327,59.53990258641679,45.5411901469428,41.0,57.0,45.0,26.0,8.0,4.0,15.0,13.038404810405298,13.038404810405298,13.5,23.0,37.0,31.78049716414141,224.08257406590099,223.0874268084152,220.00454540758926,209.95475703112803
297,17,302,0,10.076733333333296,3.605551275463989,71.386273190299,12.041594578792296,14.035668847618199,18.24828759089466,19.6468827043885,27.16615541441225,56.43580423808985,42.42640687119285,40.5,59.0,45.0,25.0,4.0,8.0,14.0,13.152946437965905,14.035668847618199,14.0,22.0,36.0,28.635642126552707,222.72853431924702,221.90313201935658,219.10727965998757,209.267771049438
298,17,303,0,10.110099999999962,13.0,85.70880934886448,9.0,11.045361017187261,24.186773244895647,25.317977802344327,27.0,60.00833275470999,49.0,42.5,50.0,39.0,17.5,15.5,4.5,11.5,14.035668847618199,14.035668847618199,15.0,21.0,36.0,33.24154027718932,223.80795338861395,221.73181999884454,216.52020690919358,208.40585404445815
299,17,304,0,10.143466666666628,8.0,91.54780172128658,11.0,14.035668847618199,28.160255680657446,29.154759474226502,27.0,60.00833275470999,46.0,42.0,50.0,40.0,18.0,15.0,1.0,10.0,13.038404810405298,13.038404810405298,13.5,22.0,34.0,35.22782990761707,225.22211259110415,224.26992665089986,219.27608168699112,212.235718011837
300,17,305,0,10.176833333333294,15.0,91.2414379544733,10.04987562112089,13.038404810405298,26.1725046566048,28.442925306655784,28.0178514522438,66.007575322837,53.0,45.5,52.0,37.0,16.5,21.5,10.5,9.5,12.165525060596439,13.152946437965905,14.0,24.0,40.0,35.510561809129406,232.34887561595818,228.26519664635694,221.09726366465958,212.042448580467
301,17,306,0,10.21019999999996,12.0,94.64142856064674,11.045361017187261,15.132745950421556,29.154759474226502,30.265491900843113,25.019992006393608,63.0317380372777,48.0,42.0,48.0,37.0,17.5,20.5,6.5,8.5,13.038404810405298,14.035668847618199,14.5,26.0,39.0,34.23448553724738,232.6972281742952,230.95670589961227,223.0874268084152,212.14381914163798
302,17,307,0,10.243566666666624,12.041594578792296,86.57944328765345,12.041594578792296,14.035668847618199,26.076809620810597,27.294688127912362,27.018512172212592,65.03076195155643,51.0098029794274,45.0,52.0,42.0,20.0,18.0,4.0,11.0,12.041594578792296,13.0,13.5,22.0,38.0,32.55764119219941,226.97356674291393,225.97787502319778,221.90313201935658,213.84573879317773
303,17,308,0,10.276933333333291,10.0,85.70880934886448,10.0,13.0,21.213203435596427,23.345235059857504,26.0,59.0,46.0,41.0,51.0,40.0,19.5,13.5,1.5,11.5,14.142135623730951,14.035668847618199,14.5,23.0,35.0,28.160255680657446,226.56566377101365,224.57070156189118,218.58636736997119,210.6086417980041
304,17,309,0,10.310299999999955,21.095023109728988,96.0260381354974,10.04987562112089,13.152946437965905,27.294688127912362,29.427877939124322,24.020824298928627,68.26419266350405,55.14526271584895,44.5,53.0,39.0,22.0,22.0,10.0,15.0,12.0,12.165525060596439,13.0,22.0,36.0,33.37663853655727,231.04977818643323,229.2596780945136,222.19360926903366,213.243991709028
305,17,310,0,10.343666666666625,15.0,87.82368700982668,12.041594578792296,13.152946437965905,25.179356624028344,26.30589287593181,24.020824298928627,64.1248781675256,51.03920062069938,43.5,50.0,38.0,20.0,20.0,8.0,11.0,13.038404810405298,13.038404810405298,14.0,26.0,40.0,35.22782990761707,234.94041797868667,232.24340679554285,224.28776159211185,215.45533179756774
306,17,311,0,10.377033333333287,12.041594578792296,88.45903006477066,10.04987562112089,14.035668847618199,22.561028345356956,24.515301344262525,24.020824298928627,60.13318551349163,46.09772228646444,40.0,50.0,34.0,18.0,18.0,6.0,11.0,14.035668847618199,13.038404810405298,13.5,25.0,39.0,37.48332962798263,231.78006816808042,227.06827167175956,221.19900542271884,210.1547049199708
307,17,312,0,10.410399999999957,13.038404810405298,85.90692637965812,10.198039027185569,13.152946437965905,19.6468827043885,20.8806130178211,26.019223662515376,62.12889826803627,49.040799340956916,42.5,57.0,39.0,22.0,14.0,4.0,14.0,15.033296378372908,15.033296378372908,15.5,22.0,36.0,32.55764119219941,222.50617968946392,221.65288177689007,217.83020910791964,208.86598574205422
308,17,313,0,10.44376666666662,20.024984394500787,85.90692637965812,10.04987562112089,14.035668847618199,21.587033144922902,23.769728648009426,25.019992006393608,69.1158447825099,55.08175741568164,45.0,58.0,40.0,24.0,20.0,9.0,17.0,14.035668847618199,14.035668847618199,14.5,21.0,37.0,35.6931365951495,229.87170334775874,228.1622229905731,221.53103620034824,210.7368026710095
309,17,314,0,10.477133333333288,13.152946437965905,79.62411694957753,10.04987562112089,15.033296378372908,19.6468827043885,20.615528128088304,25.019992006393608,63.198101237299845,48.16637831516918,41.5,57.0,41.0,24.0,14.0,1.0,16.0,15.132745950421556,14.035668847618199,15.0,23.0,37.0,34.23448553724738,233.54871012274933,229.87170334775874,222.9910312097776,212.14381914163798
310,17,315,0,10.510499999999952,12.041594578792296,87.29833904490967,12.165525060596439,14.035668847618199,21.37755832643195,23.345235059857504,25.079872407968907,63.0317380372777,49.01020301937138,43.0,52.0,37.0,19.5,18.5,6.5,10.5,13.038404810405298,14.035668847618199,14.0,24.0,38.0,35.510561809129406,222.3803048833237,222.64994947226015,218.74185699129464,210.77001684300356
311,17,316,0,10.543866666666618,11.045361017187261,85.98837130682264,12.165525060596439,15.132745950421556,23.345235059857504,24.331050121192877,28.071337695236398,66.06814663663572,51.0098029794274,45.5,56.0,43.0,21.5,16.5,3.5,12.5,13.152946437965905,14.142135623730951,14.0,23.0,37.0,38.3275357934736,214.4574549881631,213.67732682715777,210.85777196963835,203.71057900855322
312,17,317,0,10.577233333333284,11.045361017187261,90.79647570252934,11.045361017187261,14.317821063276353,22.360679774997898,23.345235059857504,29.068883707497267,65.06919393998976,51.0,45.5,55.0,43.0,20.0,16.0,4.0,12.0,14.142135623730951,14.035668847618199,14.5,22.0,35.0,30.4138126514911,222.32408776378685,222.5758297749331,218.82641522448793,209.86185932655795
313,17,318,0,10.61059999999995,7.280109889280518,85.70297544426332,11.180339887498949,13.152946437965905,19.6468827043885,21.840329667841555,29.017236257093817,60.207972893961475,47.095647357266465,43.5,59.0,42.0,21.5,9.5,0.5,13.5,14.142135623730951,15.033296378372908,15.0,23.0,37.0,36.6742416417845,228.42942017174582,225.64130827488125,219.73848092675985,211.6057655169159
314,17,319,0,10.643966666666616,7.280109889280518,90.09439494219383,12.041594578792296,15.132745950421556,23.53720459187964,24.515301344262525,29.017236257093817,63.12685640834652,48.041648597857254,44.5,58.0,44.0,22.0,12.0,1.0,13.0,14.035668847618199,15.033296378372908,15.0,21.0,36.0,35.510561809129406,221.38202275704322,221.5784285529618,217.74526401279087,210.77001684300356
315,17,320,0,10.677333333333282,11.180339887498949,89.94442728707543,12.165525060596439,15.033296378372908,23.345235059857504,25.495097567963924,27.073972741361768,65.06919393998976,50.039984012787215,44.5,55.0,42.0,21.5,16.5,3.5,12.5,15.132745950421556,14.035668847618199,14.5,23.0,35.0,33.37663853655727,227.2201575564985,224.37691503361035,220.51077071199947,212.46176126540982
316,17,321,0,10.710699999999948,12.041594578792296,91.0823802938856,12.041594578792296,14.035668847618199,23.53720459187964,24.515301344262525,27.018512172212592,65.12296062065974,51.088159097779204,45.0,55.0,41.0,21.0,17.0,5.0,12.0,14.142135623730951,14.035668847618199,14.0,22.0,35.0,36.345563690772494,222.3803048833237,221.65288177689007,218.74185699129464,210.85777196963835
317,17,322,0,10.744066666666614,13.038404810405298,90.4267659490264,12.041594578792296,15.033296378372908,22.80350850198276,23.769728648009426,26.019223662515376,66.03029607687671,51.0098029794274,44.5,62.0,46.0,28.0,12.0,0.0,19.0,14.142135623730951,14.142135623730951,14.5,21.0,37.0,35.35533905932738,228.79029699705362,225.07776433935007,217.1174797200815,207.96393918177256
318,17,323,0,10.77743333333328,10.04987562112089,86.49277426467485,12.041594578792296,16.1245154965971,22.561028345356956,24.515301344262525,26.019223662515376,64.19501538281614,48.093658625644196,43.0,58.0,42.0,24.0,14.0,0.0,15.0,13.038404810405298,13.152946437965905,13.5,23.0,36.0,39.319206502675,230.15212360523637,226.38462845343543,220.31114361284588,211.1492363235065
319,17,324,0,10.810799999999944,11.045361017187261,94.2019108086455,12.041594578792296,15.033296378372908,22.360679774997898,23.53720459187964,27.018512172212592,65.12296062065974,50.08991914547278,44.5,60.0,45.0,25.5,12.5,0.5,15.5,14.142135623730951,15.132745950421556,15.5,22.0,37.0,41.30375285612676,230.05434140654683,227.27076362788065,220.31114361284588,210.261741645978
320,17,325,0,10.844166666666611,9.219544457292887,87.13208364316786,12.165525060596439,16.0312195418814,21.587033144922902,22.561028345356956,27.073972741361768,64.07027391856539,48.041648597857254,43.5,59.0,45.0,25.0,12.0,2.0,16.0,15.033296378372908,15.033296378372908,15.0,22.0,36.0,38.3275357934736,228.42942017174582,225.5681715136247,219.65882636488797,210.6086417980041
321,17,326,0,10.877533333333275,10.04987562112089,80.4114419718985,12.041594578792296,14.142135623730951,22.561028345356956,22.561028345356956,25.079872407968907,61.29437168288782,47.16990566028302,42.0,59.0,44.0,26.5,9.5,1.5,17.5,12.165525060596439,13.038404810405298,13.0,21.0,36.0,34.52535300326414,227.06827167175956,223.51733713517615,218.55205329623422,210.3734774157617
322,17,327,0,10.910899999999945,15.0,76.2954782408499,11.045361017187261,14.142135623730951,19.4164878389476,20.396078054371138,23.08679276123039,63.198101237299845,49.09175083453431,41.5,58.0,44.0,28.0,12.0,0.0,19.0,10.198039027185569,11.045361017187261,11.5,22.0,37.0,34.713109915419565,228.87551201471948,224.39696967650877,216.6887168266959,206.6422028531442
323,17,328,0,10.944266666666609,13.0,89.44271909999159,12.165525060596439,15.132745950421556,22.561028345356956,24.73863375370596,26.0,66.12110101926616,51.03920062069938,44.5,59.0,43.0,25.0,15.0,3.0,16.0,10.198039027185569,10.198039027185569,10.5,23.0,38.0,41.593268686170845,228.96506283710622,225.07776433935007,219.10727965998757,209.05740838343903
324,17,329,0,10.977633333333277,9.055385138137417,75.7099729229908,11.045361017187261,15.033296378372908,19.6468827043885,20.615528128088304,24.020824298928627,59.135437767890075,44.10215414239989,39.5,54.0,38.0,22.0,13.0,0.0,14.0,9.219544457292887,11.045361017187261,10.5,27.0,42.0,37.48332962798263,233.94443784796422,231.24878378058554,223.29352879114074,211.25576915199264
325,17,330,0,11.01099999999994,17.11724276862369,82.0,11.045361017187261,15.132745950421556,20.615528128088304,22.80350850198276,24.020824298928627,67.26812023536856,52.15361924162119,43.5,56.0,38.0,23.0,20.0,8.0,15.0,8.246211251235321,8.06225774829855,7.5,29.0,41.0,40.19950248448356,228.3703133071372,226.497240601293,222.50617968946392,211.53250341259616
326,17,331,0,11.044366666666606,7.0710678118654755,70.21395872616783,11.045361017187261,15.033296378372908,20.396078054371138,22.561028345356956,24.020824298928627,57.14017850864661,42.1070065428546,38.5,56.0,43.0,25.5,7.5,6.5,16.5,7.280109889280518,9.055385138137417,9.0,27.0,38.0,38.3275357934736,228.56071403458645,225.64130827488125,217.5890622251036,207.54276667713572
327,17,332,0,11.077733333333272,14.0,79.2464510246358,10.04987562112089,16.0312195418814,20.615528128088304,22.360679774997898,25.019992006393608,65.06919393998976,49.040799340956916,42.0,48.0,34.0,16.0,24.0,9.0,9.0,7.280109889280518,9.055385138137417,8.0,29.0,39.0,40.19950248448356,232.07757323791543,230.07824755939012,224.1093483101497,211.11608181282637
328,17,333,0,11.111099999999938,21.02379604162864,79.40403012442127,10.04987562112089,16.1245154965971,19.235384061671343,21.213203435596427,26.0,73.10950690573696,57.0350769263968,46.5,52.0,44.0,22.0,25.0,10.0,14.0,8.06225774829855,9.055385138137417,8.0,28.0,36.0,41.10960958218893,226.00221237855172,227.00220263248548,223.00896842952304,211.00947846009194
329,17,334,0,11.144466666666604,14.142135623730951,71.449282711585,11.0,14.0,21.213203435596427,23.08679276123039,22.02271554554524,61.07372593840988,47.095647357266465,40.0,47.0,39.0,21.0,18.0,4.0,12.0,8.246211251235321,8.06225774829855,8.0,31.0,38.0,35.12833614050059,220.05681084665386,220.08180297334897,218.08255317654368,206.0606706773517
330,17,335,0,11.17783333333327,15.033296378372908,75.16648189186454,11.0,16.0312195418814,20.09975124224178,22.090722034374522,22.090722034374522,64.1248781675256,48.093658625644196,40.5,43.0,38.0,18.5,23.5,7.5,9.5,8.06225774829855,9.0,8.0,31.0,37.0,37.05401462729781,233.0772404161333,229.0349318335524,224.0200883849482,211.00236965494014
331,17,336,0,11.211199999999936,5.0,71.02816342831905,9.055385138137417,15.0,18.027756377319946,21.0,23.08679276123039,52.08646657242167,37.12142238654117,34.5,39.0,37.0,15.0,14.0,1.0,7.0,6.082762530298219,7.0,6.5,31.0,36.0,34.058772731852805,231.17525819170183,228.07893370497854,222.03603311174518,210.00952359357422
332,17,337,0,11.244566666666602,12.0,71.02816342831905,9.0,16.0,19.026297590440446,20.024984394500787,23.08679276123039,60.03332407921454,44.04543109109048,38.0,40.0,38.0,16.0,21.0,5.0,8.0,6.0,8.06225774829855,7.0,34.0,38.0,32.01562118716424,234.05341270744162,230.0021739027699,222.02026934494066,208.1177551291576
333,17,338,0,11.277933333333268,5.0990195135927845,71.00704190430693,9.0,17.0,21.0,22.0,24.331050121192877,55.08175741568164,38.118237105091836,35.5,39.0,40.0,15.5,15.5,2.5,7.5,8.0,9.0,8.0,34.0,36.0,33.0,233.173754955398,229.05457864884517,222.00225224082752,211.00947846009194
334,17,339,0,11.311299999999934,14.142135623730951,69.06518659932803,10.04987562112089,14.035668847618199,20.09975124224178,21.02379604162864,25.079872407968907,63.28506932918696,49.25444142409901,42.0,50.0,47.0,23.5,14.5,0.5,14.5,8.0,7.0,6.5,33.0,35.0,30.265491900843113,227.01982292302142,227.01982292302142,221.14474897677312,207.40781084616847
335,17,340,0,11.3446666666666,15.033296378372908,68.06614430096654,10.04987562112089,15.132745950421556,18.110770276274835,20.0,27.16615541441225,67.36467917239716,52.23983154643591,44.5,52.0,49.0,23.5,16.5,0.5,14.5,9.055385138137417,10.0,9.5,35.0,36.0,30.14962686336267,227.05505940189926,228.00877176108818,222.14409737825582,208.47062143141417
336,17,341,0,11.378033333333263,9.219544457292887,73.0,10.04987562112089,16.1245154965971,18.027756377319946,20.0,26.1725046566048,61.5223536610881,45.39823785126467,40.5,43.0,43.0,17.0,18.0,1.0,8.0,12.041594578792296,13.0,11.5,34.0,35.0,26.1725046566048,228.0350850198276,228.01973598791838,223.0807028857494,209.2390976849212
337,17,342,0,11.411399999999931,21.0,75.02666192761077,10.0,15.0,23.021728866442675,23.021728866442675,25.179356624028344,71.06335201775947,56.08029957123981,45.5,47.0,49.0,23.0,23.0,6.0,13.0,8.0,9.0,8.5,32.0,33.0,31.064449134018133,228.21919288263203,224.0200883849482,215.03720608304042,202.15835377248203
338,17,343,0,11.444766666666595,22.0,77.0,10.0,17.0,20.024984394500787,22.0,24.186773244895647,73.06161783043132,56.08029957123981,45.0,45.0,45.0,21.0,28.0,10.0,12.0,6.0,7.0710678118654755,6.5,33.0,33.0,30.066592756745816,227.14092541856036,224.0089283934906,218.02064122463267,205.08778608196053
339,17,344,0,11.478133333333265,20.0,77.02596964660685,11.045361017187261,15.033296378372908,21.02379604162864,23.0,25.317977802344327,71.25307010929424,56.22277118748239,46.0,47.0,49.0,23.0,23.0,6.0,12.0,10.04987562112089,10.0,9.0,36.0,35.0,32.01562118716424,234.21357774475842,230.0195643852931,221.02036105300343,208.0600874747485
340,17,345,0,11.511499999999929,21.0,76.02631123499285,10.0,15.033296378372908,22.02271554554524,23.021728866442675,25.179356624028344,71.11258679024411,56.08029957123981,45.5,46.0,48.0,22.0,24.0,7.0,12.0,9.055385138137417,9.0,9.0,37.0,36.0,32.0,232.17450333746814,228.00877176108818,219.03652663425797,206.11889772653063
341,17,346,0,11.544866666666596,22.02271554554524,75.0066663703967,11.045361017187261,15.0,23.0,24.0,24.08318915758459,72.11102550927978,57.14017850864661,46.0,50.0,49.0,25.5,22.5,5.5,15.5,6.0,7.0710678118654755,6.5,34.0,34.0,32.0,230.07824755939012,227.0,219.0570701894828,206.11889772653063
342,17,347,0,11.57823333333326,19.0,76.00657866263946,10.0,17.029386365926403,20.024984394500787,22.0,25.179356624028344,71.11258679024411,54.08326913195984,44.5,44.0,45.0,19.5,26.5,8.5,10.5,5.0990195135927845,6.082762530298219,5.5,34.0,34.0,35.014282800023196,226.01991062736045,224.0200883849482,218.14673960433146,206.3492185592182
343,17,348,0,11.611599999999926,13.0,78.02563681252464,9.0,15.0,21.0,23.021728866442675,27.16615541441225,64.07027391856539,49.09175083453431,42.5,42.0,44.0,16.0,21.0,5.0,8.0,5.0,7.0,6.0,35.0,35.0,34.0,229.01964981197574,225.00888871331284,219.0821763631172,208.19462048765814
344,17,349,0,11.644966666666592,3.0,68.0294054067798,9.0,16.0,18.0,18.027756377319946,24.08318915758459,52.03844732503075,36.05551275463989,34.5,38.0,40.0,15.0,13.0,4.0,6.0,6.082762530298219,7.0710678118654755,6.5,34.0,34.0,30.01666203960727,233.0085835328819,229.0349318335524,222.1823575354263,211.4000946073582
345,17,350,0,11.678333333333258,3.0,69.02897942168927,10.04987562112089,16.0,18.0,19.0,24.020824298928627,53.0,37.0,35.5,38.0,40.0,15.0,14.0,3.0,6.0,6.082762530298219,7.0710678118654755,6.5,34.0,35.0,31.0,226.00221237855172,225.055548698538,220.22715545545242,210.40199618824911
346,17,351,0,11.711699999999924,3.1622776601683795,69.02897942168927,10.0,16.0,18.027756377319946,18.0,24.020824298928627,53.0,37.0,35.5,38.0,40.0,15.0,14.0,3.0,5.0,4.123105625617661,6.082762530298219,5.5,34.0,35.0,35.0,227.03523955544875,224.0200883849482,219.14607000811125,206.3492185592182
347,17,352,0,11.74506666666659,4.47213595499958,75.02666192761077,9.0,15.0,19.0,20.024984394500787,25.079872407968907,53.0,38.0,36.0,38.0,40.0,14.0,14.0,2.0,6.0,7.0710678118654755,8.06225774829855,7.5,35.0,35.0,23.0,230.21728866442677,228.01973598791838,223.00896842952304,213.11499243366245
348,17,353,0,11.778433333333256,10.04987562112089,77.02596964660685,9.0,14.035668847618199,24.020824298928627,25.019992006393608,26.30589287593181,59.135437767890075,45.09988913511872,40.0,40.0,42.0,15.0,18.0,1.0,7.0,5.0,5.0990195135927845,5.0,33.0,33.0,31.0,223.32263655975405,222.08106627986098,216.00231480241132,204.02205763103166
349,17,354,0,11.811799999999922,13.038404810405298,78.00640999302557,8.0,14.035668847618199,24.0,25.019992006393608,25.179356624028344,60.07495318350236,46.04345773288535,39.5,40.0,41.0,15.5,19.5,3.5,8.5,4.123105625617661,5.0990195135927845,4.0,33.0,34.0,32.01562118716424,222.1823575354263,220.02045359466015,216.0208323287363,203.15757431117353
350,17,355,0,11.845166666666588,11.045361017187261,77.00649323271382,8.0,15.0,23.0,23.021728866442675,26.076809620810597,60.07495318350236,45.09988913511872,39.5,41.0,42.0,15.5,18.5,1.5,8.5,4.123105625617661,5.0,4.5,35.0,36.0,28.0,227.26636354727023,225.03555274667156,219.00228309312212,207.0869382650678
351,17,356,0,11.878533333333252,14.035668847618199,79.0,8.0,15.0,22.02271554554524,24.0,26.019223662515376,63.0317380372777,48.041648597857254,41.0,41.0,41.0,15.0,22.0,5.0,8.0,4.123105625617661,5.0990195135927845,5.0,32.0,33.0,34.0147027033899,223.1815404552984,221.02036105300343,216.0,204.0612653102004
352,17,357,0,11.91189999999992,7.0,80.0,10.0,15.033296378372908,22.0,23.0,26.476404589747453,58.309518948453004,43.289721643826724,39.5,41.0,41.0,15.0,17.0,0.0,6.0,6.082762530298219,7.280109889280518,6.5,33.0,33.0,34.0147027033899,222.08106627986098,222.00225224082752,219.0091322296858,208.08652046684813
353,17,358,0,11.945266666666583,6.0,77.02596964660685,11.0,16.0,19.026297590440446,21.0,24.331050121192877,57.14017850864661,41.19465984809196,38.0,40.0,38.0,15.0,18.0,1.0,6.0,6.0,5.0,4.5,35.0,34.0,33.015148038438355,227.05505940189926,225.00222221124838,220.00227271553356,210.03809178337153
354,17,359,0,11.978633333333253,7.0,79.00632886041473,9.0,15.0,20.024984394500787,22.0,25.179356624028344,56.08029957123981,41.10960958218893,37.5,41.0,40.0,15.5,15.5,0.5,7.5,5.0990195135927845,6.0,5.5,33.0,34.0,34.0147027033899,222.05629916757596,222.02026934494066,218.0,208.00961516237658
355,17,360,0,12.011999999999915,9.0,81.00617260431454,10.0,15.033296378372908,24.020824298928627,25.0,24.186773244895647,58.137767414994535,43.104524124504614,38.5,41.0,40.0,16.5,17.5,1.5,7.5,9.0,10.0,9.5,32.0,32.0,33.015148038438355,224.0557966221807,222.00900882621858,216.0092590608097,205.03902067655318
356,17,361,0,12.045366666666585,8.0,77.0,10.0,16.0312195418814,21.02379604162864,22.0,24.08318915758459,58.077534382926416,42.04759208325728,38.0,42.0,42.0,18.0,16.0,1.0,9.0,10.04987562112089,11.0,10.5,33.0,31.0,37.0,220.00227271553356,221.00904958847272,217.05759604307792,205.15603817582362
357,17,362,0,12.078733333333249,9.0,74.00675644831355,9.0,15.0,20.0,21.0,24.186773244895647,57.07889277132134,42.1070065428546,37.5,40.0,41.0,16.5,16.5,0.5,7.5,9.055385138137417,9.0,9.0,35.0,31.0,34.0147027033899,223.0022421411946,222.03603311174518,218.05733191066977,206.08736011701444
358,17,363,0,12.112099999999916,15.0,72.00694410957877,9.0,13.0,19.026297590440446,19.0,23.08679276123039,60.03332407921454,47.042533945356304,39.5,39.0,40.0,16.5,20.5,6.5,8.5,8.0,8.0,8.0,35.0,32.0,33.0,226.05530296810116,223.00896842952304,218.0,206.00970850908945
359,17,364,0,12.14546666666658,15.0,74.06078584514209,9.0,14.0,20.0,21.02379604162864,24.186773244895647,62.07253821135398,48.093658625644196,40.5,38.0,41.0,15.5,22.5,7.5,7.5,10.04987562112089,10.0,9.5,36.0,33.0,31.016124838541646,228.0350850198276,225.00222221124838,219.00228309312212,209.02152999152983
360,17,365,0,12.178833333333246,17.0,74.06078584514209,10.0,15.033296378372908,19.0,20.024984394500787,24.186773244895647,66.03029607687671,51.088159097779204,42.5,42.0,45.0,19.5,22.5,6.5,9.5,11.045361017187261,11.045361017187261,10.5,34.0,32.0,32.01562118716424,224.0200883849482,222.0,216.0208323287363,205.08778608196053
361,17,366,0,12.212199999999912,18.027756377319946,75.0,9.0,15.033296378372908,20.0,22.0,25.317977802344327,67.11929677819934,52.23983154643591,43.0,41.0,41.0,16.0,26.0,10.0,8.0,8.06225774829855,9.0,8.5,37.0,35.0,32.01562118716424,228.0350850198276,227.0,220.02045359466015,209.0861066642162
