,frame_seq,video_id,gap,time_seconds,m1,m3,m4,m5,m6,m7,m8,m9,m10,m11,m12,m13,m14,m15,m16,m17,e1,e2,e3,b1,b2,b3,label_measures,label_inf
0,0,8,0,0.0,14.0,53.009433122794285,4.0,8.0,14.0,15.0,9.0,35.0,27.0,20.0,14.0,15.0,5.5,20.5,12.5,2.5,5.0,5.0990195135927845,5.0,17.0,18.0,24.0,{},{}
1,1,8,0,0.0333666666666666,15.0,52.009614495783374,5.0,8.0,14.0,14.0,9.0,37.0,29.0,21.5,16.0,17.0,7.5,20.5,12.5,3.5,5.0990195135927845,4.123105625617661,4.5,18.0,18.0,23.0,{},{}
2,2,8,0,0.0667333333333332,16.0,52.0,4.123105625617661,7.0,13.0,15.0,9.0,36.013886210738214,29.017236257093817,21.0,17.0,17.0,8.0,19.0,11.0,4.0,5.0,5.0990195135927845,5.0,18.0,18.0,23.021728866442675,{},{}
3,3,8,0,0.1000999999999998,14.0,49.0,5.0990195135927845,9.0,13.0,14.0,8.06225774829855,36.0,27.0,20.0,17.0,17.0,9.0,19.0,10.0,4.0,4.0,4.123105625617661,4.5,17.0,19.0,23.0,{},{}
4,4,8,0,0.1334666666666664,8.0,46.01086828130936,5.0,10.0,12.041594578792296,13.0,9.0,32.0,22.0,18.0,19.0,18.0,9.5,13.5,3.5,4.5,5.0,5.0990195135927845,4.5,17.0,19.0,22.02271554554524,{},{}
5,5,8,0,0.166833333333333,4.0,44.04543109109048,6.0,8.06225774829855,12.041594578792296,12.041594578792296,10.04987562112089,28.0713376952364,20.024984394500787,18.0,20.0,18.0,9.0,9.0,1.0,3.0,6.0,4.123105625617661,4.5,17.0,19.0,22.02271554554524,{},{}
6,6,8,0,0.2001999999999996,1.0,44.01136216933077,7.0,8.06225774829855,10.0,11.0,10.04987562112089,26.0768096208106,18.027756377319943,17.5,18.0,17.0,7.5,8.5,0.5,0.5,5.0,5.0990195135927845,4.5,17.0,20.0,22.02271554554524,{},{}
7,7,8,0,0.2335666666666662,1.0,43.04648650006177,8.06225774829855,8.0,11.04536101718726,11.0,10.0,27.018512172212592,19.026297590440446,18.5,20.0,18.0,9.0,8.0,0.0,2.0,5.0,5.0,5.0,17.0,20.0,21.02379604162864,{},{}
8,8,8,0,0.2669333333333328,4.0,43.01162633521314,6.082762530298219,9.055385138137416,11.0,12.0,10.0,29.068883707497267,20.024984394500787,18.0,19.0,18.0,8.5,10.5,1.5,2.5,5.0,4.123105625617661,4.0,18.0,20.0,22.02271554554524,{},{}
9,9,8,0,0.3002999999999994,8.0,44.01136216933077,5.0,8.0,12.0,13.038404810405298,10.04987562112089,31.016124838541646,23.021728866442675,19.0,19.0,18.0,8.5,12.5,4.5,3.5,5.0,4.123105625617661,4.5,17.0,19.0,22.02271554554524,{},{}
10,10,8,0,0.333666666666666,9.0,44.01136216933077,5.0,8.0,12.0,13.038404810405298,9.055385138137416,31.016124838541646,23.021728866442675,18.5,19.0,18.0,9.5,12.5,4.5,4.5,5.0,5.0990195135927845,5.0,17.0,19.0,23.021728866442675,{},{}
11,11,8,0,0.3670333333333326,11.0,44.01136216933077,5.0,7.0,12.0,13.0,8.06225774829855,31.016124838541646,24.020824298928627,18.5,19.0,18.0,10.5,12.5,4.5,5.5,5.0990195135927845,5.0990195135927845,5.0,17.0,19.0,23.0,{},{}
12,12,8,0,0.4003999999999992,11.0,45.0111097397076,5.0,8.0,13.0,13.0,8.06225774829855,32.01562118716424,24.020824298928627,18.5,19.0,18.0,10.5,13.5,5.5,5.5,5.0,5.0990195135927845,5.0,17.0,19.0,22.0,{},{}
13,13,8,0,0.4337666666666658,10.0,44.01136216933077,4.0,8.0,13.0,14.0,10.04987562112089,32.01562118716424,24.020824298928627,19.0,19.0,18.0,8.5,13.5,5.5,4.5,5.0990195135927845,5.0,5.0,18.0,19.0,22.0,{},{}
14,14,8,0,0.4671333333333324,4.123105625617661,43.0,6.0,9.0,11.0,12.0,10.0,29.017236257093817,20.024984394500787,18.0,18.0,18.0,8.0,11.0,2.0,2.0,6.0,5.0,4.5,18.0,19.0,23.0,{},{}
15,15,8,0,0.5004999999999991,1.0,44.0,6.0,9.0,11.0,12.0,11.0,27.0,18.0,17.5,18.0,18.0,7.0,9.0,0.0,1.0,5.0,5.0990195135927845,5.0,18.0,19.0,21.0,{},{}
16,16,8,0,0.5338666666666656,2.0,44.0,6.0,8.06225774829855,12.0,12.0,11.0,27.018512172212592,19.0,18.0,18.0,18.0,7.0,9.0,1.0,1.0,5.0,4.0,4.5,18.0,19.0,21.02379604162864,{},{}
17,17,8,0,0.5672333333333321,3.0,43.0,5.0,8.0,11.0,12.0,11.0,27.0,19.0,17.5,18.0,18.0,7.0,9.0,1.0,2.0,5.0,4.0,4.0,18.0,19.0,21.0,{},{}
18,18,8,0,0.6005999999999987,4.0,43.0,5.0,8.0,10.0,11.0,10.04987562112089,27.018512172212592,19.026297590440446,17.0,18.0,18.0,8.0,9.0,1.0,3.0,5.0,5.0,5.0,18.0,18.0,22.0,{},{}
19,19,8,0,0.6339666666666652,5.0990195135927845,43.0,5.0990195135927845,7.0,11.0,13.0,10.04987562112089,27.018512172212592,20.024984394500787,17.5,18.0,18.0,8.0,9.0,1.0,3.0,5.0,5.0,5.0,19.0,19.0,22.0,{},{}
20,20,8,0,0.6673333333333318,8.0,46.01086828130936,4.0,8.0,12.0,13.038404810405298,10.04987562112089,30.01666203960727,22.02271554554524,18.0,18.0,19.0,8.5,11.5,3.5,4.5,5.0990195135927845,5.0,5.0,18.0,18.0,23.0,{},{}
21,21,8,0,0.7006999999999983,12.0,46.04345773288535,4.0,7.0,12.041594578792296,13.038404810405298,9.0,32.0,25.0,19.0,17.0,19.0,9.0,14.0,6.0,5.0,5.0990195135927845,5.0990195135927845,5.0,18.0,18.0,24.0,{},{}
22,22,8,0,0.7340666666666649,11.0,46.09772228646444,4.0,8.0,12.0,13.038404810405298,8.0,31.0,23.0,17.5,15.0,18.0,8.5,14.5,6.5,4.5,5.0,5.0,5.0,18.0,18.0,23.0,{},{}
23,23,8,0,0.7674333333333314,12.0,46.04345773288535,3.0,7.0,12.041594578792296,14.0356688476182,9.055385138137416,31.016124838541646,24.020824298928627,18.0,16.0,18.0,8.0,14.0,6.0,4.0,5.0990195135927845,4.0,4.5,19.0,18.0,22.0,{},{}
24,24,8,0,0.800799999999998,10.04987562112089,46.04345773288535,4.0,8.0,13.038404810405298,13.038404810405298,8.0,30.01666203960727,22.02271554554524,17.0,15.0,17.0,8.0,14.0,6.0,4.0,5.0990195135927845,5.0,5.0,18.0,18.0,22.02271554554524,{},{}
25,25,8,0,0.8341666666666645,11.04536101718726,47.09564735726647,3.0,8.0,13.038404810405298,13.0,9.0,31.016124838541646,23.021728866442675,17.5,15.0,18.0,7.5,14.5,5.5,3.5,5.0990195135927845,5.0,5.0,18.0,17.0,21.0,{},{}
26,26,8,0,0.867533333333331,10.0,46.04345773288535,4.0,7.0,12.0,14.0356688476182,9.055385138137416,30.01666203960727,23.021728866442675,18.0,16.0,18.0,8.0,13.0,5.0,4.0,6.0,5.0990195135927845,5.0,19.0,19.0,22.02271554554524,{},{}
27,27,8,0,0.9008999999999976,10.0,45.0111097397076,5.0,7.0,12.0,13.038404810405298,8.0,30.0,23.0,18.0,16.0,17.0,8.5,13.5,5.5,3.5,6.0,6.0,6.0,18.0,18.0,23.021728866442675,{},{}
28,28,8,0,0.934266666666664,9.0,46.04345773288535,5.0,8.0,11.04536101718726,12.0,9.0,31.0,23.0,18.5,16.0,18.0,8.0,14.0,5.0,3.0,6.082762530298219,6.0,6.0,19.0,19.0,23.021728866442675,{},{}
29,29,8,0,0.9676333333333308,8.0,46.01086828130936,6.0,7.0,12.041594578792296,13.0,8.0,29.0,22.0,18.0,16.0,17.0,8.5,12.5,4.5,2.5,5.0,5.0,5.0,18.0,19.0,21.0,{},{}
30,30,8,0,1.0009999999999972,8.0,46.01086828130936,5.0,8.0,12.0,12.041594578792296,9.0,30.0,22.0,18.0,17.0,18.0,8.5,12.5,4.5,3.5,5.0990195135927845,5.0,5.5,18.0,18.0,22.0,{},{}
31,31,8,0,1.0343666666666638,8.0,45.0111097397076,5.0,8.0,12.0,12.0,9.0,30.0,22.0,18.0,16.0,17.0,7.5,13.5,4.5,2.5,6.082762530298219,6.0,6.0,18.0,18.0,21.0,{},{}
32,32,8,0,1.0677333333333303,7.0,47.01063709417264,5.0,8.0,12.0,13.038404810405298,10.0,30.0,22.0,18.5,17.0,18.0,7.5,12.5,4.5,2.5,4.123105625617661,3.0,3.5,18.0,19.0,21.0,{},{}
33,33,8,0,1.1010999999999969,7.0,47.01063709417264,6.0,8.0,12.041594578792296,13.0,9.0,30.0,22.0,18.5,16.0,17.0,7.5,13.5,4.5,1.5,3.0,2.0,2.0,19.0,19.0,21.0,{},{}
34,34,8,0,1.1344666666666634,8.06225774829855,49.04079934095692,6.0,8.0,12.041594578792296,14.0356688476182,9.055385138137416,31.0,23.0,19.0,16.0,18.0,8.0,14.0,5.0,2.0,3.1622776601683795,3.0,3.0,19.0,19.0,22.0,{},{}
35,35,8,0,1.16783333333333,10.04987562112089,50.039984012787215,5.0,8.0,13.038404810405298,14.0356688476182,9.055385138137416,32.0,24.0,19.0,16.0,18.0,8.0,15.0,6.0,2.0,3.1622776601683795,3.0,3.0,19.0,19.0,22.02271554554524,{},{}
36,36,8,0,1.2011999999999965,11.04536101718726,50.039984012787215,5.0,7.0,13.038404810405298,14.0356688476182,9.055385138137416,32.0,25.0,19.5,16.0,18.0,8.0,15.0,7.0,2.0,4.0,3.0,3.0,20.0,18.0,22.0,{},{}
37,37,8,0,1.234566666666663,11.0,51.0881590977792,6.082762530298219,8.0,12.041594578792296,13.152946437965904,9.0,34.0147027033899,26.019223662515376,20.5,15.0,18.0,7.5,17.5,8.5,1.5,4.123105625617661,4.0,4.5,19.0,17.0,22.09072203437452,{},{}
38,38,8,0,1.2679333333333296,12.0,51.15662224971465,5.0990195135927845,7.0,13.038404810405298,13.038404810405298,9.0,33.015148038438355,26.019223662515376,20.0,15.0,19.0,8.0,16.0,8.0,2.0,6.0,5.0,5.0,20.0,17.0,23.08679276123039,{},{}
39,39,8,0,1.301299999999996,11.0,52.15361924162119,6.082762530298219,8.06225774829855,12.041594578792296,13.152946437965904,8.0,33.06055050963308,25.019992006393608,19.5,14.0,18.0,8.0,17.0,8.0,2.0,5.0990195135927845,5.0,5.0,21.0,16.0,22.02271554554524,{},{}
40,40,8,0,1.334666666666663,11.04536101718726,52.3450093132096,5.0,7.071067811865476,13.038404810405298,13.152946437965904,9.0,32.0624390837628,25.019992006393608,19.5,13.0,19.0,7.0,16.0,8.0,2.0,6.082762530298219,6.0,5.5,21.0,15.0,24.08318915758459,{},{}
41,41,8,0,1.3680333333333292,11.0,52.3450093132096,5.0990195135927845,7.071067811865476,13.038404810405298,14.142135623730953,8.0,31.064449134018133,24.020824298928627,18.5,12.0,18.0,7.0,16.0,8.0,1.0,6.082762530298219,6.0,6.0,21.0,15.0,23.194827009486403,{},{}
42,42,8,0,1.4013999999999958,10.0,52.46903848937962,5.0990195135927845,8.06225774829855,13.038404810405298,14.142135623730953,8.0,31.064449134018133,23.021728866442675,18.0,11.0,18.0,6.5,16.5,7.5,1.5,6.082762530298219,5.0,5.5,22.0,15.0,23.194827009486403,{},{}
43,43,8,0,1.4347666666666623,11.04536101718726,52.3450093132096,5.0,7.071067811865476,12.16552506059644,13.152946437965904,8.06225774829855,31.144823004794876,24.08318915758459,18.5,12.0,18.0,7.0,16.0,8.0,1.0,6.082762530298219,6.0,5.5,22.0,15.0,23.194827009486403,{},{}
44,44,8,0,1.4681333333333288,11.0,52.23983154643591,5.0990195135927845,7.071067811865476,13.038404810405298,14.142135623730953,9.055385138137416,32.14031735997639,25.079872407968907,19.5,13.0,18.0,6.5,16.5,7.5,1.5,6.082762530298219,6.0,5.5,21.0,14.0,23.194827009486403,{},{}
45,45,8,0,1.5014999999999954,11.04536101718726,52.3450093132096,5.0,7.071067811865476,13.152946437965904,15.132745950421556,8.06225774829855,31.144823004794876,24.08318915758459,18.5,12.0,18.0,7.0,16.0,8.0,1.0,5.0990195135927845,6.082762530298219,5.5,21.0,14.0,23.08679276123039,{},{}
46,46,8,0,1.534866666666662,11.0,52.3450093132096,5.0990195135927845,7.071067811865476,13.038404810405298,15.033296378372908,9.0,32.0624390837628,25.019992006393608,19.5,12.0,18.0,6.0,17.0,9.0,1.0,6.082762530298219,6.0,5.5,21.0,15.0,24.186773244895647,{},{}
47,47,8,0,1.5682333333333285,12.041594578792296,51.24451190127583,5.0,7.0,12.041594578792296,14.0356688476182,8.0,32.01562118716424,25.019992006393608,19.0,12.0,17.0,6.5,17.5,8.5,1.5,6.324555320336759,6.0,5.5,20.0,15.0,23.021728866442675,{},{}
48,48,8,0,1.601599999999995,11.0,51.24451190127583,5.0,7.071067811865476,12.041594578792296,14.0356688476182,9.0,32.01562118716424,25.0,19.5,13.0,18.0,6.5,16.5,7.5,1.5,6.082762530298219,5.0,5.0,20.0,15.0,23.021728866442675,{},{}
49,49,8,0,1.6349666666666616,10.0,49.25444142409901,5.0,7.071067811865476,12.041594578792296,14.0356688476182,9.0,31.016124838541646,24.0,19.0,13.0,18.0,6.5,15.5,7.5,1.5,5.0990195135927845,6.0,6.0,20.0,16.0,23.021728866442675,{},{}
50,50,8,0,1.668333333333328,10.04987562112089,46.2709412050371,4.0,8.0,12.041594578792296,13.152946437965904,10.0,32.01562118716424,24.020824298928627,19.0,14.0,19.0,6.5,15.5,6.5,1.5,6.324555320336759,6.082762530298219,5.5,20.0,15.0,22.02271554554524,{},{}
51,51,8,0,1.7016999999999949,7.0,46.09772228646444,6.082762530298219,8.0,11.04536101718726,13.038404810405298,9.0,30.01666203960727,22.02271554554524,18.5,15.0,18.0,7.5,13.5,4.5,1.5,6.082762530298219,6.0,5.5,20.0,15.0,23.021728866442675,{},{}
52,52,8,0,1.7350666666666612,5.0,45.09988913511872,5.0,9.055385138137416,12.0,12.041594578792296,10.04987562112089,29.068883707497267,20.024984394500787,17.5,15.0,18.0,6.5,12.5,2.5,1.5,6.082762530298219,6.0,6.0,20.0,15.0,22.09072203437452,{},{}
53,53,8,0,1.7684333333333278,4.0,45.09988913511872,6.082762530298219,9.0,11.04536101718726,11.04536101718726,10.0,29.017236257093817,20.024984394500787,18.0,15.0,18.0,6.5,12.5,2.5,0.5,6.082762530298219,6.0,6.0,20.0,16.0,21.095023109728988,{},{}
54,54,8,0,1.8017999999999943,2.23606797749979,43.04648650006177,7.0,9.0,11.04536101718726,12.0,11.0,29.017236257093817,20.024984394500787,19.0,17.0,19.0,7.0,11.0,1.0,0.0,6.082762530298219,6.0,6.0,20.0,16.0,21.095023109728988,{},{}
55,55,8,0,1.8351666666666608,4.0,42.1070065428546,6.0,10.04987562112089,11.0,12.041594578792296,11.04536101718726,31.064449134018133,21.02379604162864,19.0,17.0,20.0,7.5,12.5,2.5,1.5,7.071067811865476,7.0,6.5,21.0,17.0,22.09072203437452,{},{}
56,56,8,0,1.868533333333328,8.0,44.10215414239989,6.0,9.0,12.0,13.038404810405298,11.0,34.0,25.0,21.0,18.0,21.0,8.5,14.5,4.5,2.5,6.082762530298219,6.082762530298219,6.0,21.0,17.0,22.02271554554524,{},{}
57,57,8,0,1.901899999999994,9.0,44.10215414239989,6.0,9.0,12.0,12.041594578792296,10.0,34.0,25.0,20.5,18.0,21.0,9.5,14.5,4.5,3.5,6.0,7.0,7.0,21.0,17.0,21.095023109728988,{},{}
58,58,8,0,1.9352666666666605,9.0,44.04543109109048,5.0,9.0,12.041594578792296,13.0,11.04536101718726,34.0147027033899,25.019992006393608,20.5,19.0,21.0,9.0,14.0,4.0,3.0,6.082762530298219,6.0,6.5,20.0,16.0,22.09072203437452,{},{}
59,59,8,0,1.968633333333327,8.0,45.09988913511872,5.0,8.06225774829855,12.0,13.038404810405298,11.04536101718726,32.0624390837628,24.020824298928627,20.0,18.0,21.0,8.5,12.5,3.5,3.5,6.082762530298219,7.071067811865476,7.0,20.0,17.0,22.09072203437452,{},{}
60,60,8,0,2.0019999999999936,8.0,44.04543109109048,5.0,8.06225774829855,11.04536101718726,12.041594578792296,10.04987562112089,31.064449134018133,23.021728866442675,19.0,18.0,20.0,9.0,12.0,3.0,3.0,6.082762530298219,6.0,6.0,20.0,17.0,22.02271554554524,{},{}
61,61,8,0,2.0353666666666603,7.0,43.04648650006177,5.0,9.055385138137416,12.041594578792296,13.0,11.04536101718726,32.0624390837628,23.021728866442675,19.5,19.0,21.0,9.0,12.0,3.0,4.0,7.071067811865476,7.0,7.0,21.0,18.0,23.021728866442675,{},{}
62,62,8,0,2.068733333333327,8.0,43.01162633521314,5.0,8.0,12.0,12.0,10.04987562112089,31.016124838541646,23.021728866442675,19.0,19.0,20.0,9.5,11.5,2.5,4.5,7.071067811865476,6.0,6.5,22.0,19.0,23.021728866442675,{},{}
63,63,8,0,2.102099999999994,9.0,43.04648650006177,5.0,9.0,11.0,12.041594578792296,10.04987562112089,33.015148038438355,24.020824298928627,19.5,19.0,21.0,10.0,13.0,4.0,5.0,7.071067811865476,7.0,7.0,23.0,20.0,24.0,{},{}
64,64,8,0,2.1354666666666606,9.0,43.01162633521314,6.0,10.0,11.0,12.0,9.0,34.0,24.0,19.5,20.0,21.0,11.5,13.5,3.5,5.5,7.071067811865476,7.071067811865476,7.0,22.0,21.0,23.021728866442675,{},{}
65,65,8,0,2.1688333333333274,8.0,43.01162633521314,6.0,8.06225774829855,10.0,11.0,9.0,31.016124838541646,23.0,19.0,19.0,20.0,10.5,11.5,3.5,4.5,8.06225774829855,7.0,7.0,22.0,21.0,24.020824298928627,{},{}
66,66,8,0,2.202199999999994,6.0,43.0,5.0,8.06225774829855,11.0,11.0,10.0,29.017236257093817,21.0,18.0,19.0,19.0,9.0,10.0,2.0,4.0,7.071067811865476,7.0,7.0,21.0,20.0,24.0,{},{}
67,67,8,0,2.235566666666661,5.0,44.01136216933077,6.082762530298219,8.0,11.0,11.0,9.0,28.0178514522438,20.024984394500787,17.5,19.0,18.0,9.5,9.5,1.5,3.5,7.071067811865476,7.071067811865476,7.0,22.0,22.0,24.0,{},{}
68,68,8,0,2.268933333333328,5.0,44.0,6.0,8.0,11.0,12.041594578792296,10.0,29.0,21.0,18.5,19.0,19.0,9.0,10.0,1.0,3.0,7.0,6.082762530298219,6.0,21.0,21.0,23.021728866442675,{},{}
69,69,8,0,2.3022999999999945,6.0,44.01136216933077,6.082762530298219,8.0,11.0,12.041594578792296,10.04987562112089,30.0,22.0,19.0,20.0,19.0,9.5,10.5,2.5,3.5,7.0,7.0,7.0,21.0,21.0,23.021728866442675,{},{}
70,70,8,0,2.335666666666661,8.0,44.0,6.0,9.055385138137416,11.0,11.0,10.0,33.015148038438355,24.0,20.0,20.0,20.0,10.0,13.0,4.0,4.0,7.0,7.071067811865476,7.0,21.0,21.0,23.0,{},{}
71,71,8,0,2.369033333333328,8.0,45.0111097397076,6.082762530298219,9.0,11.04536101718726,12.0,10.0,33.015148038438355,24.020824298928627,20.0,20.0,19.0,9.5,13.5,4.5,3.5,6.0,7.0,6.5,21.0,21.0,22.0,{},{}
72,72,8,0,2.4023999999999948,6.082762530298219,45.0111097397076,6.0,9.0,12.0,12.041594578792296,10.0,31.016124838541646,22.02271554554524,19.0,20.0,19.0,9.5,11.5,2.5,3.5,6.0,6.0,6.5,20.0,20.0,23.0,{},{}
73,73,8,0,2.435766666666661,6.0,44.0,6.0,8.0,11.0,12.0,10.04987562112089,30.01666203960727,22.02271554554524,19.0,19.0,19.0,9.0,11.0,3.0,3.0,6.0,7.071067811865476,6.5,20.0,21.0,22.0,{},{}
74,74,8,0,2.4691333333333283,5.0990195135927845,43.01162633521314,6.0,8.0,12.041594578792296,12.041594578792296,11.0,30.01666203960727,22.02271554554524,19.5,20.0,19.0,8.5,10.5,1.5,3.5,6.0,6.0,6.0,20.0,21.0,22.02271554554524,{},{}
75,75,8,0,2.502499999999995,4.123105625617661,44.04543109109048,5.0,9.0,11.04536101718726,12.041594578792296,11.0,29.017236257093817,20.024984394500787,18.0,20.0,18.0,8.0,10.0,1.0,3.0,6.082762530298219,6.082762530298219,6.0,20.0,21.0,23.021728866442675,{},{}
76,76,8,0,2.535866666666662,2.23606797749979,44.01136216933077,6.0,9.0,11.0,12.041594578792296,11.0,28.0178514522438,19.026297590440446,18.0,19.0,18.0,7.5,9.5,0.5,1.5,7.0,6.082762530298219,6.0,19.0,21.0,22.02271554554524,{},{}
77,77,8,0,2.5692333333333286,1.0,42.04759208325728,7.071067811865476,9.0,11.04536101718726,12.041594578792296,11.0,28.0178514522438,19.026297590440446,18.5,20.0,18.0,8.0,9.0,0.0,2.0,6.0,6.082762530298219,6.0,19.0,21.0,22.0,{},{}
78,78,8,0,2.602599999999996,4.0,43.04648650006177,6.0,10.0,11.0,12.0,11.04536101718726,31.016124838541646,21.02379604162864,19.0,20.0,18.0,8.0,12.0,2.0,2.0,7.071067811865476,7.071067811865476,6.5,19.0,21.0,24.0,{},{}
79,79,8,0,2.635966666666662,7.0,43.04648650006177,7.0,9.055385138137416,10.04987562112089,12.041594578792296,10.0,33.015148038438355,24.0,20.5,20.0,18.0,9.0,14.0,5.0,3.0,6.0,6.082762530298219,6.0,19.0,21.0,23.021728866442675,{},{}
80,80,8,0,2.669333333333329,7.0,44.01136216933077,6.0,9.0,11.04536101718726,12.0,10.0,32.0,23.0,19.5,19.0,18.0,8.5,13.5,4.5,3.5,6.0,6.082762530298219,6.0,19.0,21.0,23.0,{},{}
81,81,8,0,2.702699999999996,7.0,44.01136216933077,6.0,8.0,11.04536101718726,12.041594578792296,10.0,31.0,23.0,19.5,19.0,18.0,8.5,12.5,3.5,3.5,6.0,5.0990195135927845,5.5,19.0,20.0,23.021728866442675,{},{}
82,82,8,0,2.7360666666666624,7.0,43.01162633521314,5.0,9.0,11.0,12.0,10.0,31.0,22.0,18.5,19.0,18.0,8.5,12.5,3.5,3.5,7.071067811865476,6.082762530298219,6.0,20.0,21.0,23.0,{},{}
83,83,8,0,2.769433333333329,8.0,43.01162633521314,5.0,8.06225774829855,11.0,12.0,10.04987562112089,31.0,23.021728866442675,19.0,19.0,18.0,8.5,12.5,3.5,3.5,6.082762530298219,6.0,6.0,20.0,20.0,23.0,{},{}
84,84,8,0,2.802799999999996,7.0,44.01136216933077,5.0,9.055385138137416,10.04987562112089,11.0,10.0,31.016124838541646,22.0,18.5,19.0,18.0,8.5,12.5,3.5,4.5,6.0,6.082762530298219,6.0,19.0,20.0,22.0,{},{}
85,85,8,0,2.8361666666666627,7.071067811865476,44.01136216933077,5.0,8.0,11.0,12.0,10.04987562112089,30.0,22.0,18.5,19.0,18.0,8.5,11.5,3.5,3.5,7.0,6.082762530298219,6.0,19.0,20.0,23.0,{},{}
86,86,8,0,2.869533333333329,8.0,43.01162633521314,5.0,8.06225774829855,11.0,12.0,10.04987562112089,31.0,23.021728866442675,19.0,19.0,18.0,8.5,12.5,4.5,3.5,7.0,6.082762530298219,6.0,19.0,19.0,22.02271554554524,{},{}
87,87,8,0,2.9028999999999963,11.0,43.0,4.0,8.0,11.0,12.041594578792296,10.0,33.0,25.0,19.5,19.0,19.0,9.0,14.0,5.0,5.0,6.0,6.082762530298219,6.0,19.0,20.0,22.0,{},{}
88,88,8,0,2.936266666666663,12.0,43.0,5.0,8.06225774829855,12.0,13.0,9.055385138137416,34.0,26.019223662515376,20.0,19.0,19.0,10.0,15.0,7.0,5.0,6.082762530298219,6.082762530298219,6.0,20.0,20.0,23.0,{},{}
89,89,8,0,2.96963333333333,11.0,44.0,5.0,9.0,11.0,13.0,9.0,34.0,25.0,19.5,19.0,19.0,10.0,15.0,6.0,5.0,7.0,7.071067811865476,6.5,19.0,19.0,23.0,{},{}
90,90,8,0,3.002999999999997,12.0,43.0,4.0,8.0,12.0,12.0,10.0,34.0,26.0,20.0,20.0,20.0,10.0,14.0,6.0,6.0,7.071067811865476,6.082762530298219,6.0,19.0,19.0,22.0,{},{}
91,91,8,0,3.036366666666664,10.0,44.0,4.0,9.0,12.0,12.0,10.0,33.0,24.0,19.0,19.0,19.0,9.0,14.0,5.0,5.0,6.082762530298219,6.0,6.0,19.0,19.0,23.0,{},{}
92,92,8,0,3.06973333333333,9.055385138137416,44.01136216933077,4.0,8.0,11.0,13.0,10.0,31.016124838541646,23.021728866442675,18.5,19.0,18.0,8.5,12.5,4.5,4.5,6.082762530298219,6.082762530298219,6.0,19.0,20.0,23.0,{},{}
93,93,8,0,3.103099999999997,9.0,44.01136216933077,4.0,9.0,12.0,12.041594578792296,10.0,32.0,23.0,18.5,19.0,18.0,8.5,13.5,4.5,4.5,6.082762530298219,5.0,5.5,18.0,19.0,23.021728866442675,{},{}
94,94,8,0,3.136466666666664,11.04536101718726,43.0,4.0,8.06225774829855,11.0,13.038404810405298,10.04987562112089,33.015148038438355,25.0,19.5,19.0,19.0,9.0,14.0,5.0,5.0,6.082762530298219,6.0,6.0,19.0,20.0,23.0,{},{}
95,95,8,0,3.1698333333333304,11.0,43.01162633521314,4.0,9.0,12.0,13.038404810405298,10.0,34.0,25.0,19.5,20.0,19.0,9.5,14.5,5.5,5.5,6.0,6.0,6.0,19.0,20.0,23.021728866442675,{},{}
96,96,8,0,3.203199999999997,11.0,43.04648650006177,5.0,9.0,11.04536101718726,12.041594578792296,10.0,35.0,26.0,20.5,21.0,19.0,10.0,15.0,6.0,6.0,7.0,6.082762530298219,6.0,19.0,20.0,23.0,{},{}
97,97,8,0,3.236566666666664,11.0,43.04648650006177,5.0,9.0,12.041594578792296,13.038404810405298,10.0,35.0,26.0,20.5,21.0,19.0,10.0,15.0,6.0,6.0,6.0,6.082762530298219,6.0,18.0,19.0,22.02271554554524,{},{}
98,98,8,0,3.2699333333333307,11.0,43.04648650006177,5.0,9.0,11.04536101718726,12.041594578792296,11.04536101718726,36.013886210738214,27.018512172212592,21.5,22.0,20.0,10.0,15.0,6.0,6.0,6.082762530298219,6.082762530298219,6.0,18.0,19.0,23.021728866442675,{},{}
99,99,8,0,3.303299999999997,11.0,42.01190307520001,5.0,8.0,12.0,12.041594578792296,11.04536101718726,35.0142828000232,27.018512172212592,21.5,21.0,20.0,9.5,14.5,6.5,4.5,6.0,6.082762530298219,6.0,18.0,20.0,22.02271554554524,{},{}
100,100,8,0,3.336666666666664,9.055385138137416,42.04759208325728,5.0,9.0,11.0,12.041594578792296,11.0,34.0147027033899,25.019992006393608,20.5,21.0,19.0,9.0,14.0,5.0,4.0,6.082762530298219,7.071067811865476,6.5,19.0,20.0,23.0,{},{}
101,101,8,0,3.370033333333331,5.0,41.04875150354759,6.082762530298219,9.0,11.04536101718726,12.041594578792296,12.0,32.01562118716424,23.021728866442675,20.5,21.0,19.0,8.0,12.0,3.0,3.0,7.0,6.082762530298219,6.0,18.0,20.0,23.021728866442675,{},{}
102,102,8,0,3.4033999999999978,2.23606797749979,43.04648650006177,6.0,9.0,10.04987562112089,10.04987562112089,12.0,29.017236257093817,20.024984394500787,19.0,20.0,18.0,7.0,10.0,1.0,1.0,6.082762530298219,6.082762530298219,6.0,18.0,19.0,22.0,{},{}
103,103,8,0,3.4367666666666645,2.0,42.1070065428546,6.082762530298219,8.06225774829855,11.04536101718726,11.04536101718726,11.04536101718726,27.16615541441225,19.1049731745428,18.0,20.0,17.0,7.5,8.5,0.5,1.5,7.0,6.082762530298219,6.0,18.0,21.0,22.0,{},{}
104,104,8,0,3.470133333333332,2.23606797749979,44.181444068749045,6.0,8.06225774829855,11.04536101718726,12.16552506059644,11.04536101718726,27.16615541441225,19.1049731745428,18.0,20.0,16.0,7.0,9.0,1.0,1.0,6.0,6.082762530298219,6.0,17.0,20.0,22.02271554554524,{},{}
105,105,8,0,3.503499999999998,4.123105625617661,45.17742799230607,6.0,8.06225774829855,11.04536101718726,12.16552506059644,10.198039027185567,28.284271247461906,20.223748416156685,18.0,20.0,16.0,8.0,10.0,3.0,2.0,6.0,6.082762530298219,6.0,17.0,22.0,22.09072203437452,{},{}
106,106,8,0,3.536866666666665,10.04987562112089,48.16637831516918,6.0,8.06225774829855,12.0,13.152946437965904,9.219544457292889,33.24154027718932,25.179356624028344,20.0,21.0,17.0,10.0,14.0,6.0,4.0,6.0,5.0990195135927845,5.5,15.0,21.0,22.09072203437452,{},{}
107,107,8,0,3.570233333333332,13.038404810405298,49.09175083453431,6.0,8.06225774829855,13.038404810405298,13.038404810405298,8.246211251235321,35.22782990761707,27.16615541441225,20.5,21.0,18.0,11.5,15.5,8.5,5.5,6.082762530298219,5.0990195135927845,5.5,15.0,21.0,23.08679276123039,{},{}
108,108,8,0,3.6035999999999984,14.0356688476182,52.15361924162119,6.0,8.06225774829855,12.041594578792296,14.0356688476182,8.246211251235321,36.22154055254967,28.16025568065745,21.0,21.0,17.0,11.0,17.0,10.0,5.0,6.0,5.0990195135927845,5.0,15.0,21.0,23.08679276123039,{},{}
109,109,8,0,3.636966666666665,13.0,51.24451190127583,6.082762530298219,8.06225774829855,13.038404810405298,14.142135623730953,9.055385138137416,36.12478373637688,28.0713376952364,21.5,22.0,17.0,10.5,16.5,8.5,5.5,5.0,6.082762530298219,5.5,15.0,21.0,23.08679276123039,{},{}
110,110,8,0,3.670333333333332,10.04987562112089,51.15662224971465,6.0,8.06225774829855,13.038404810405298,13.152946437965904,9.219544457292889,33.24154027718932,25.179356624028344,20.0,21.0,17.0,10.0,14.0,6.0,4.0,6.0,5.0990195135927845,5.5,15.0,21.0,23.08679276123039,{},{}
111,111,8,0,3.703699999999999,11.0,52.15361924162119,6.082762530298219,7.071067811865476,13.038404810405298,14.0356688476182,8.06225774829855,32.14031735997639,25.079872407968907,19.5,20.0,16.0,10.0,14.0,7.0,4.0,5.0,5.0990195135927845,5.0,15.0,21.0,24.08318915758459,{},{}
112,112,8,0,3.7370666666666654,10.04987562112089,52.15361924162119,6.0,7.071067811865476,13.038404810405298,15.033296378372908,9.219544457292889,32.2490309931942,25.179356624028344,20.0,20.0,16.0,9.0,14.0,7.0,4.0,5.0,5.0990195135927845,5.5,16.0,22.0,23.08679276123039,{},{}
113,113,8,0,3.770433333333332,10.04987562112089,51.0881590977792,6.0,8.06225774829855,13.0,13.152946437965904,8.06225774829855,32.14031735997639,24.08318915758459,19.0,19.0,16.0,9.5,14.5,7.5,3.5,5.0990195135927845,5.0990195135927845,5.5,15.0,21.0,23.08679276123039,{},{}
114,114,8,0,3.803799999999999,11.04536101718726,50.15974481593781,5.0,7.071067811865476,12.041594578792296,13.038404810405298,9.219544457292889,32.2490309931942,25.179356624028344,19.5,20.0,16.0,9.0,14.0,7.0,4.0,5.0990195135927845,5.0,5.0,15.0,21.0,23.021728866442675,{},{}
115,115,8,0,3.8371666666666657,10.0,49.16299421312742,6.082762530298219,7.071067811865476,12.041594578792296,13.038404810405298,8.06225774829855,31.144823004794876,24.08318915758459,19.0,19.0,15.0,9.0,14.0,7.0,4.0,5.0,5.0990195135927845,5.0,16.0,21.0,23.08679276123039,{},{}
116,116,8,0,3.870533333333333,9.055385138137416,48.16637831516918,6.0,8.06225774829855,11.04536101718726,13.038404810405298,8.246211251235321,31.25699921617557,23.194827009486403,18.5,19.0,15.0,9.0,14.0,6.0,4.0,6.0,6.082762530298219,5.5,15.0,20.0,23.021728866442675,{},{}
117,117,8,0,3.9038999999999993,9.055385138137416,47.16990566028302,6.0,8.06225774829855,11.04536101718726,12.041594578792296,8.246211251235321,31.25699921617557,23.194827009486403,18.5,19.0,15.0,9.0,14.0,6.0,4.0,5.0,5.0990195135927845,5.0,15.0,21.0,22.09072203437452,{},{}
118,118,8,0,3.937266666666666,9.055385138137416,46.17358552246078,5.0,8.06225774829855,11.04536101718726,12.16552506059644,9.219544457292889,31.25699921617557,23.194827009486403,18.5,19.0,15.0,8.0,14.0,6.0,3.0,5.0,5.0990195135927845,5.0,15.0,21.0,22.02271554554524,{},{}
119,119,8,0,3.970633333333333,7.0,45.09988913511872,6.082762530298219,8.246211251235321,11.04536101718726,12.041594578792296,10.04987562112089,31.25699921617557,23.08679276123039,19.5,19.0,16.0,7.5,13.5,5.5,2.5,6.0,5.385164807134504,5.0,16.0,22.0,22.09072203437452,{},{}
120,120,8,0,4.004,6.0,44.28317965096906,6.082762530298219,8.06225774829855,11.04536101718726,12.041594578792296,10.198039027185567,30.265491900843116,22.20360331117452,19.0,20.0,15.0,7.5,12.5,4.5,1.5,6.0,5.0990195135927845,5.0,15.0,21.0,21.095023109728988,{},{}
121,121,8,0,4.037366666666666,4.123105625617661,43.18564576337837,7.0,8.06225774829855,10.04987562112089,12.16552506059644,10.04987562112089,29.154759474226505,21.095023109728988,19.0,20.0,16.0,8.0,11.0,3.0,2.0,6.082762530298219,5.0990195135927845,5.5,15.0,21.0,21.095023109728988,{},{}
122,122,8,0,4.070733333333333,3.1622776601683795,43.28972164382672,7.0,9.055385138137416,11.04536101718726,12.16552506059644,10.198039027185567,29.27456233660889,20.223748416156685,18.5,20.0,15.0,7.5,11.5,2.5,1.5,6.082762530298219,5.0990195135927845,5.0,15.0,21.0,21.095023109728988,{},{}
123,123,8,0,4.1041,3.0,42.2965719651132,6.082762530298219,9.219544457292889,11.04536101718726,11.180339887498947,10.04987562112089,28.284271247461906,19.1049731745428,17.5,20.0,15.0,7.5,10.5,2.5,1.5,6.0,6.082762530298219,6.0,16.0,22.0,22.09072203437452,{},{}
124,124,8,0,4.137466666666667,4.123105625617661,43.18564576337837,6.0,9.055385138137416,11.04536101718726,12.041594578792296,10.04987562112089,29.154759474226505,20.09975124224178,18.0,20.0,16.0,8.0,11.0,2.0,2.0,5.0,4.0,4.5,16.0,22.0,22.09072203437452,{},{}
125,125,8,0,4.170833333333333,7.0,43.18564576337837,6.082762530298219,7.071067811865476,11.04536101718726,12.16552506059644,9.055385138137416,29.154759474226505,22.09072203437452,18.5,20.0,16.0,9.0,11.0,4.0,4.0,4.0,4.123105625617661,4.0,17.0,22.0,22.09072203437452,{},{}
126,126,8,0,4.2042,7.071067811865476,43.18564576337837,6.082762530298219,8.06225774829855,11.04536101718726,13.038404810405298,10.04987562112089,31.25699921617557,23.194827009486403,19.5,21.0,17.0,9.0,12.0,4.0,4.0,3.1622776601683795,3.0,3.0,17.0,22.0,22.09072203437452,{},{}
127,127,8,0,4.237566666666667,6.0,42.190046219457976,6.082762530298219,8.06225774829855,11.04536101718726,12.041594578792296,10.04987562112089,30.14962686336267,22.09072203437452,19.0,21.0,17.0,9.0,11.0,3.0,4.0,3.0,3.1622776601683795,3.0,18.0,22.0,22.09072203437452,{},{}
128,128,8,0,4.270933333333334,3.0,42.1070065428546,7.071067811865476,9.055385138137416,11.04536101718726,11.04536101718726,11.0,30.066592756745816,21.02379604162864,19.5,21.0,18.0,8.5,10.5,1.5,2.5,3.0,3.0,3.0,18.0,21.0,21.02379604162864,{},{}
129,129,8,0,4.3043000000000005,3.1622776601683795,42.1070065428546,6.0,8.06225774829855,11.04536101718726,11.0,12.041594578792296,29.154759474226505,21.095023109728988,19.5,21.0,18.0,7.5,9.5,1.5,1.5,2.0,2.0,2.0,18.0,21.0,21.02379604162864,{},{}
130,130,8,0,4.337666666666667,3.0,42.04759208325728,7.071067811865476,9.0,11.0,12.041594578792296,11.0,30.01666203960727,21.02379604162864,19.5,21.0,19.0,9.0,10.0,1.0,2.0,3.0,3.0,3.0,19.0,21.0,21.0,{},{}
131,131,8,0,4.371033333333334,6.0,43.0,7.0,8.0,11.04536101718726,12.041594578792296,10.04987562112089,31.016124838541646,23.021728866442675,20.0,20.0,20.0,10.0,11.0,3.0,4.0,3.0,3.0,3.0,19.0,20.0,21.0,{},{}
132,132,8,0,4.404400000000001,6.0,44.0,6.0,9.0,11.04536101718726,12.0,9.055385138137416,30.01666203960727,21.02379604162864,18.0,19.0,19.0,10.0,11.0,1.0,4.0,3.0,3.1622776601683795,3.0,19.0,19.0,21.02379604162864,{},{}
133,133,8,0,4.437766666666668,7.0,43.0,5.0,8.0,11.04536101718726,12.0,10.0,30.0,22.0,18.5,19.0,19.0,9.0,11.0,2.0,4.0,4.0,3.0,3.0,19.0,19.0,21.0,{},{}
134,134,8,0,4.471133333333334,6.0,43.0,6.0,9.0,11.0,12.0,9.0,30.0,21.0,18.0,19.0,19.0,10.0,11.0,2.0,4.0,4.123105625617661,4.0,4.0,20.0,19.0,21.0,{},{}
135,135,8,0,4.504500000000001,6.0,43.0,6.0,9.0,11.0,12.0,10.0,31.0,22.0,19.0,20.0,20.0,10.0,11.0,2.0,4.0,5.0990195135927845,5.0,5.0,20.0,19.0,21.0,{},{}
136,136,8,0,4.537866666666668,4.0,43.01162633521314,7.0,9.0,11.0,12.0,10.0,30.0,21.0,19.0,19.0,20.0,9.5,10.5,1.5,2.5,5.0,5.0,5.0,19.0,18.0,21.02379604162864,{},{}
137,137,8,0,4.571233333333335,2.0,43.01162633521314,7.0,9.0,11.0,13.0,11.0,29.0,20.0,19.0,19.0,20.0,8.5,9.5,0.5,1.5,5.0990195135927845,5.0,5.0,20.0,19.0,21.0,{},{}
138,138,8,0,4.604600000000001,2.0,42.01190307520001,7.0,9.055385138137416,11.0,12.041594578792296,11.0,29.017236257093817,20.0,19.0,19.0,20.0,8.5,9.5,0.5,1.5,6.082762530298219,5.0,5.5,20.0,19.0,21.0,{},{}
139,139,8,0,4.637966666666668,2.0,43.01162633521314,7.0,9.0,11.0,12.0,11.04536101718726,29.017236257093817,20.024984394500787,19.0,19.0,20.0,8.5,9.5,0.5,1.5,5.0990195135927845,5.0990195135927845,5.0,19.0,18.0,22.0,{},{}
140,140,8,0,4.671333333333335,2.0,43.01162633521314,7.0,10.0,11.0,11.0,11.04536101718726,30.01666203960727,20.024984394500787,19.0,19.0,20.0,8.5,10.5,0.5,1.5,6.082762530298219,5.0990195135927845,5.0,20.0,19.0,21.02379604162864,{},{}
141,141,8,0,4.704700000000002,7.0,44.01136216933077,6.0,9.0,11.0,12.0,9.0,31.0,22.0,18.5,18.0,19.0,9.5,12.5,2.5,3.5,5.0990195135927845,5.0,5.0,19.0,18.0,21.0,{},{}
142,142,8,0,4.738066666666668,9.0,43.01162633521314,5.0,8.06225774829855,11.04536101718726,12.0,9.0,31.016124838541646,23.0,18.5,19.0,20.0,10.5,11.5,2.5,4.5,6.0,5.0,5.0,19.0,18.0,22.0,{},{}
143,143,8,0,4.771433333333335,9.0,43.0,6.0,8.0,11.0,12.0,8.0,31.0,23.0,18.5,19.0,19.0,11.0,12.0,3.0,5.0,5.0,5.0,5.0,19.0,18.0,22.0,{},{}
144,144,8,0,4.804800000000002,9.055385138137416,45.0111097397076,6.0,8.06225774829855,11.0,13.0,8.0,31.0,23.021728866442675,18.5,18.0,19.0,10.5,12.5,3.5,4.5,5.0,5.0,5.0,19.0,19.0,23.0,{},{}
145,145,8,0,4.838166666666669,9.0,47.01063709417264,6.0,9.0,12.0,14.0,8.0,32.0,23.0,18.5,18.0,19.0,10.5,13.5,4.5,4.5,5.0,5.0,5.0,18.0,18.0,23.0,{},{}
146,146,8,0,4.871533333333336,11.0,50.00999900019995,6.0,8.0,13.0,14.0,9.0,34.0,26.0,20.5,19.0,20.0,10.5,14.5,5.5,4.5,5.0,4.123105625617661,4.0,18.0,18.0,23.0,{},{}
147,147,8,0,4.904900000000002,11.0,52.009614495783374,6.0,8.0,13.0,14.0,8.06225774829855,33.015148038438355,25.019992006393608,19.5,17.0,18.0,9.5,15.5,7.5,3.5,5.0990195135927845,4.0,4.5,17.0,18.0,22.0,{},{}
148,148,8,0,4.938266666666669,10.04987562112089,52.0,6.0,8.0,12.0,14.0,8.0,32.01562118716424,24.020824298928627,19.0,17.0,17.0,9.0,15.0,7.0,3.0,5.0,5.0,5.0,17.0,19.0,22.02271554554524,{},{}
149,149,8,0,4.971633333333336,9.0,52.009614495783374,5.0990195135927845,8.06225774829855,13.0,15.0,9.0,31.064449134018133,23.021728866442675,18.5,17.0,16.0,7.5,14.5,6.5,2.5,5.0990195135927845,5.0,4.5,17.0,19.0,23.021728866442675,{},{}
150,150,8,0,5.005000000000003,10.04987562112089,52.03844732503075,5.0,7.0,13.0,14.0,9.0,31.016124838541646,24.020824298928627,19.0,18.0,16.0,8.0,14.0,7.0,3.0,5.0,5.0990195135927845,5.0,17.0,19.0,22.0,{},{}
151,151,8,0,5.038366666666669,10.04987562112089,52.009614495783374,5.0,7.0,13.0,14.0,9.0,31.016124838541646,24.020824298928627,19.0,17.0,16.0,7.5,14.5,6.5,2.5,5.0,5.0,5.0,17.0,20.0,22.02271554554524,{},{}
152,152,8,0,5.071733333333336,11.0,52.03844732503075,6.082762530298219,8.0,13.038404810405298,14.0356688476182,8.06225774829855,33.06055050963308,25.079872407968907,19.5,17.0,15.0,8.0,17.0,9.0,3.0,5.0,5.0990195135927845,5.0,16.0,19.0,22.0,{},{}
153,153,8,0,5.105100000000003,14.0,51.0098029794274,5.0,7.071067811865476,13.0,14.0356688476182,9.055385138137416,35.05709628591621,28.0178514522438,21.0,18.0,17.0,8.5,17.5,9.5,3.5,5.0,5.0990195135927845,5.0,16.0,19.0,23.0,{},{}
154,154,8,0,5.13846666666667,13.038404810405298,49.0,5.0,8.0,12.0,14.0356688476182,9.0,35.0142828000232,27.018512172212592,20.5,18.0,18.0,9.0,17.0,9.0,4.0,5.0,5.0990195135927845,4.5,18.0,20.0,22.0,{},{}
155,155,8,0,5.171833333333336,9.0,47.0,5.0,8.06225774829855,12.0,13.0,9.055385138137416,31.064449134018133,23.021728866442675,18.5,18.0,18.0,9.0,13.0,4.0,4.0,5.0990195135927845,5.0990195135927845,5.0,17.0,19.0,22.0,{},{}
156,156,8,0,5.205200000000003,7.0,47.01063709417264,5.0990195135927845,8.0,12.0,13.038404810405298,9.0,29.017236257093817,21.02379604162864,17.5,18.0,17.0,8.5,11.5,3.5,3.5,5.0,5.0990195135927845,5.0,18.0,20.0,22.02271554554524,{},{}
157,157,8,0,5.23856666666667,6.0,45.0111097397076,5.0,7.071067811865476,12.0,12.041594578792296,10.04987562112089,28.0713376952364,21.02379604162864,18.0,19.0,18.0,8.5,9.5,2.5,3.5,5.0,5.0,5.0,17.0,19.0,22.0,{},{}
158,158,8,0,5.271933333333337,5.0,44.01136216933077,5.0,8.06225774829855,11.0,12.041594578792296,10.04987562112089,28.0713376952364,20.024984394500787,17.5,18.0,17.0,7.5,10.5,2.5,2.5,6.0,4.0,4.5,17.0,19.0,22.0,{},{}
159,159,8,0,5.305300000000004,5.0,45.0111097397076,5.0,9.055385138137416,11.0,12.0,10.04987562112089,29.068883707497267,20.024984394500787,17.5,18.0,17.0,7.5,11.5,2.5,2.5,5.0,5.0,5.0,18.0,20.0,22.0,{},{}
160,160,8,0,5.33866666666667,5.0,44.01136216933077,7.0,9.055385138137416,11.0,11.0,9.055385138137416,30.066592756745816,21.02379604162864,18.5,19.0,18.0,9.5,11.5,2.5,2.5,5.0,5.0990195135927845,5.5,17.0,20.0,22.02271554554524,{},{}
161,161,8,0,5.372033333333337,4.0,44.01136216933077,7.071067811865476,9.055385138137416,11.04536101718726,12.041594578792296,10.0,30.066592756745816,21.02379604162864,19.0,19.0,18.0,8.5,11.5,2.5,2.5,5.0,5.0,5.0,17.0,20.0,22.0,{},{}
162,162,8,0,5.405400000000004,4.123105625617661,45.0111097397076,7.0,9.055385138137416,12.0,12.041594578792296,10.04987562112089,30.14962686336267,21.095023109728988,19.0,19.0,18.0,8.5,11.5,2.5,1.5,6.0,5.0990195135927845,5.0,17.0,20.0,22.02271554554524,{},{}
163,163,8,0,5.438766666666671,4.0,44.04543109109048,7.0,9.055385138137416,11.04536101718726,12.041594578792296,10.04987562112089,30.066592756745816,21.02379604162864,19.0,19.0,17.0,8.0,12.0,3.0,2.0,5.0,5.0,5.5,17.0,21.0,22.02271554554524,{},{}
164,164,8,0,5.472133333333337,4.0,43.04648650006177,6.0,9.055385138137416,11.04536101718726,12.0,11.04536101718726,30.066592756745816,21.02379604162864,19.0,19.0,17.0,7.0,12.0,3.0,2.0,6.0,5.0990195135927845,5.0,17.0,20.0,21.02379604162864,{},{}
165,165,8,0,5.505500000000004,4.123105625617661,44.04543109109048,6.0,9.0,12.041594578792296,12.0,10.04987562112089,29.068883707497267,20.09975124224178,18.0,18.0,16.0,7.0,12.0,3.0,2.0,6.082762530298219,5.0990195135927845,5.0,17.0,20.0,21.02379604162864,{},{}
166,166,8,0,5.538866666666671,5.0,43.01162633521314,6.082762530298219,10.04987562112089,11.04536101718726,12.0,10.04987562112089,31.144823004794876,21.095023109728988,18.5,18.0,17.0,7.5,13.5,3.5,1.5,6.082762530298219,5.0990195135927845,5.5,17.0,20.0,22.02271554554524,{},{}
167,167,8,0,5.572233333333338,4.123105625617661,43.04648650006177,6.0,10.0,10.0,12.041594578792296,11.0,31.016124838541646,21.02379604162864,19.0,19.0,17.0,7.0,13.0,3.0,1.0,6.0,5.385164807134504,5.5,17.0,20.0,22.02271554554524,{},{}
168,168,8,0,5.605600000000004,4.123105625617661,43.01162633521314,6.0,10.0,10.04987562112089,12.0,11.0,31.016124838541646,21.02379604162864,19.0,18.0,17.0,6.5,13.5,3.5,1.5,5.0990195135927845,5.385164807134504,5.5,17.0,20.0,22.02271554554524,{},{}
169,169,8,0,5.638966666666671,4.123105625617661,43.04648650006177,6.0,10.0,10.0,12.0,11.0,31.016124838541646,21.02379604162864,19.0,18.0,16.0,6.0,14.0,4.0,0.0,6.082762530298219,6.082762530298219,6.0,18.0,20.0,22.02271554554524,{},{}
170,170,8,0,5.672333333333338,2.0,43.04648650006177,6.082762530298219,11.04536101718726,10.0,11.0,11.0,30.066592756745816,19.026297590440446,18.0,18.0,16.0,6.0,13.0,2.0,0.0,6.082762530298219,6.082762530298219,5.5,18.0,20.0,22.0,{},{}
171,171,8,0,5.705700000000005,2.0,43.04648650006177,7.0,10.04987562112089,11.0,12.0,11.0,30.01666203960727,20.0,19.0,19.0,17.0,7.0,12.0,2.0,0.0,6.0,6.082762530298219,6.0,18.0,21.0,22.0,{},{}
172,172,8,0,5.739066666666671,3.0,43.01162633521314,6.082762530298219,9.055385138137416,11.0,12.0,11.0,29.068883707497267,20.024984394500787,18.5,18.0,17.0,6.5,11.5,2.5,0.5,6.0,6.082762530298219,6.0,18.0,20.0,22.0,{},{}
173,173,8,0,5.772433333333338,4.0,43.04648650006177,6.0,9.055385138137416,11.0,12.0,11.04536101718726,30.066592756745816,21.02379604162864,19.0,19.0,17.0,7.0,12.0,3.0,1.0,6.0,6.0,6.0,18.0,20.0,22.0,{},{}
174,174,8,0,5.805800000000005,6.0,46.01086828130936,6.0,9.055385138137416,12.041594578792296,13.0,11.04536101718726,32.0624390837628,23.021728866442675,20.0,19.0,18.0,7.5,13.5,3.5,2.5,6.082762530298219,6.082762530298219,6.0,18.0,19.0,22.0,{},{}
175,175,8,0,5.839166666666672,9.0,47.01063709417264,6.0,9.055385138137416,12.0,13.0,10.0,34.0147027033899,25.0,20.5,18.0,19.0,8.5,15.5,6.5,2.5,6.0,5.0990195135927845,5.5,19.0,20.0,22.0,{},{}
176,176,8,0,5.8725333333333385,10.04987562112089,49.01020301937138,6.0,8.0,13.038404810405298,14.0,10.0,34.0147027033899,26.019223662515376,21.0,18.0,19.0,8.5,15.5,6.5,2.5,5.0990195135927845,6.082762530298219,5.5,18.0,19.0,22.0,{},{}
177,177,8,0,5.905900000000005,10.0,50.00999900019995,6.0,9.0,13.0,14.0,9.0,34.0,25.0,20.0,17.0,18.0,8.5,16.5,7.5,2.5,6.082762530298219,6.082762530298219,5.5,18.0,19.0,22.0,{},{}
178,178,8,0,5.939266666666672,11.0,49.0,6.0,8.0,12.0,14.0,9.0,34.0,26.0,20.5,18.0,18.0,9.0,16.0,7.0,3.0,6.0,6.082762530298219,6.0,18.0,18.0,23.021728866442675,{},{}
179,179,8,0,5.972633333333339,9.0,50.00999900019995,6.0,9.055385138137416,12.0,13.038404810405298,9.0,33.015148038438355,24.0,19.5,17.0,18.0,8.5,15.5,5.5,2.5,6.082762530298219,6.0,6.0,18.0,18.0,21.0,{},{}
180,180,8,0,6.006000000000006,9.0,49.04079934095692,5.0,8.0,13.0,14.0,10.0,32.0,24.0,19.5,16.0,18.0,7.0,15.0,6.0,2.0,6.0,6.0,6.0,18.0,18.0,22.0,{},{}
181,181,8,0,6.039366666666672,8.0,46.04345773288535,5.0,8.0,11.0,12.0,9.0,30.0,22.0,18.0,15.0,17.0,7.0,14.0,5.0,2.0,6.082762530298219,6.082762530298219,6.0,18.0,18.0,22.0,{},{}
182,182,8,0,6.072733333333339,7.0,44.01136216933077,5.0,9.0,10.0,11.0,10.04987562112089,31.016124838541646,22.02271554554524,18.5,16.0,17.0,6.5,14.5,5.5,1.5,6.082762530298219,6.0,6.0,19.0,19.0,22.02271554554524,{},{}
183,183,8,0,6.106100000000006,6.0,43.0,5.0,9.0,11.0,12.0,10.0,30.0,21.0,18.0,16.0,16.0,6.0,14.0,5.0,1.0,6.082762530298219,6.082762530298219,6.0,19.0,18.0,22.0,{},{}
184,184,8,0,6.139466666666673,5.0990195135927845,43.0,5.0,9.0,10.0,12.0,10.04987562112089,29.0,20.0,17.5,15.0,15.0,5.0,14.0,4.0,0.0,6.082762530298219,6.082762530298219,5.5,19.0,19.0,21.0,{},{}
185,185,8,0,6.172833333333339,4.0,43.0,6.082762530298219,10.0,10.0,11.04536101718726,10.0,30.01666203960727,20.024984394500787,18.0,16.0,16.0,6.0,14.0,4.0,0.0,6.082762530298219,6.082762530298219,5.5,19.0,18.0,21.02379604162864,{},{}
186,186,8,0,6.206200000000006,4.0,42.0,6.0,10.0,9.0,11.04536101718726,11.04536101718726,31.016124838541646,21.02379604162864,19.0,17.0,17.0,6.0,14.0,3.0,0.0,6.082762530298219,6.082762530298219,6.0,19.0,18.0,21.0,{},{}
187,187,8,0,6.239566666666673,3.0,42.0,6.0,11.0,10.0,11.04536101718726,11.04536101718726,31.016124838541646,20.024984394500787,18.5,17.0,17.0,6.0,14.0,3.0,0.0,6.082762530298219,6.0,6.0,18.0,18.0,21.02379604162864,{},{}
188,188,8,0,6.27293333333334,3.0,42.01190307520001,7.0,10.0,10.0,12.041594578792296,11.0,31.0,21.0,19.5,18.0,17.0,6.5,13.5,3.5,0.5,6.082762530298219,6.0,6.0,18.0,18.0,21.0,{},{}
189,189,8,0,6.306300000000007,3.0,43.01162633521314,6.082762530298219,11.0,11.0,11.0,12.0,32.01562118716424,21.02379604162864,19.5,18.0,17.0,5.5,14.5,3.5,0.5,6.082762530298219,5.0,5.5,19.0,18.0,21.0,{},{}
190,190,8,0,6.339666666666673,6.082762530298219,44.0,6.0,10.0,10.0,11.0,11.0,33.015148038438355,23.021728866442675,20.0,18.0,18.0,7.0,15.0,4.0,1.0,6.082762530298219,6.082762530298219,6.0,19.0,18.0,21.02379604162864,{},{}
191,191,8,0,6.37303333333334,9.0,46.0,6.0,8.0,12.0,14.0,10.0,33.0,25.0,20.5,17.0,17.0,7.0,16.0,7.0,2.0,6.0,6.082762530298219,6.0,19.0,18.0,22.0,{},{}
192,192,8,0,6.406400000000007,11.0,47.01063709417264,6.0,9.0,12.0,13.0,9.055385138137416,35.0142828000232,26.019223662515376,20.5,17.0,18.0,8.5,17.5,7.5,2.5,5.0,6.082762530298219,5.5,18.0,18.0,23.0,{},{}
193,193,8,0,6.4397666666666735,11.0,48.0,5.0990195135927845,8.0,12.041594578792296,13.0,10.0,34.0147027033899,26.019223662515376,20.5,17.0,17.0,7.0,17.0,8.0,2.0,6.082762530298219,5.0990195135927845,5.5,19.0,18.0,22.0,{},{}
194,194,8,0,6.47313333333334,12.0,49.0,5.0,8.0,13.0,14.0,10.04987562112089,35.0142828000232,27.018512172212592,21.0,17.0,17.0,7.0,18.0,9.0,2.0,6.0,6.082762530298219,6.0,19.0,18.0,21.0,{},{}
195,195,8,0,6.506500000000007,13.0,50.00999900019995,5.0,8.0,12.0,13.0,10.04987562112089,36.013886210738214,28.0178514522438,21.5,17.0,18.0,7.5,18.5,9.5,2.5,6.0,6.082762530298219,6.0,19.0,18.0,22.0,{},{}
196,196,8,0,6.539866666666674,13.0,51.03920062069938,5.0,8.0,13.0,13.0,9.055385138137416,35.0142828000232,27.018512172212592,20.5,15.0,17.0,7.0,19.0,10.0,2.0,6.082762530298219,5.0990195135927845,5.5,18.0,18.0,23.021728866442675,{},{}
197,197,8,0,6.573233333333341,13.0,50.00999900019995,4.0,8.0,12.0,14.0,10.0,35.0,27.0,20.5,16.0,17.0,6.5,18.5,9.5,2.5,6.082762530298219,6.082762530298219,6.0,18.0,17.0,22.0,{},{}
198,198,8,0,6.606600000000007,12.0,51.0098029794274,5.0,8.0,12.0,14.0,10.0,35.0,27.0,21.0,16.0,17.0,6.5,18.5,9.5,2.5,6.0,5.0,5.5,18.0,18.0,23.0,{},{}
199,199,8,0,6.639966666666674,13.0,51.0,5.0,7.0,13.038404810405298,14.0356688476182,10.04987562112089,35.0142828000232,28.0178514522438,21.5,17.0,17.0,7.0,18.0,10.0,3.0,6.0,6.0,6.0,19.0,18.0,22.0,{},{}
200,200,8,0,6.673333333333341,13.0,51.0098029794274,5.0,8.0,13.0,14.0,9.0,35.0,27.0,20.5,16.0,17.0,7.5,18.5,9.5,2.5,6.0,5.0990195135927845,5.0,18.0,18.0,22.02271554554524,{},{}
201,201,8,0,6.706700000000008,13.0,52.009614495783374,5.0,7.0,13.0,14.0356688476182,10.04987562112089,35.0142828000232,28.0178514522438,21.5,16.0,17.0,6.5,18.5,10.5,2.5,6.082762530298219,5.0990195135927845,5.0,18.0,18.0,22.0,{},{}
202,202,8,0,6.740066666666674,13.038404810405298,51.0098029794274,4.0,8.0,13.0,14.0,10.04987562112089,35.0,27.0,20.5,16.0,17.0,6.5,18.5,9.5,2.5,3.0,3.0,3.0,18.0,18.0,22.0,{},{}
203,203,8,0,6.773433333333341,13.0,52.009614495783374,5.0,7.0,13.0,15.0,9.055385138137416,34.0147027033899,27.018512172212592,20.5,15.0,16.0,6.5,18.5,10.5,2.5,3.0,3.0,3.0,19.0,18.0,22.02271554554524,{},{}
204,204,8,0,6.806800000000008,13.0,51.0098029794274,4.0,8.0,14.0,14.0,10.0,35.0,27.0,20.5,16.0,17.0,6.5,18.5,9.5,2.5,2.23606797749979,2.0,2.5,19.0,18.0,22.02271554554524,{},{}
205,205,8,0,6.840166666666675,10.0,52.03844732503075,4.0,8.06225774829855,14.0,15.0,10.0,32.01562118716424,24.0,19.0,15.0,17.0,6.0,16.0,8.0,2.0,4.123105625617661,3.1622776601683795,3.0,20.0,18.0,23.021728866442675,{},{}
206,206,8,0,6.8735333333333415,9.0,51.0881590977792,5.0990195135927845,8.0,13.038404810405298,15.033296378372908,9.0,31.016124838541646,23.021728866442675,18.5,14.0,17.0,6.5,15.5,6.5,1.5,4.123105625617661,3.0,3.5,21.0,17.0,23.08679276123039,{},{}
207,207,8,0,6.906900000000008,10.0,51.24451190127583,4.0,8.06225774829855,14.0356688476182,14.0356688476182,9.055385138137416,31.064449134018133,23.021728866442675,18.0,13.0,18.0,6.5,15.5,6.5,2.5,4.123105625617661,4.0,4.0,21.0,15.0,23.08679276123039,{},{}
208,208,8,0,6.940266666666675,11.04536101718726,51.47815070493501,5.0990195135927845,7.071067811865476,14.142135623730953,15.132745950421556,9.0,32.14031735997639,25.079872407968907,19.5,11.0,18.0,5.5,17.5,8.5,0.5,6.082762530298219,5.0990195135927845,5.0,23.0,15.0,24.186773244895647,{},{}
209,209,8,0,6.973633333333342,11.04536101718726,51.62363799656123,5.0990195135927845,7.071067811865476,12.16552506059644,14.142135623730953,9.0,32.14031735997639,25.079872407968907,19.5,11.0,19.0,6.0,17.0,8.0,1.0,5.0990195135927845,5.0990195135927845,5.5,23.0,14.0,23.194827009486403,{},{}
210,210,8,0,7.0070000000000086,11.04536101718726,52.61178575186362,4.123105625617661,7.071067811865476,13.152946437965904,15.297058540778355,9.0,31.144823004794876,24.08318915758459,18.5,10.0,18.0,5.0,17.0,8.0,0.0,6.324555320336759,5.0990195135927845,5.0,23.0,14.0,24.33105012119288,{},{}
211,211,8,0,7.040366666666675,10.04987562112089,50.48762224545735,4.123105625617661,8.06225774829855,13.152946437965904,14.317821063276352,9.0,31.144823004794876,23.08679276123039,18.0,11.0,18.0,5.5,16.5,7.5,0.5,6.082762530298219,6.0,5.5,21.0,13.0,22.20360331117452,{},{}
212,212,8,0,7.073733333333342,10.04987562112089,52.46903848937962,4.0,8.06225774829855,13.152946437965904,14.142135623730953,9.055385138137416,31.144823004794876,23.08679276123039,18.0,11.0,18.0,5.5,16.5,7.5,0.5,5.385164807134504,5.0990195135927845,5.0,22.0,14.0,23.194827009486403,{},{}
213,213,8,0,7.107100000000009,11.0,51.47815070493501,5.0990195135927845,7.071067811865476,13.038404810405298,14.142135623730953,8.0,31.064449134018133,24.020824298928627,18.5,10.0,17.0,5.5,17.5,8.5,0.5,5.385164807134504,6.082762530298219,5.5,22.0,15.0,22.20360331117452,{},{}
214,214,8,0,7.140466666666676,11.04536101718726,51.47815070493501,4.0,8.06225774829855,13.152946437965904,14.142135623730953,9.055385138137416,32.14031735997639,24.08318915758459,18.5,11.0,18.0,5.5,17.5,8.5,0.5,6.082762530298219,5.0,5.5,21.0,14.0,21.213203435596427,{},{}
215,215,8,0,7.173833333333342,11.0,51.35172830587107,5.0990195135927845,7.071067811865476,14.142135623730953,14.0356688476182,9.0,32.0624390837628,25.019992006393608,19.5,12.0,18.0,6.0,17.0,8.0,1.0,5.0990195135927845,5.0,5.0,20.0,14.0,22.09072203437452,{},{}
216,216,8,0,7.207200000000009,10.04987562112089,52.3450093132096,5.0,8.0,14.0356688476182,15.132745950421556,9.055385138137416,32.0624390837628,24.08318915758459,19.0,11.0,17.0,5.0,18.0,9.0,0.0,5.0990195135927845,5.0,5.0,21.0,14.0,22.09072203437452,{},{}
217,217,8,0,7.240566666666676,12.041594578792296,52.23983154643591,4.0,7.071067811865476,13.152946437965904,14.0356688476182,9.0,32.0624390837628,25.019992006393608,19.0,12.0,17.0,5.5,17.5,8.5,0.5,5.0990195135927845,5.0,5.0,21.0,14.0,23.194827009486403,{},{}
218,218,8,0,7.273933333333343,12.0,52.3450093132096,4.123105625617661,8.06225774829855,13.152946437965904,14.142135623730953,9.0,33.06055050963308,25.019992006393608,19.0,12.0,18.0,6.0,18.0,9.0,1.0,6.082762530298219,6.0,5.5,21.0,14.0,21.095023109728988,{},{}
219,219,8,0,7.3073000000000095,12.0,52.3450093132096,5.0990195135927845,7.071067811865476,13.038404810405298,14.0356688476182,9.0,33.06055050963308,26.019223662515376,20.0,12.0,18.0,6.0,18.0,10.0,1.0,6.082762530298219,5.0,5.0,20.0,14.0,21.095023109728988,{},{}
220,220,8,0,7.340666666666676,12.0,50.35871324805669,5.0990195135927845,8.06225774829855,12.041594578792296,13.152946437965904,8.0,33.06055050963308,25.019992006393608,19.0,11.0,17.0,6.0,19.0,10.0,1.0,5.0990195135927845,5.0990195135927845,5.0,20.0,14.0,21.095023109728988,{},{}
221,221,8,0,7.374033333333343,12.0,47.265209192385896,5.0990195135927845,8.06225774829855,12.041594578792296,13.038404810405298,9.0,34.058772731852805,26.019223662515376,20.0,14.0,19.0,7.5,17.5,8.5,2.5,6.082762530298219,5.0990195135927845,5.0,20.0,15.0,21.095023109728988,{},{}
222,222,8,0,7.40740000000001,12.0,45.39823785126467,5.0990195135927845,8.06225774829855,11.04536101718726,13.152946437965904,8.06225774829855,33.13608305156178,25.079872407968907,19.0,14.0,20.0,9.0,16.0,7.0,4.0,6.082762530298219,5.0,5.5,20.0,15.0,21.02379604162864,{},{}
223,223,8,0,7.440766666666676,9.0,42.42640687119285,5.0,8.06225774829855,11.04536101718726,12.041594578792296,9.219544457292889,31.144823004794876,23.08679276123039,18.5,15.0,21.0,9.0,13.0,4.0,4.0,6.082762530298219,6.0,6.0,20.0,15.0,21.095023109728988,{},{}
224,224,8,0,7.474133333333343,6.082762530298219,42.2965719651132,5.0,9.0,11.0,12.041594578792296,9.055385138137416,29.068883707497267,20.09975124224178,17.0,14.0,19.0,7.5,12.5,2.5,2.5,5.0990195135927845,6.0,6.0,20.0,16.0,21.095023109728988,{},{}
225,225,8,0,7.50750000000001,6.0,40.19950248448356,6.082762530298219,8.06225774829855,11.04536101718726,12.041594578792296,9.055385138137416,29.154759474226505,21.095023109728988,18.0,15.0,19.0,8.0,12.0,3.0,2.0,5.0990195135927845,5.0,5.5,19.0,16.0,20.024984394500787,{},{}
226,226,8,0,7.540866666666677,7.071067811865476,42.1070065428546,5.0,8.0,11.04536101718726,12.041594578792296,10.04987562112089,30.066592756745816,22.09072203437452,18.5,16.0,19.0,7.5,12.5,3.5,2.5,6.082762530298219,5.0990195135927845,5.5,20.0,16.0,21.02379604162864,{},{}
227,227,8,0,7.574233333333344,9.055385138137416,45.17742799230607,5.0,8.0,11.04536101718726,13.038404810405298,10.0,32.01562118716424,24.020824298928627,19.5,16.0,20.0,8.0,14.0,5.0,3.0,5.0990195135927845,5.0,5.5,19.0,17.0,20.024984394500787,{},{}
228,228,8,0,7.60760000000001,12.0,46.09772228646444,5.0,8.06225774829855,12.0,13.038404810405298,9.055385138137416,34.058772731852805,26.019223662515376,20.0,16.0,19.0,8.5,16.5,7.5,3.5,6.082762530298219,5.0990195135927845,5.0,19.0,17.0,21.02379604162864,{},{}
229,229,8,0,7.640966666666677,12.0,44.04543109109048,4.0,8.0,12.041594578792296,13.038404810405298,9.055385138137416,33.015148038438355,25.019992006393608,19.0,16.0,18.0,8.0,16.0,8.0,3.0,5.0990195135927845,5.0990195135927845,5.0,19.0,17.0,22.02271554554524,{},{}
230,230,8,0,7.674333333333344,12.0,46.09772228646444,4.0,8.0,12.0,12.0,9.055385138137416,33.015148038438355,25.019992006393608,19.0,16.0,19.0,8.5,15.5,7.5,4.5,5.0990195135927845,5.0990195135927845,5.0,19.0,17.0,21.02379604162864,{},{}
231,231,8,0,7.707700000000011,13.038404810405298,46.09772228646444,5.0,8.0,11.0,13.0,8.0,34.0147027033899,26.019223662515376,19.5,16.0,19.0,9.5,16.5,7.5,4.5,5.0990195135927845,6.0,6.0,19.0,17.0,22.0,{},{}
232,232,8,0,7.741066666666677,10.0,44.04543109109048,5.0,9.0,11.0,12.0,10.0,34.0,25.0,20.0,18.0,20.0,9.0,15.0,6.0,4.0,6.082762530298219,6.0,6.0,19.0,18.0,21.0,{},{}
233,233,8,0,7.774433333333344,8.0,43.01162633521314,6.0,10.0,12.041594578792296,12.0,10.0,34.0,24.0,20.0,19.0,20.0,9.5,14.5,4.5,3.5,6.0,5.0,5.0,18.0,17.0,20.0,{},{}
234,234,8,0,7.807800000000011,7.071067811865476,41.01219330881976,6.0,9.0,11.04536101718726,12.0,11.0,33.015148038438355,24.020824298928627,20.5,19.0,20.0,8.5,13.5,3.5,2.5,6.082762530298219,5.0990195135927845,5.0,19.0,18.0,21.0,{},{}
235,235,8,0,7.841166666666678,5.0,41.01219330881976,7.0,9.0,11.0,11.0,11.0,32.0,23.0,20.5,19.0,20.0,8.5,12.5,2.5,2.5,6.0,6.0,6.0,19.0,17.0,22.02271554554524,{},{}
236,236,8,0,7.874533333333344,4.123105625617661,39.01281840626232,7.0,9.055385138137416,10.04987562112089,11.0,11.04536101718726,31.016124838541646,22.0,20.0,19.0,20.0,8.5,11.5,1.5,2.5,6.0,6.0,6.0,19.0,18.0,21.02379604162864,{},{}
237,237,8,0,7.907900000000011,4.0,39.0,7.0,9.0,10.04987562112089,11.0,11.0,31.0,22.0,20.0,20.0,20.0,9.0,11.0,2.0,2.0,6.0,6.082762530298219,6.0,19.0,19.0,21.0,{},{}
238,238,8,0,7.941266666666678,5.0,41.0,7.0,9.0,11.0,12.0,12.041594578792296,33.015148038438355,24.020824298928627,21.5,21.0,21.0,9.0,12.0,2.0,2.0,6.0,6.082762530298219,6.0,19.0,19.0,22.0,{},{}
239,239,8,0,7.974633333333345,10.0,41.0,7.0,9.0,11.0,12.0,11.04536101718726,37.01351104664349,28.0178514522438,23.0,22.0,22.0,11.0,15.0,5.0,4.0,6.0,6.0,6.0,19.0,19.0,22.0,{},{}
240,240,8,0,8.008000000000012,16.0312195418814,43.0,6.0,9.0,11.0,12.0,10.04987562112089,41.04875150354759,32.0624390837628,24.0,23.0,23.0,13.0,18.0,8.0,7.0,6.0,6.082762530298219,6.0,19.0,19.0,22.0,{},{}
241,241,8,0,8.041366666666677,14.0,43.0,7.0,10.0,11.0,12.0,9.055385138137416,40.01249804748511,30.01666203960727,23.0,23.0,23.0,14.0,17.0,7.0,6.0,6.0,6.0,6.0,19.0,20.0,23.0,{},{}
242,242,8,0,8.074733333333343,7.0,44.0,7.0,11.0,11.0,12.041594578792296,10.04987562112089,35.0142828000232,24.020824298928627,20.5,21.0,21.0,11.0,14.0,3.0,4.0,6.0,6.082762530298219,5.5,18.0,19.0,22.0,{},{}
243,243,8,0,8.10810000000001,3.0,43.01162633521314,7.071067811865476,9.0,11.0,12.041594578792296,11.0,30.01666203960727,21.02379604162864,19.5,20.0,19.0,8.5,10.5,1.5,1.5,6.0,6.082762530298219,6.0,18.0,20.0,23.0,{},{}
244,244,8,0,8.141466666666675,2.0,44.04543109109048,7.0,8.0,11.0,11.04536101718726,11.04536101718726,28.0178514522438,20.024984394500787,19.0,21.0,19.0,9.0,8.0,0.0,2.0,6.0,6.082762530298219,6.0,17.0,20.0,22.02271554554524,{},{}
245,245,8,0,8.174833333333341,2.0,45.044422518220834,7.0,9.055385138137416,12.0,12.041594578792296,11.04536101718726,29.068883707497267,20.024984394500787,19.0,21.0,19.0,9.0,9.0,0.0,2.0,6.0,5.0990195135927845,5.5,17.0,20.0,23.021728866442675,{},{}
246,246,8,0,8.208200000000007,7.071067811865476,45.044422518220834,7.0,8.0,12.041594578792296,13.038404810405298,10.04987562112089,32.0624390837628,24.08318915758459,20.5,21.0,19.0,10.0,12.0,3.0,4.0,5.0,6.0,5.5,16.0,20.0,23.021728866442675,{},{}
247,247,8,0,8.241566666666673,10.04987562112089,46.04345773288535,6.0,8.0,12.041594578792296,13.038404810405298,9.219544457292889,33.13608305156178,25.179356624028344,20.0,21.0,19.0,11.0,13.0,5.0,5.0,5.0,5.0,5.5,16.0,19.0,24.020824298928627,{},{}
248,248,8,0,8.274933333333339,10.0,47.09564735726647,6.0,7.071067811865476,12.0,13.038404810405298,9.219544457292889,32.14031735997639,25.079872407968907,20.0,21.0,18.0,10.5,12.5,5.5,4.5,6.082762530298219,5.0990195135927845,5.0,17.0,20.0,23.021728866442675,{},{}
249,249,8,0,8.308300000000004,11.04536101718726,46.09772228646444,5.0,8.06225774829855,11.04536101718726,12.041594578792296,9.055385138137416,33.13608305156178,25.079872407968907,19.5,21.0,18.0,10.5,13.5,5.5,5.5,6.0,5.0990195135927845,5.0,16.0,19.0,22.02271554554524,{},{}
250,250,8,0,8.34166666666667,10.0,47.09564735726647,6.0,7.071067811865476,12.041594578792296,13.038404810405298,9.055385138137416,32.0624390837628,25.019992006393608,20.0,21.0,18.0,10.5,12.5,5.5,5.5,6.0,6.082762530298219,5.5,16.0,19.0,22.02271554554524,{},{}
251,251,8,0,8.375033333333336,10.04987562112089,49.04079934095692,6.0,7.0,12.0,13.038404810405298,9.055385138137416,32.0624390837628,25.079872407968907,20.0,20.0,18.0,10.0,13.0,6.0,4.0,6.0,5.0990195135927845,5.5,16.0,19.0,23.0,{},{}
252,252,8,0,8.408400000000002,10.04987562112089,48.010415536631214,5.0,7.0,13.038404810405298,13.038404810405298,10.0,32.01562118716424,25.019992006393608,20.0,20.0,19.0,9.5,12.5,5.5,4.5,5.0,5.0,5.0,16.0,19.0,22.02271554554524,{},{}
253,253,8,0,8.441766666666668,9.0,49.01020301937138,6.0,7.071067811865476,12.0,13.038404810405298,9.055385138137416,31.064449134018133,24.020824298928627,19.5,19.0,18.0,9.5,12.5,5.5,3.5,5.0,5.0990195135927845,5.0,17.0,19.0,23.0,{},{}
254,254,8,0,8.475133333333334,9.0,49.01020301937138,6.0,7.071067811865476,12.0,13.038404810405298,9.055385138137416,31.064449134018133,24.020824298928627,19.5,19.0,18.0,9.5,12.5,5.5,3.5,5.0,4.0,4.5,16.0,18.0,22.02271554554524,{},{}
255,255,8,0,8.5085,9.055385138137416,50.0,6.0,8.0,12.0,14.0,9.055385138137416,32.0624390837628,24.08318915758459,19.5,18.0,18.0,9.0,14.0,6.0,3.0,6.0,5.0,5.0,16.0,18.0,21.02379604162864,{},{}
256,256,8,0,8.541866666666666,10.04987562112089,49.0,6.0,7.0,12.0,14.0,9.055385138137416,32.0624390837628,25.079872407968907,20.0,19.0,19.0,10.0,13.0,6.0,4.0,5.0,5.0990195135927845,5.0,16.0,18.0,22.0,{},{}
257,257,8,0,8.575233333333331,10.0,49.01020301937138,6.0,8.06225774829855,12.0,13.038404810405298,8.06225774829855,32.0624390837628,24.020824298928627,19.0,19.0,18.0,10.5,13.5,5.5,4.5,6.0,5.0990195135927845,5.0,16.0,18.0,23.0,{},{}
258,258,8,0,8.608599999999997,10.0,47.0,6.0,8.06225774829855,12.0,13.038404810405298,8.06225774829855,32.0624390837628,24.020824298928627,19.0,19.0,19.0,11.0,13.0,5.0,5.0,5.0,5.0990195135927845,5.0,17.0,18.0,23.0,{},{}
259,259,8,0,8.641966666666663,10.04987562112089,45.0111097397076,6.0,7.0,11.0,12.0,7.0,30.01666203960727,23.021728866442675,18.0,19.0,18.0,11.5,11.5,4.5,5.5,5.0,5.0,5.0,16.0,18.0,24.0,{},{}
260,260,8,0,8.67533333333333,11.0,43.0,5.0,7.0,11.04536101718726,12.0,7.071067811865476,30.01666203960727,23.021728866442675,17.5,19.0,19.0,12.0,11.0,3.0,6.0,6.0,6.0,6.0,17.0,18.0,22.02271554554524,{},{}
261,261,8,0,8.708699999999995,11.0,42.01190307520001,6.0,8.0,11.0,12.0,5.0,30.0,22.0,16.5,18.0,19.0,13.5,11.5,2.5,7.5,6.0,6.0,5.5,17.0,17.0,22.0,{},{}
262,262,8,0,8.74206666666666,11.0,41.01219330881976,5.0990195135927845,8.0,10.0,12.0,6.0,30.01666203960727,22.02271554554524,16.5,18.0,19.0,12.5,11.5,3.5,6.5,5.0,5.0,5.0,18.0,17.0,22.0,{},{}
263,263,8,0,8.775433333333327,11.0,42.04759208325728,6.0,8.0,10.04987562112089,11.04536101718726,5.0,30.0,22.0,16.5,18.0,20.0,14.0,11.0,3.0,7.0,6.0,6.0,5.5,19.0,17.0,23.021728866442675,{},{}
264,264,8,0,8.808799999999993,11.04536101718726,42.1070065428546,6.0,7.0,10.04987562112089,12.0,6.082762530298219,30.066592756745816,23.08679276123039,17.5,18.0,21.0,13.5,10.5,2.5,6.5,5.0990195135927845,5.0,5.0,19.0,17.0,22.02271554554524,{},{}
265,265,8,0,8.842166666666659,8.0,42.1070065428546,6.0,8.06225774829855,11.0,12.041594578792296,7.280109889280518,29.154759474226505,21.095023109728988,17.0,17.0,20.0,11.5,10.5,1.5,5.5,5.0990195135927845,5.0,5.5,19.0,16.0,21.02379604162864,{},{}
266,266,8,0,8.875533333333324,7.0,42.1070065428546,6.082762530298219,7.071067811865476,10.0,11.0,9.055385138137416,29.154759474226505,22.09072203437452,18.5,18.0,21.0,10.5,9.5,1.5,4.5,5.0990195135927845,5.0990195135927845,5.0,19.0,16.0,21.02379604162864,{},{}
267,267,8,0,8.90889999999999,5.0,40.11234224026316,6.0,8.06225774829855,10.04987562112089,10.04987562112089,9.219544457292889,28.16025568065745,20.09975124224178,17.5,17.0,20.0,9.5,9.5,0.5,2.5,5.0990195135927845,5.0990195135927845,5.0,20.0,17.0,21.02379604162864,{},{}
268,268,8,0,8.942266666666656,4.0,41.04875150354759,7.071067811865476,8.06225774829855,11.04536101718726,11.04536101718726,8.246211251235321,27.29468812791236,19.235384061671343,17.0,17.0,19.0,10.0,9.0,0.0,3.0,6.0,5.0990195135927845,5.0,20.0,16.0,21.02379604162864,{},{}
269,269,8,0,8.975633333333322,3.0,41.10960958218893,7.0,9.055385138137416,10.04987562112089,10.04987562112089,8.246211251235321,27.16615541441225,18.110770276274835,16.5,16.0,19.0,9.5,9.5,0.5,2.5,6.0,5.0990195135927845,5.5,20.0,16.0,21.02379604162864,{},{}
270,270,8,0,9.008999999999988,4.0,41.10960958218893,7.071067811865476,8.06225774829855,10.04987562112089,11.04536101718726,8.246211251235321,27.29468812791236,19.235384061671343,17.0,17.0,20.0,10.5,8.5,0.5,3.5,5.0990195135927845,5.0,5.0,21.0,17.0,22.02271554554524,{},{}
271,271,8,0,9.042366666666654,4.0,42.1070065428546,7.071067811865476,8.06225774829855,11.04536101718726,11.04536101718726,7.280109889280518,26.30589287593181,18.24828759089466,16.0,16.0,19.0,10.5,8.5,0.5,3.5,6.082762530298219,5.0,5.0,20.0,15.0,22.09072203437452,{},{}
272,272,8,0,9.07573333333332,4.0,42.1070065428546,7.071067811865476,8.06225774829855,11.04536101718726,11.04536101718726,7.280109889280518,26.30589287593181,18.24828759089466,16.0,16.0,19.0,10.5,8.5,0.5,3.5,5.0990195135927845,5.0990195135927845,5.0,20.0,16.0,20.09975124224178,{},{}
273,273,8,0,9.109099999999986,4.0,42.190046219457976,6.082762530298219,8.06225774829855,10.04987562112089,11.04536101718726,8.06225774829855,26.1725046566048,18.110770276274835,16.0,16.0,20.0,10.0,8.0,1.0,3.0,6.0,5.0,5.0,21.0,16.0,21.095023109728988,{},{}
274,274,8,0,9.142466666666651,3.1622776601683795,42.190046219457976,7.0,8.06225774829855,10.04987562112089,11.180339887498947,8.246211251235321,26.30589287593181,18.24828759089466,16.5,16.0,20.0,10.0,8.0,1.0,3.0,5.0990195135927845,5.0990195135927845,5.0,21.0,17.0,20.09975124224178,{},{}
275,275,8,0,9.175833333333316,5.0990195135927845,42.2965719651132,6.0,8.06225774829855,10.04987562112089,11.180339887498947,10.198039027185567,29.27456233660889,21.213203435596427,18.5,17.0,22.0,9.5,9.5,0.5,3.5,6.082762530298219,6.082762530298219,5.5,22.0,17.0,20.09975124224178,{},{}
276,276,8,0,9.209199999999983,5.0990195135927845,39.20459156782532,6.0,9.0,10.04987562112089,11.180339887498947,10.198039027185567,30.14962686336267,21.213203435596427,18.5,18.0,22.0,10.0,10.0,0.0,3.0,6.082762530298219,6.082762530298219,6.0,23.0,17.0,23.08679276123039,{},{}
277,277,8,0,9.242566666666647,5.0,40.19950248448356,7.071067811865476,9.0,9.055385138137416,11.04536101718726,10.04987562112089,31.064449134018133,22.09072203437452,19.5,18.0,22.0,10.0,11.0,1.0,3.0,6.082762530298219,6.0,6.0,23.0,18.0,22.09072203437452,{},{}
278,278,8,0,9.275933333333317,7.071067811865476,41.19465984809196,5.0,10.0,11.04536101718726,11.04536101718726,10.04987562112089,32.0624390837628,22.09072203437452,18.5,18.0,22.0,10.0,12.0,2.0,4.0,6.082762530298219,6.0,6.0,23.0,19.0,23.021728866442675,{},{}
279,279,8,0,9.30929999999998,10.0,44.181444068749045,6.0,8.06225774829855,10.0,11.180339887498947,9.055385138137416,33.06055050963308,25.019992006393608,20.0,17.0,21.0,10.0,14.0,5.0,4.0,6.082762530298219,6.0,6.5,23.0,19.0,23.021728866442675,{},{}
280,280,8,0,9.342666666666648,10.0,46.17358552246078,6.0,9.055385138137416,11.0,12.041594578792296,9.055385138137416,34.058772731852805,25.019992006393608,20.0,17.0,21.0,10.0,15.0,5.0,4.0,7.071067811865476,7.0,6.5,24.0,19.0,23.021728866442675,{},{}
281,281,8,0,9.376033333333313,11.0,47.16990566028302,6.0,8.06225774829855,11.04536101718726,13.152946437965904,9.055385138137416,34.058772731852805,26.019223662515376,20.5,17.0,21.0,10.0,15.0,6.0,4.0,7.071067811865476,6.0,6.0,23.0,19.0,23.021728866442675,{},{}
282,282,8,0,9.409399999999978,12.0,47.16990566028302,6.0,7.071067811865476,12.041594578792296,13.152946437965904,9.055385138137416,34.058772731852805,27.018512172212592,21.0,17.0,21.0,10.0,15.0,7.0,4.0,7.071067811865476,7.0,6.5,22.0,19.0,23.021728866442675,{},{}
283,283,8,0,9.442766666666644,12.0,48.16637831516918,5.0990195135927845,7.0,11.04536101718726,13.152946437965904,10.0,34.0147027033899,27.018512172212592,21.0,16.0,20.0,8.0,16.0,7.0,2.0,6.082762530298219,7.0,6.5,23.0,20.0,22.02271554554524,{},{}
284,284,8,0,9.47613333333331,11.0,48.16637831516918,5.0990195135927845,8.0,11.04536101718726,12.041594578792296,10.0,34.0147027033899,26.019223662515376,20.5,16.0,20.0,8.0,16.0,7.0,2.0,6.082762530298219,7.0,6.5,23.0,19.0,23.021728866442675,{},{}
285,285,8,0,9.509499999999976,10.0,48.0936586256442,5.0,8.06225774829855,12.041594578792296,13.038404810405298,10.0,33.015148038438355,25.0,20.0,16.0,19.0,7.5,15.5,6.5,1.5,6.082762530298219,6.0,6.0,22.0,19.0,23.021728866442675,{},{}
286,286,8,0,9.542866666666642,9.055385138137416,48.0936586256442,6.082762530298219,8.06225774829855,11.04536101718726,13.038404810405298,9.0,32.01562118716424,24.0,19.5,16.0,19.0,8.5,14.5,5.5,2.5,6.0,6.0,6.0,21.0,19.0,23.0,{},{}
287,287,8,0,9.576233333333308,8.0,48.0936586256442,6.0,8.0,11.04536101718726,12.041594578792296,9.0,31.0,23.0,19.0,15.0,18.0,7.5,14.5,6.5,1.5,6.0,6.0,6.0,21.0,20.0,23.0,{},{}
288,288,8,0,9.609599999999974,8.0,49.09175083453431,6.0,7.0,11.04536101718726,12.041594578792296,10.0,31.0,24.0,20.0,16.0,19.0,7.5,13.5,5.5,1.5,6.0,6.0,6.0,20.0,19.0,23.0,{},{}
289,289,8,0,9.64296666666664,9.0,49.04079934095692,5.0,7.071067811865476,12.0,13.038404810405298,10.0,31.016124838541646,24.0,19.5,16.0,18.0,7.0,14.0,6.0,2.0,6.0,6.082762530298219,6.0,20.0,19.0,23.0,{},{}
290,290,8,0,9.676333333333304,9.0,48.04164859785725,5.0,8.0,11.0,13.0,10.0,32.0,24.0,19.5,16.0,18.0,7.0,15.0,6.0,2.0,6.0,6.0,6.0,21.0,20.0,22.02271554554524,{},{}
291,291,8,0,9.709699999999971,10.0,49.04079934095692,5.0,7.0,12.0,13.038404810405298,10.0,32.0,25.0,20.0,16.0,18.0,7.0,15.0,7.0,2.0,6.082762530298219,5.0,5.0,21.0,20.0,23.0,{},{}
292,292,8,0,9.743066666666635,11.0,48.04164859785725,5.0,9.0,12.041594578792296,13.038404810405298,10.0,35.0,26.0,20.5,17.0,19.0,8.0,17.0,7.0,2.0,6.082762530298219,6.0,6.0,20.0,19.0,23.0,{},{}
293,293,8,0,9.776433333333305,13.0,48.04164859785725,5.0,8.0,11.04536101718726,13.038404810405298,10.0,36.0,28.0,21.5,18.0,20.0,9.0,17.0,8.0,3.0,6.0,6.0,6.0,20.0,19.0,23.021728866442675,{},{}
294,294,8,0,9.809799999999967,5.0,45.09988913511872,7.0,10.0,11.0,12.041594578792296,11.04536101718726,33.015148038438355,23.021728866442675,20.5,18.0,21.0,8.5,13.5,3.5,1.5,6.0,6.0,6.0,21.0,20.0,22.0,{},{}
295,295,8,0,9.843166666666637,2.0,44.01136216933077,6.0,9.0,11.0,11.04536101718726,13.038404810405298,30.01666203960727,21.02379604162864,20.0,19.0,20.0,6.5,10.5,1.5,0.5,7.071067811865476,7.0,6.5,21.0,20.0,22.0,{},{}
296,296,8,0,9.8765333333333,1.0,44.04543109109048,7.0,9.0,10.04987562112089,12.041594578792296,12.041594578792296,29.017236257093817,20.024984394500787,19.5,18.0,20.0,7.0,10.0,1.0,0.0,6.082762530298219,6.0,6.0,21.0,20.0,22.02271554554524,{},{}
297,297,8,0,9.909899999999968,3.0,45.0111097397076,6.0,8.0,12.0,12.0,12.041594578792296,29.017236257093817,21.02379604162864,19.5,18.0,19.0,6.5,10.5,1.5,0.5,4.123105625617661,4.0,4.0,21.0,20.0,22.02271554554524,{},{}
298,298,8,0,9.943266666666633,7.0,45.0111097397076,6.082762530298219,7.0,11.0,12.0,11.0,31.016124838541646,24.020824298928627,20.5,18.0,19.0,7.5,12.5,4.5,1.5,4.123105625617661,3.0,3.5,21.0,20.0,23.0,{},{}
299,299,8,0,9.976633333333298,9.0,47.0,5.0,8.0,12.0,14.0,11.04536101718726,33.015148038438355,25.019992006393608,20.5,19.0,19.0,8.0,14.0,6.0,3.0,4.123105625617661,3.0,3.5,21.0,20.0,22.0,{},{}
300,300,8,0,10.009999999999964,10.0,47.0,5.0,8.0,12.0,14.0,10.0,33.0,25.0,20.0,19.0,19.0,9.0,14.0,6.0,4.0,4.123105625617661,4.0,4.0,21.0,20.0,22.0,{},{}
301,301,8,0,10.04336666666663,14.0,46.01086828130936,5.0,8.06225774829855,12.0,13.0,10.0,37.01351104664349,29.0,22.0,20.0,21.0,10.5,16.5,7.5,5.5,4.0,5.0990195135927845,5.0,20.0,21.0,22.0,{},{}
302,302,8,0,10.076733333333296,14.0,45.0,5.0,8.0,11.0,12.0,9.055385138137416,36.013886210738214,28.0178514522438,21.0,21.0,21.0,12.0,15.0,6.0,6.0,5.0,4.0,4.0,19.0,20.0,24.020824298928627,{},{}
303,303,8,0,10.110099999999962,14.0,44.0,5.0,9.055385138137416,12.0,13.0,10.04987562112089,38.05259518088089,29.017236257093817,22.0,22.0,22.0,12.0,16.0,6.0,7.0,5.0990195135927845,4.0,4.0,19.0,20.0,23.0,{},{}
304,304,8,0,10.143466666666628,14.0,43.0,5.0,8.0,11.04536101718726,12.0,9.055385138137416,36.013886210738214,28.0178514522438,21.0,21.0,21.0,12.0,15.0,7.0,7.0,5.0,5.0990195135927845,5.0,18.0,21.0,24.020824298928627,{},{}
305,305,8,0,10.176833333333294,14.0356688476182,42.01190307520001,6.0,8.0,11.04536101718726,12.0,8.06225774829855,36.05551275463989,28.0713376952364,21.0,22.0,21.0,13.5,14.5,6.5,7.5,5.0,5.0,5.0,18.0,21.0,23.021728866442675,{},{}
306,306,8,0,10.21019999999996,15.0,43.01162633521314,6.0,8.06225774829855,10.0,12.041594578792296,8.06225774829855,37.05401462729781,29.017236257093817,21.5,22.0,21.0,13.5,15.5,7.5,6.5,6.0,5.0,5.0,19.0,21.0,23.08679276123039,{},{}
307,307,8,0,10.243566666666624,15.033296378372908,42.01190307520001,5.0,8.0,11.0,12.041594578792296,9.055385138137416,37.05401462729781,29.068883707497267,21.5,23.0,22.0,13.5,14.5,6.5,7.5,6.0,5.0990195135927845,5.5,19.0,21.0,22.09072203437452,{},{}
308,308,8,0,10.276933333333291,14.0,41.01219330881976,6.0,8.0,11.0,12.041594578792296,8.246211251235321,36.05551275463989,28.0713376952364,21.0,23.0,22.0,14.5,13.5,5.5,7.5,6.0,5.0,5.0,18.0,21.0,22.02271554554524,{},{}
309,309,8,0,10.310299999999955,13.0,43.04648650006177,6.0,8.06225774829855,11.0,13.038404810405298,9.055385138137416,36.05551275463989,28.0178514522438,21.5,23.0,21.0,13.0,14.0,6.0,7.0,6.0,6.0,5.5,18.0,20.0,23.021728866442675,{},{}
310,310,8,0,10.343666666666625,13.0,43.01162633521314,6.0,7.071067811865476,11.0,12.041594578792296,8.06225774829855,34.058772731852805,27.018512172212592,20.5,22.0,21.0,13.5,12.5,5.5,7.5,6.0,6.0,6.0,18.0,20.0,23.021728866442675,{},{}
311,311,8,0,10.377033333333287,11.0,45.0111097397076,6.0,8.06225774829855,12.0,12.041594578792296,9.055385138137416,34.058772731852805,26.019223662515376,20.5,22.0,21.0,12.5,12.5,4.5,6.5,6.0,6.082762530298219,6.0,19.0,21.0,23.021728866442675,{},{}
312,312,8,0,10.410399999999957,10.0,46.04345773288535,6.0,8.0,12.041594578792296,13.038404810405298,9.055385138137416,33.015148038438355,25.019992006393608,20.0,22.0,20.0,12.0,12.0,4.0,6.0,7.0,5.0990195135927845,5.0,19.0,20.0,23.021728866442675,{},{}
313,313,8,0,10.44376666666662,10.0,48.04164859785725,6.0,8.0,12.0,13.038404810405298,9.055385138137416,33.015148038438355,25.019992006393608,20.0,21.0,19.0,11.0,13.0,5.0,5.0,5.0,6.0,6.0,19.0,20.0,23.021728866442675,{},{}
314,314,8,0,10.477133333333288,11.0,48.010415536631214,6.0,9.055385138137416,12.0,13.038404810405298,9.0,35.0142828000232,26.0,20.5,21.0,20.0,11.5,14.5,5.5,5.5,6.082762530298219,6.0,6.0,18.0,20.0,22.0,{},{}
315,315,8,0,10.510499999999952,13.0,48.010415536631214,6.0,9.055385138137416,12.0,13.038404810405298,10.0,38.01315561749642,29.0,22.5,22.0,21.0,11.5,16.5,7.5,5.5,6.082762530298219,5.0,5.5,19.0,21.0,22.0,{},{}
316,316,8,0,10.543866666666618,15.0,50.00999900019995,7.071067811865476,9.0,11.0,14.0,9.0,40.01249804748511,31.016124838541646,23.5,22.0,21.0,12.5,18.5,9.5,5.5,6.0,6.0,6.0,19.0,20.0,24.0,{},{}
317,317,8,0,10.577233333333284,15.0,49.01020301937138,7.0,9.055385138137416,12.0,13.0,9.0,40.01249804748511,31.0,23.5,22.0,21.0,12.5,18.5,9.5,5.5,5.0,5.0990195135927845,5.0,19.0,20.0,23.0,{},{}
318,318,8,0,10.61059999999995,14.0,48.0,6.0,9.055385138137416,12.0,13.0,10.04987562112089,39.05124837953327,30.01666203960727,23.0,21.0,21.0,11.0,18.0,9.0,5.0,6.0,6.082762530298219,5.5,19.0,20.0,23.0,{},{}
319,319,8,0,10.643966666666616,10.0,46.01086828130936,6.0,10.04987562112089,11.0,13.0,10.0,36.013886210738214,26.0,21.0,21.0,20.0,10.5,15.5,5.5,4.5,6.0,6.0,6.0,20.0,21.0,22.0,{},{}
320,320,8,0,10.677333333333282,5.0,44.01136216933077,7.0,9.055385138137416,12.0,13.038404810405298,11.0,32.01562118716424,23.0,20.5,21.0,20.0,9.5,11.5,2.5,2.5,7.0,6.0,6.0,20.0,21.0,22.02271554554524,{},{}
321,321,8,0,10.710699999999948,4.0,44.01136216933077,7.0,9.055385138137416,11.0,11.0,10.04987562112089,30.066592756745816,21.02379604162864,19.0,20.0,19.0,9.5,10.5,1.5,2.5,7.0,6.082762530298219,6.0,19.0,20.0,22.02271554554524,{},{}
322,322,8,0,10.744066666666614,3.0,44.0,7.0,8.0,11.0,12.0,10.04987562112089,28.0178514522438,20.024984394500787,18.5,19.0,19.0,9.0,9.0,1.0,2.0,7.0,6.0,6.0,20.0,21.0,22.02271554554524,{},{}
323,323,8,0,10.77743333333328,6.0,43.0,6.0,9.0,10.0,12.041594578792296,9.055385138137416,30.01666203960727,21.02379604162864,18.0,19.0,19.0,10.0,11.0,2.0,3.0,6.0,6.0,6.0,20.0,21.0,23.0,{},{}
324,324,8,0,10.810799999999944,9.0,42.0,6.0,8.06225774829855,11.0,11.0,8.0,31.016124838541646,23.0,18.5,19.0,19.0,11.0,12.0,4.0,5.0,7.0,6.0,6.0,19.0,20.0,23.0,{},{}
325,325,8,0,10.844166666666611,9.0,42.01190307520001,6.0,8.0,11.0,12.041594578792296,9.0,32.0,24.0,19.5,20.0,19.0,10.5,12.5,4.5,4.5,7.0,6.0,6.0,20.0,20.0,24.0,{},{}
326,326,8,0,10.877533333333275,8.0,43.0,6.0,9.0,11.0,12.0,9.0,32.0,23.0,19.0,20.0,20.0,11.0,12.0,3.0,4.0,7.071067811865476,6.0,6.0,20.0,20.0,23.0,{},{}
327,327,8,0,10.910899999999945,5.0,42.0,8.0,9.0,11.04536101718726,12.041594578792296,9.0,31.0,22.0,19.5,20.0,20.0,11.0,11.0,2.0,4.0,7.071067811865476,6.0,6.0,20.0,20.0,23.0,{},{}
328,328,8,0,10.944266666666609,4.0,41.0,7.0,9.055385138137416,11.0,11.0,10.0,30.01666203960727,21.0,19.0,20.0,20.0,10.0,10.0,1.0,3.0,6.0,6.0,6.0,20.0,20.0,23.0,{},{}
329,329,8,0,10.977633333333277,5.0,41.04875150354759,7.0,9.0,10.04987562112089,12.041594578792296,10.04987562112089,31.016124838541646,22.02271554554524,19.5,19.0,21.0,10.0,11.0,1.0,2.0,7.071067811865476,6.0,6.0,20.0,19.0,23.021728866442675,{},{}
330,330,8,0,11.01099999999994,5.0,41.10960958218893,8.06225774829855,10.0,11.0,12.0,9.055385138137416,32.0624390837628,22.09072203437452,19.5,19.0,22.0,11.5,11.5,1.5,3.5,5.0990195135927845,6.0,5.5,21.0,18.0,22.02271554554524,{},{}
331,331,8,0,11.044366666666606,9.0,42.190046219457976,7.071067811865476,9.055385138137416,11.0,12.041594578792296,10.04987562112089,35.12833614050059,26.0768096208106,21.5,19.0,23.0,11.0,14.0,4.0,4.0,6.082762530298219,6.0,5.5,22.0,18.0,22.02271554554524,{},{}
332,332,8,0,11.077733333333272,6.0,41.19465984809196,8.0,10.04987562112089,10.04987562112089,10.04987562112089,10.198039027185567,34.132096331752024,24.08318915758459,21.0,19.0,23.0,11.0,13.0,2.0,3.0,6.082762530298219,6.082762530298219,5.5,23.0,19.0,22.09072203437452,{},{}
333,333,8,0,11.111099999999938,4.0,42.190046219457976,7.0,9.055385138137416,10.04987562112089,11.04536101718726,11.180339887498947,31.144823004794876,22.09072203437452,20.0,18.0,22.0,9.0,11.0,1.0,1.0,6.082762530298219,6.082762530298219,5.5,22.0,18.0,23.08679276123039,{},{}
334,334,8,0,11.144466666666604,1.0,41.19465984809196,8.06225774829855,9.0,10.04987562112089,11.0,11.04536101718726,29.068883707497267,20.09975124224178,19.5,18.0,22.0,9.0,9.0,0.0,1.0,7.071067811865476,6.0,6.0,22.0,18.0,22.02271554554524,{},{}
335,335,8,0,11.17783333333327,1.0,42.1070065428546,8.06225774829855,9.0,9.055385138137416,10.04987562112089,11.04536101718726,29.068883707497267,20.09975124224178,19.5,18.0,21.0,8.5,9.5,0.5,0.5,7.071067811865476,6.0,6.5,22.0,19.0,23.021728866442675,{},{}
336,336,8,0,11.211199999999936,2.0,42.1070065428546,7.0,9.0,10.04987562112089,11.04536101718726,12.041594578792296,30.01666203960727,21.02379604162864,20.0,18.0,21.0,7.5,10.5,0.5,0.5,6.082762530298219,6.0,6.0,21.0,19.0,23.021728866442675,{},{}
337,337,8,0,11.244566666666602,3.0,42.1070065428546,7.0,9.0,10.04987562112089,11.0,11.04536101718726,30.01666203960727,21.02379604162864,19.5,18.0,21.0,8.5,10.5,0.5,0.5,6.082762530298219,6.0,6.0,22.0,20.0,24.0,{},{}
338,338,8,0,11.277933333333268,3.0,42.04759208325728,7.0,10.04987562112089,10.0,11.0,11.04536101718726,31.064449134018133,21.02379604162864,19.5,18.0,20.0,8.0,12.0,1.0,1.0,6.082762530298219,6.0,6.5,21.0,20.0,22.0,{},{}
339,339,8,0,11.311299999999934,3.0,43.10452412450461,7.0,10.04987562112089,11.0,12.0,11.04536101718726,31.064449134018133,21.02379604162864,19.5,18.0,21.0,8.5,11.5,1.5,1.5,6.082762530298219,6.0,6.0,22.0,21.0,22.02271554554524,{},{}
340,340,8,0,11.3446666666666,4.123105625617661,43.04648650006177,7.0,10.0,11.0,12.0,11.0,32.01562118716424,22.02271554554524,20.0,19.0,21.0,9.0,12.0,2.0,2.0,7.071067811865476,6.082762530298219,6.5,22.0,21.0,22.0,{},{}
341,341,8,0,11.378033333333263,5.0,42.04759208325728,6.0,9.055385138137416,11.0,12.041594578792296,11.0,31.016124838541646,22.0,19.5,18.0,20.0,8.0,12.0,2.0,2.0,6.0,6.0,6.0,21.0,21.0,23.0,{},{}
342,342,8,0,11.411399999999931,4.123105625617661,42.04759208325728,7.0,10.0,11.04536101718726,11.0,10.0,31.016124838541646,21.02379604162864,19.0,18.0,20.0,9.0,12.0,2.0,2.0,6.082762530298219,7.0,7.0,21.0,21.0,23.0,{},{}
343,343,8,0,11.444766666666595,5.0,42.01190307520001,6.0,9.0,11.0,12.0,11.04536101718726,31.016124838541646,22.02271554554524,19.5,19.0,20.0,8.5,11.5,1.5,2.5,6.082762530298219,6.0,6.0,22.0,21.0,22.02271554554524,{},{}
344,344,8,0,11.478133333333265,5.0,43.04648650006177,6.0,9.0,11.0,12.041594578792296,10.04987562112089,30.01666203960727,21.02379604162864,18.5,18.0,20.0,9.0,11.0,1.0,3.0,7.071067811865476,6.0,6.0,20.0,21.0,22.02271554554524,{},{}
345,345,8,0,11.511499999999929,4.0,43.01162633521314,6.0,9.055385138137416,11.0,12.0,10.04987562112089,29.0,20.024984394500787,18.0,18.0,19.0,8.5,10.5,1.5,2.5,6.082762530298219,6.0,6.0,21.0,21.0,23.0,{},{}
346,346,8,0,11.544866666666596,3.1622776601683795,42.0,6.0,9.0,10.0,11.0,10.04987562112089,28.0,19.0,17.5,18.0,18.0,8.0,10.0,0.0,2.0,7.071067811865476,6.0,6.0,21.0,21.0,23.0,{},{}
347,347,8,0,11.57823333333326,5.0,42.0,6.0,9.0,11.0,12.0,9.0,29.0,20.0,17.5,19.0,19.0,10.0,10.0,0.0,4.0,6.082762530298219,6.0,6.0,20.0,21.0,21.02379604162864,{},{}
348,348,8,0,11.611599999999926,6.0,42.0,6.0,10.0,11.0,12.0,9.055385138137416,31.016124838541646,21.02379604162864,18.0,19.0,19.0,10.0,12.0,2.0,4.0,6.0,6.082762530298219,6.0,20.0,21.0,23.021728866442675,{},{}
349,349,8,0,11.644966666666592,7.0,42.01190307520001,7.071067811865476,9.0,11.04536101718726,12.041594578792296,9.0,32.01562118716424,23.021728866442675,19.5,21.0,20.0,11.5,11.5,1.5,5.5,6.082762530298219,6.082762530298219,6.0,20.0,21.0,24.0,{},{}
350,350,8,0,11.678333333333258,7.0,41.04875150354759,6.0,10.0,11.04536101718726,12.041594578792296,9.055385138137416,32.01562118716424,22.02271554554524,18.5,21.0,19.0,11.0,12.0,2.0,5.0,6.082762530298219,6.082762530298219,6.0,19.0,21.0,22.02271554554524,{},{}
351,351,8,0,11.711699999999924,8.0,41.01219330881976,6.0,9.055385138137416,10.0,11.04536101718726,9.055385138137416,32.0624390837628,23.021728866442675,19.0,21.0,20.0,11.5,11.5,2.5,5.5,6.082762530298219,6.082762530298219,5.5,18.0,21.0,23.021728866442675,{},{}
352,352,8,0,11.74506666666659,8.06225774829855,42.04759208325728,6.0,9.0,11.04536101718726,12.041594578792296,9.055385138137416,32.0624390837628,23.08679276123039,19.0,21.0,19.0,11.0,12.0,3.0,5.0,6.0,6.082762530298219,6.0,18.0,21.0,21.02379604162864,{},{}
353,353,8,0,11.778433333333256,8.0,41.01219330881976,6.0,9.0,11.04536101718726,12.041594578792296,9.055385138137416,32.01562118716424,23.021728866442675,19.0,20.0,19.0,10.5,12.5,3.5,5.5,6.0,6.082762530298219,6.0,19.0,21.0,22.02271554554524,{},{}
354,354,8,0,11.811799999999922,8.0,40.01249804748511,6.0,9.055385138137416,10.0,11.04536101718726,10.04987562112089,33.06055050963308,24.020824298928627,20.0,21.0,20.0,10.5,12.5,3.5,4.5,6.0,6.082762530298219,6.0,19.0,21.0,22.02271554554524,{},{}
355,355,8,0,11.845166666666588,4.0,42.01190307520001,6.0,10.0,11.0,12.0,11.04536101718726,31.016124838541646,21.02379604162864,19.0,20.0,19.0,8.5,11.5,1.5,2.5,6.0,7.071067811865476,6.5,19.0,21.0,22.02271554554524,{},{}
356,356,8,0,11.878533333333252,2.0,40.01249804748511,7.071067811865476,9.0,11.0,11.0,12.0,30.01666203960727,21.02379604162864,20.0,20.0,19.0,7.5,10.5,0.5,0.5,7.071067811865476,6.082762530298219,6.0,19.0,20.0,23.021728866442675,{},{}
357,357,8,0,11.91189999999992,1.0,41.0,7.0,10.0,11.0,12.0,12.0,30.0,20.0,19.5,19.0,19.0,7.0,11.0,1.0,1.0,7.0,6.082762530298219,6.0,20.0,20.0,22.0,{},{}
358,358,8,0,11.945266666666583,4.0,42.01190307520001,6.0,10.0,10.0,12.0,12.041594578792296,32.01562118716424,22.02271554554524,20.0,19.0,20.0,7.5,12.5,1.5,1.5,7.071067811865476,7.0,6.5,20.0,20.0,22.0,{},{}
359,359,8,0,11.978633333333253,8.0,43.04648650006177,6.0,9.0,11.04536101718726,12.0,11.0,34.0,25.0,21.0,19.0,21.0,9.0,14.0,4.0,3.0,6.0,6.082762530298219,6.0,20.0,20.0,22.0,{},{}
360,360,8,0,12.011999999999915,10.0,43.04648650006177,5.0,9.0,11.04536101718726,12.0,10.0,34.0,25.0,20.0,18.0,20.0,9.0,15.0,5.0,3.0,6.082762530298219,5.0,5.5,20.0,19.0,23.0,{},{}
361,361,8,0,12.045366666666585,10.0,46.04345773288535,6.0,9.0,11.04536101718726,13.0,10.0,35.0,26.0,21.0,18.0,20.0,9.0,16.0,6.0,3.0,7.071067811865476,6.0,6.0,20.0,20.0,22.0,{},{}
362,362,8,0,12.078733333333249,12.0,47.042533945356304,5.0,8.0,12.0,13.038404810405298,10.04987562112089,35.0142828000232,27.018512172212592,21.0,17.0,19.0,8.0,17.0,8.0,3.0,6.082762530298219,5.0990195135927845,5.5,20.0,20.0,22.0,{},{}
363,363,8,0,12.112099999999916,12.0,48.16637831516918,5.0,9.0,12.041594578792296,13.038404810405298,10.04987562112089,36.013886210738214,27.018512172212592,21.0,15.0,19.0,7.0,19.0,9.0,2.0,6.0,6.082762530298219,6.0,19.0,19.0,24.0,{},{}
364,364,8,0,12.14546666666658,12.0,49.09175083453431,5.0,9.0,11.04536101718726,13.038404810405298,10.0,36.0,27.0,21.0,15.0,18.0,6.5,19.5,9.5,1.5,6.082762530298219,5.0,5.5,19.0,19.0,23.0,{},{}
365,365,8,0,12.178833333333246,13.0,50.15974481593781,5.0,9.0,12.041594578792296,14.0356688476182,10.04987562112089,37.01351104664349,28.0178514522438,21.5,15.0,19.0,7.0,20.0,10.0,2.0,6.0,6.082762530298219,6.0,20.0,19.0,23.021728866442675,{},{}
366,366,8,0,12.212199999999912,13.0,47.16990566028302,4.0,9.0,12.041594578792296,13.152946437965904,10.04987562112089,36.013886210738214,27.018512172212592,20.5,15.0,19.0,7.0,19.0,9.0,3.0,6.082762530298219,6.082762530298219,6.0,20.0,19.0,22.0,{},{}
367,367,8,0,12.245566666666578,12.0,46.17358552246078,4.0,9.0,11.04536101718726,13.152946437965904,9.0,34.0,25.0,19.0,14.0,18.0,7.0,18.0,8.0,3.0,6.082762530298219,6.0,6.0,20.0,19.0,23.021728866442675,{},{}
368,368,8,0,12.278933333333244,11.04536101718726,43.18564576337837,4.0,9.055385138137416,10.04987562112089,12.16552506059644,8.06225774829855,32.01562118716424,23.0,17.5,14.0,18.0,8.0,16.0,6.0,3.0,6.082762530298219,7.071067811865476,6.5,21.0,19.0,22.0,{},{}
369,369,8,0,12.31229999999991,10.0,42.190046219457976,4.0,9.0,11.04536101718726,11.180339887498947,8.0,31.0,22.0,17.0,14.0,18.0,8.0,15.0,5.0,4.0,7.071067811865476,6.082762530298219,6.0,20.0,18.0,22.02271554554524,{},{}
370,370,8,0,12.345666666666576,10.0,42.190046219457976,4.0,9.0,10.04987562112089,12.041594578792296,8.06225774829855,31.016124838541646,22.02271554554524,17.0,15.0,19.0,9.0,14.0,4.0,4.0,6.082762530298219,6.0,6.0,20.0,19.0,22.02271554554524,{},{}
371,371,8,0,12.379033333333242,9.0,43.10452412450461,5.0,9.0,11.04536101718726,12.041594578792296,8.06225774829855,31.016124838541646,22.02271554554524,17.5,15.0,18.0,8.5,14.5,4.5,3.5,6.082762530298219,6.0,6.0,20.0,18.0,22.0,{},{}
372,372,8,0,12.412399999999908,8.0,45.09988913511872,5.0990195135927845,9.0,11.04536101718726,12.041594578792296,10.04987562112089,32.0,23.0,19.0,15.0,18.0,6.5,15.5,5.5,1.5,6.082762530298219,6.0,6.0,20.0,19.0,23.021728866442675,{},{}
373,373,8,0,12.445766666666572,8.0,47.16990566028302,5.0,9.0,12.041594578792296,13.152946437965904,10.0,32.0,23.0,19.0,14.0,18.0,6.0,16.0,6.0,1.0,7.071067811865476,6.0,6.0,20.0,19.0,22.02271554554524,{},{}
374,374,8,0,12.47913333333324,9.0,49.09175083453431,5.0,8.0,12.041594578792296,13.038404810405298,10.0,32.0,24.0,19.5,14.0,17.0,5.5,16.5,7.5,0.5,6.082762530298219,6.0,6.0,20.0,19.0,23.021728866442675,{},{}
375,375,8,0,12.512499999999903,9.0,49.09175083453431,4.0,8.0,12.0,13.038404810405298,11.0,32.0,24.0,19.5,14.0,17.0,4.5,16.5,7.5,0.5,6.082762530298219,6.0,6.0,19.0,18.0,22.0,{},{}
376,376,8,0,12.545866666666573,9.0,50.08991914547278,5.0,8.0,12.041594578792296,13.038404810405298,10.0,32.0,24.0,19.5,13.0,16.0,4.5,17.5,8.5,0.5,6.082762530298219,6.082762530298219,6.0,20.0,19.0,23.021728866442675,{},{}
377,377,8,0,12.579233333333235,9.0,50.039984012787215,4.0,9.0,12.0,14.0356688476182,10.0,32.0,23.0,18.5,13.0,15.0,4.0,18.0,8.0,0.0,6.0,6.082762530298219,6.0,19.0,18.0,22.0,{},{}
378,378,8,0,12.612599999999905,9.0,50.039984012787215,4.0,9.0,12.0,13.038404810405298,10.0,32.0,23.0,18.5,13.0,15.0,4.0,18.0,9.0,0.0,7.0,6.0,6.0,19.0,18.0,23.0,{},{}
379,379,8,0,12.645966666666569,9.0,49.04079934095692,5.0,8.0,12.041594578792296,13.038404810405298,10.0,32.0,24.0,19.5,14.0,16.0,5.0,17.0,8.0,0.0,7.0,6.0,6.0,19.0,18.0,23.0,{},{}
380,380,8,0,12.679333333333236,8.0,49.04079934095692,5.0,8.0,13.038404810405298,13.038404810405298,10.0,31.0,23.0,19.0,14.0,16.0,5.0,16.0,7.0,0.0,6.082762530298219,6.082762530298219,6.0,19.0,19.0,23.0,{},{}
381,381,8,0,12.7126999999999,7.0,47.01063709417264,6.0,8.0,11.0,13.0,10.0,31.0,23.0,19.5,15.0,16.0,5.5,15.5,7.5,0.5,6.082762530298219,7.071067811865476,6.5,19.0,19.0,22.0,{},{}
382,382,8,0,12.746066666666566,6.0,46.01086828130936,6.0,9.0,12.0,13.0,10.0,31.0,22.0,19.0,15.0,16.0,5.5,15.5,5.5,0.5,7.071067811865476,6.082762530298219,6.0,19.0,19.0,23.0,{},{}
383,383,8,0,12.779433333333232,7.0,46.01086828130936,5.0,8.0,11.0,13.038404810405298,10.0,30.0,22.0,18.5,15.0,16.0,5.5,14.5,5.5,0.5,6.082762530298219,7.071067811865476,6.5,19.0,19.0,22.0,{},{}
384,384,8,0,12.812799999999898,6.0,46.01086828130936,6.0,8.0,11.0,12.0,10.0,30.0,22.0,19.0,15.0,16.0,5.5,14.5,5.5,0.5,6.082762530298219,6.082762530298219,6.0,19.0,19.0,22.0,{},{}
385,385,8,0,12.846166666666564,6.0,46.01086828130936,5.0,9.0,11.0,13.038404810405298,11.0,31.0,22.0,19.0,16.0,17.0,5.5,14.5,5.5,0.5,6.082762530298219,5.0990195135927845,5.5,20.0,19.0,22.02271554554524,{},{}
386,386,8,0,12.87953333333323,6.0,45.0111097397076,6.0,8.06225774829855,11.0,13.0,10.04987562112089,30.0,22.02271554554524,19.0,16.0,17.0,6.5,13.5,4.5,0.5,3.0,3.0,3.0,20.0,20.0,22.0,{},{}
387,387,8,0,12.912899999999896,7.071067811865476,46.0,6.0,8.0,11.0,13.0,10.04987562112089,31.0,23.0,19.5,17.0,17.0,7.0,14.0,5.0,1.0,3.0,3.0,3.0,20.0,20.0,23.0,{},{}
388,388,8,0,12.946266666666562,8.0,46.0,6.0,8.0,11.0,12.0,10.0,32.0,24.0,20.0,18.0,18.0,8.0,14.0,5.0,2.0,3.1622776601683795,3.1622776601683795,3.0,19.0,19.0,23.0,{},{}
389,389,8,0,12.979633333333227,9.0,45.0,6.082762530298219,9.0,11.0,12.0,11.0,35.0142828000232,26.019223662515376,21.5,19.0,19.0,8.0,16.0,6.0,2.0,4.123105625617661,4.0,4.0,19.0,19.0,23.0,{},{}
390,390,8,0,13.012999999999892,11.0,45.0,6.0,9.055385138137416,12.0,13.0,11.0,37.01351104664349,28.0,22.5,21.0,21.0,10.0,16.0,6.0,4.0,5.0,4.0,4.5,19.0,20.0,23.021728866442675,{},{}
391,391,8,0,13.04636666666656,7.071067811865476,43.01162633521314,7.0,12.0,11.0,12.041594578792296,11.0,37.01351104664349,25.019992006393608,21.5,22.0,21.0,10.5,15.5,4.5,3.5,6.082762530298219,6.0,5.5,20.0,20.0,22.0,{},{}
392,392,8,0,13.079733333333223,7.0,42.01190307520001,8.0,11.0,11.04536101718726,12.041594578792296,11.04536101718726,37.01351104664349,26.019223662515376,22.5,23.0,22.0,11.5,14.5,3.5,4.5,6.082762530298219,6.082762530298219,6.0,20.0,21.0,24.020824298928627,{},{}
393,393,8,0,13.113099999999893,7.071067811865476,41.01219330881976,7.0,11.0,10.0,12.041594578792296,12.041594578792296,37.05401462729781,26.0768096208106,22.5,24.0,23.0,11.5,13.5,2.5,4.5,6.082762530298219,6.0,6.0,19.0,21.0,22.0,{},{}
394,394,8,0,13.146466666666557,7.0,40.049968789001575,7.0,10.0,10.0,11.04536101718726,12.16552506059644,36.05551275463989,26.0768096208106,22.5,24.0,22.0,11.0,13.0,2.0,4.0,6.0,6.0,5.5,19.0,21.0,21.0,{},{}
395,395,8,0,13.179833333333224,5.0,38.01315561749642,7.0,10.04987562112089,9.0,11.04536101718726,12.041594578792296,34.058772731852805,24.020824298928627,21.5,23.0,22.0,10.5,11.5,1.5,3.5,7.0,6.0,6.0,19.0,21.0,21.0,{},{}
396,396,8,0,13.213199999999889,3.0,38.05259518088089,7.0,10.04987562112089,9.0,11.04536101718726,12.041594578792296,32.0624390837628,22.02271554554524,20.5,23.0,21.0,10.0,10.0,0.0,3.0,7.0,6.0,6.0,19.0,21.0,21.0,{},{}
397,397,8,0,13.246566666666554,4.0,37.01351104664349,7.071067811865476,9.0,9.055385138137416,10.04987562112089,11.04536101718726,31.064449134018133,22.09072203437452,20.0,22.0,21.0,10.5,9.5,0.5,3.5,7.0,7.071067811865476,6.5,19.0,21.0,20.0,{},{}
398,398,8,0,13.27993333333322,4.123105625617661,38.05259518088089,7.0,10.0,10.04987562112089,10.04987562112089,11.04536101718726,32.0624390837628,22.09072203437452,20.0,22.0,20.0,10.0,11.0,1.0,3.0,7.0,7.0,6.5,19.0,21.0,22.0,{},{}
399,399,8,0,13.313299999999886,6.0,41.04875150354759,7.0,9.0,11.04536101718726,11.04536101718726,12.16552506059644,34.058772731852805,25.079872407968907,22.0,23.0,21.0,10.0,12.0,3.0,4.0,7.0,6.0,6.0,18.0,20.0,22.0,{},{}
400,400,8,0,13.346666666666552,6.0,41.04875150354759,8.0,10.04987562112089,10.0,11.0,10.04987562112089,34.058772731852805,24.020824298928627,21.0,22.0,20.0,11.0,13.0,3.0,3.0,6.0,7.0,6.5,18.0,19.0,22.02271554554524,{},{}
401,401,8,0,13.380033333333218,6.0,44.04543109109048,6.0,9.0,11.0,12.041594578792296,11.04536101718726,32.01562118716424,23.021728866442675,20.0,21.0,19.0,9.0,12.0,3.0,3.0,7.0,6.0,6.0,19.0,20.0,22.0,{},{}
402,402,8,0,13.413399999999884,5.0990195135927845,45.0111097397076,7.0,9.0,11.04536101718726,12.041594578792296,11.0,32.01562118716424,23.021728866442675,20.5,21.0,20.0,9.5,11.5,2.5,3.5,7.071067811865476,6.082762530298219,6.0,18.0,19.0,21.0,{},{}
403,403,8,0,13.44676666666655,5.0990195135927845,44.01136216933077,7.0,10.0,11.0,12.041594578792296,10.0,32.01562118716424,22.02271554554524,19.5,21.0,20.0,10.5,11.5,1.5,3.5,6.082762530298219,6.0,6.0,19.0,19.0,21.0,{},{}
404,404,8,0,13.480133333333216,4.0,43.01162633521314,7.071067811865476,10.0,11.04536101718726,12.041594578792296,10.0,31.016124838541646,21.02379604162864,19.0,20.0,19.0,9.5,11.5,1.5,3.5,7.071067811865476,6.082762530298219,6.5,19.0,20.0,20.0,{},{}
405,405,8,0,13.51349999999988,4.0,44.01136216933077,7.0,10.04987562112089,12.041594578792296,12.041594578792296,10.0,31.016124838541646,21.0,19.0,20.0,19.0,9.5,11.5,1.5,3.5,6.082762530298219,6.082762530298219,6.0,19.0,20.0,21.0,{},{}
406,406,8,0,13.546866666666547,5.0,43.01162633521314,7.0,9.055385138137416,11.0,13.038404810405298,10.0,31.016124838541646,22.0,19.5,20.0,19.0,9.5,11.5,1.5,2.5,6.082762530298219,6.0,6.0,19.0,20.0,22.0,{},{}
407,407,8,0,13.580233333333211,4.0,44.01136216933077,7.0,10.04987562112089,11.0,12.041594578792296,10.04987562112089,31.064449134018133,21.02379604162864,19.0,20.0,19.0,9.5,11.5,1.5,2.5,7.071067811865476,6.082762530298219,6.0,19.0,20.0,21.0,{},{}
408,408,8,0,13.61359999999988,5.0,43.01162633521314,7.0,9.055385138137416,11.04536101718726,12.0,10.0,31.016124838541646,22.0,19.5,20.0,19.0,9.5,11.5,1.5,3.5,7.071067811865476,6.0,6.0,20.0,20.0,21.0,{},{}
409,409,8,0,13.646966666666543,5.0,43.01162633521314,7.0,9.055385138137416,11.04536101718726,12.0,10.0,31.016124838541646,22.0,19.5,20.0,19.0,9.5,11.5,1.5,3.5,7.071067811865476,6.082762530298219,6.0,20.0,20.0,21.0,{},{}
410,410,8,0,13.68033333333321,5.0,43.01162633521314,7.0,9.055385138137416,12.041594578792296,12.041594578792296,10.0,31.016124838541646,22.0,19.5,20.0,19.0,9.5,11.5,1.5,3.5,7.071067811865476,6.0,6.0,20.0,20.0,21.0,{},{}
411,411,8,0,13.713699999999877,6.0,43.01162633521314,6.0,9.0,10.0,11.0,10.0,31.0,22.0,19.0,20.0,19.0,9.5,11.5,2.5,3.5,7.071067811865476,7.0,7.0,20.0,19.0,21.0,{},{}
412,412,8,0,13.747066666666544,8.0,43.01162633521314,5.0,9.0,11.0,12.0,9.055385138137416,31.016124838541646,22.02271554554524,18.0,19.0,18.0,9.5,12.5,3.5,4.5,7.071067811865476,7.0,7.0,20.0,19.0,21.02379604162864,{},{}
413,413,8,0,13.780433333333209,9.0,42.0,5.0,8.0,11.0,12.0,9.0,31.0,23.0,18.5,19.0,19.0,10.0,12.0,3.0,5.0,7.071067811865476,6.082762530298219,6.0,20.0,20.0,22.02271554554524,{},{}
414,414,8,0,13.813799999999874,10.0,43.0,5.0,9.0,10.0,12.0,9.0,33.0,24.0,19.0,19.0,19.0,10.0,14.0,4.0,5.0,7.0,6.0,6.0,21.0,20.0,21.02379604162864,{},{}
415,415,8,0,13.84716666666654,11.0,41.01219330881976,5.0,9.0,10.0,12.0,10.0,35.0,26.0,20.5,20.0,21.0,10.5,14.5,5.5,5.5,7.071067811865476,6.082762530298219,6.0,21.0,20.0,20.024984394500787,{},{}
416,416,8,0,13.880533333333206,12.041594578792296,42.04759208325728,6.0,9.0,11.04536101718726,13.0,9.0,36.013886210738214,27.018512172212592,21.0,20.0,22.0,12.0,15.0,6.0,6.0,7.0,7.0,7.0,22.0,21.0,22.02271554554524,{},{}
417,417,8,0,13.913899999999872,12.0,42.0,6.0,8.0,10.0,12.0,10.0,36.0,28.0,22.0,22.0,22.0,12.0,14.0,5.0,6.0,8.0,7.071067811865476,7.0,23.0,21.0,23.021728866442675,{},{}
418,418,8,0,13.947266666666538,11.0,43.01162633521314,6.0,9.0,11.0,13.0,9.0,35.0,26.0,20.5,20.0,21.0,11.5,14.5,4.5,5.5,8.06225774829855,7.071067811865476,7.0,22.0,21.0,23.0,{},{}
419,419,8,0,13.980633333333204,10.0,44.01136216933077,6.0,8.0,12.041594578792296,13.0,10.04987562112089,34.0147027033899,26.019223662515376,21.0,20.0,21.0,10.5,13.5,4.5,4.5,8.06225774829855,7.071067811865476,7.0,22.0,21.0,23.0,{},{}
420,420,8,0,14.01399999999987,10.0,45.0111097397076,5.0,8.06225774829855,12.0,13.0,10.0,33.015148038438355,25.0,20.0,19.0,20.0,9.5,13.5,4.5,4.5,8.06225774829855,8.06225774829855,8.0,22.0,21.0,24.0,{},{}
421,421,8,0,14.047366666666536,10.0,44.01136216933077,6.0,8.0,11.0,12.041594578792296,9.0,33.0,25.0,20.0,19.0,20.0,10.5,13.5,4.5,4.5,8.06225774829855,8.06225774829855,7.5,22.0,21.0,23.021728866442675,{},{}
422,422,8,0,14.0807333333332,9.055385138137416,44.0,6.0,8.0,11.0,12.041594578792296,9.0,32.01562118716424,24.020824298928627,19.5,19.0,19.0,10.0,13.0,4.0,4.0,8.06225774829855,7.071067811865476,7.0,22.0,21.0,24.0,{},{}
423,423,8,0,14.114099999999867,7.071067811865476,43.01162633521314,6.0,9.0,11.0,12.0,9.0,31.016124838541646,22.02271554554524,18.5,18.0,19.0,9.5,12.5,3.5,3.5,8.06225774829855,7.0,7.0,21.0,22.0,23.021728866442675,{},{}
424,424,8,0,14.147466666666531,7.0,42.01190307520001,5.0,9.0,10.0,11.04536101718726,9.0,30.0,21.0,17.5,17.0,18.0,8.5,12.5,3.5,3.5,8.06225774829855,7.071067811865476,7.0,22.0,21.0,23.0,{},{}
425,425,8,0,14.1808333333332,7.0,43.01162633521314,6.0,9.055385138137416,10.0,11.04536101718726,8.0,30.01666203960727,21.0,17.5,17.0,18.0,9.5,12.5,3.5,3.5,7.071067811865476,7.0,7.0,21.0,21.0,22.02271554554524,{},{}
426,426,8,0,14.214199999999863,7.071067811865476,41.0,6.0,9.0,10.0,11.0,8.0,30.01666203960727,21.02379604162864,17.5,18.0,18.0,10.0,12.0,3.0,4.0,7.071067811865476,6.0,6.5,22.0,21.0,23.0,{},{}
427,427,8,0,14.24756666666653,7.071067811865476,41.0,6.0,9.0,9.0,11.04536101718726,8.06225774829855,30.0,21.0,17.5,18.0,18.0,10.0,12.0,2.0,4.0,7.0,7.0,7.0,22.0,21.0,22.0,{},{}
428,428,8,0,14.280933333333197,7.0,40.049968789001575,6.0,9.0,10.0,11.04536101718726,8.0,30.0,21.0,17.5,17.0,19.0,10.0,12.0,3.0,4.0,7.071067811865476,7.0,7.0,22.0,21.0,23.021728866442675,{},{}
429,429,8,0,14.314299999999864,8.0,41.04875150354759,5.0,9.055385138137416,11.04536101718726,11.04536101718726,8.0,30.01666203960727,21.0,17.0,17.0,19.0,10.0,12.0,3.0,4.0,7.071067811865476,6.0,6.0,22.0,20.0,22.02271554554524,{},{}
430,430,8,0,14.347666666666528,9.0,41.10960958218893,5.0,8.06225774829855,10.04987562112089,11.180339887498947,8.06225774829855,30.066592756745816,22.02271554554524,17.5,17.0,20.0,10.5,11.5,2.5,4.5,7.071067811865476,6.0,6.0,22.0,20.0,22.02271554554524,{},{}
431,431,8,0,14.381033333333194,9.0,41.10960958218893,6.082762530298219,9.0,11.04536101718726,12.041594578792296,8.0,32.01562118716424,23.021728866442675,18.5,17.0,20.0,10.5,13.5,3.5,4.5,7.071067811865476,7.0,7.0,23.0,20.0,22.02271554554524,{},{}
432,432,8,0,14.41439999999986,9.0,41.10960958218893,6.0,9.055385138137416,10.04987562112089,12.041594578792296,8.06225774829855,32.0624390837628,23.021728866442675,18.5,17.0,20.0,10.5,13.5,3.5,4.5,7.071067811865476,6.0,6.0,23.0,20.0,23.021728866442675,{},{}
433,433,8,0,14.447766666666526,8.0,40.11234224026316,6.082762530298219,8.0,9.055385138137416,11.180339887498947,9.055385138137416,31.064449134018133,23.08679276123039,19.0,18.0,21.0,10.5,11.5,2.5,4.5,7.280109889280518,7.0,7.0,24.0,19.0,22.02271554554524,{},{}
434,434,8,0,14.481133333333192,5.0,38.2099463490856,7.071067811865476,10.0,9.055385138137416,9.055385138137416,9.055385138137416,31.064449134018133,21.095023109728988,18.5,17.0,21.0,10.0,12.0,1.0,3.0,7.071067811865476,7.0,7.0,24.0,19.0,23.021728866442675,{},{}
435,435,8,0,14.514499999999858,2.0,37.12142238654117,8.0,10.04987562112089,10.04987562112089,10.04987562112089,10.198039027185567,30.14962686336267,20.09975124224178,19.0,18.0,21.0,9.5,10.5,0.5,1.5,6.082762530298219,7.0,7.0,24.0,19.0,22.02271554554524,{},{}
436,436,8,0,14.547866666666524,2.0,37.21558813185679,7.071067811865476,11.04536101718726,9.055385138137416,9.055385138137416,11.04536101718726,31.144823004794876,20.09975124224178,19.0,17.0,21.0,8.0,12.0,0.0,1.0,7.280109889280518,7.0,7.0,24.0,19.0,22.02271554554524,{},{}
437,437,8,0,14.58123333333319,2.0,37.12142238654117,7.071067811865476,11.04536101718726,9.055385138137416,9.055385138137416,12.041594578792296,32.14031735997639,21.095023109728988,20.0,19.0,22.0,8.5,11.5,0.5,1.5,7.280109889280518,7.0,7.0,23.0,18.0,22.09072203437452,{},{}
438,438,8,0,14.614599999999855,4.0,38.11823710509184,7.0,10.04987562112089,10.0,11.04536101718726,12.16552506059644,33.13608305156178,23.08679276123039,21.0,20.0,23.0,9.5,11.5,0.5,2.5,8.246211251235321,8.06225774829855,7.5,23.0,19.0,22.0,{},{}
439,439,8,0,14.64796666666652,6.082762530298219,40.19950248448356,7.071067811865476,11.04536101718726,9.055385138137416,10.198039027185567,11.04536101718726,35.05709628591621,24.020824298928627,21.0,19.0,23.0,10.0,14.0,2.0,3.0,7.071067811865476,7.0,7.0,23.0,19.0,23.0,{},{}
440,440,8,0,14.681333333333187,7.071067811865476,40.19950248448356,7.071067811865476,10.04987562112089,10.04987562112089,11.04536101718726,11.04536101718726,35.05709628591621,25.019992006393608,21.5,19.0,23.0,10.0,14.0,3.0,2.0,8.06225774829855,7.0,7.0,24.0,20.0,23.0,{},{}
441,441,8,0,14.714699999999851,4.0,40.19950248448356,7.0,9.055385138137416,10.04987562112089,11.180339887498947,13.152946437965904,33.13608305156178,24.08318915758459,22.0,19.0,23.0,8.0,12.0,1.0,1.0,7.071067811865476,7.0,7.0,22.0,20.0,22.0,{},{}
442,442,8,0,14.74806666666652,2.0,40.19950248448356,6.0,10.04987562112089,9.055385138137416,10.198039027185567,13.152946437965904,31.144823004794876,21.095023109728988,20.0,18.0,22.0,7.0,11.0,0.0,0.0,7.071067811865476,7.0,7.0,22.0,20.0,22.0,{},{}
443,443,8,0,14.781433333333185,2.23606797749979,41.19465984809196,6.0,10.0,10.04987562112089,10.04987562112089,13.038404810405298,31.064449134018133,21.095023109728988,20.0,18.0,22.0,7.0,11.0,0.0,0.0,7.071067811865476,7.0,6.5,21.0,19.0,21.02379604162864,{},{}
444,444,8,0,14.81479999999985,2.0,42.1070065428546,7.0,10.04987562112089,10.0,11.180339887498947,12.16552506059644,31.144823004794876,21.095023109728988,20.0,18.0,21.0,7.5,11.5,1.5,0.5,7.071067811865476,7.0,7.0,22.0,20.0,21.0,{},{}
445,445,8,0,14.848166666666517,6.0,41.19465984809196,5.0,9.055385138137416,9.0,11.04536101718726,12.041594578792296,32.0624390837628,23.021728866442675,20.0,18.0,22.0,8.0,12.0,2.0,3.0,7.071067811865476,6.0,6.0,21.0,20.0,23.0,{},{}
446,446,8,0,14.881533333333184,7.0,42.1070065428546,5.0,9.0,10.04987562112089,11.04536101718726,11.04536101718726,32.01562118716424,23.021728866442675,19.5,18.0,21.0,8.5,12.5,2.5,2.5,7.071067811865476,7.071067811865476,7.0,21.0,20.0,22.0,{},{}
447,447,8,0,14.914899999999848,7.0,42.1070065428546,5.0,9.055385138137416,10.04987562112089,11.04536101718726,10.04987562112089,31.064449134018133,22.02271554554524,18.5,17.0,20.0,8.5,12.5,2.5,2.5,7.071067811865476,7.071067811865476,6.5,21.0,20.0,22.0,{},{}
448,448,8,0,14.948266666666514,8.0,43.04648650006177,5.0,9.0,11.0,11.180339887498947,10.04987562112089,32.01562118716424,23.021728866442675,19.0,18.0,20.0,9.0,13.0,3.0,4.0,7.071067811865476,6.0,6.5,20.0,20.0,22.02271554554524,{},{}
449,449,8,0,14.98163333333318,8.0,43.10452412450461,5.0,9.0,10.0,12.041594578792296,10.04987562112089,32.01562118716424,23.021728866442675,19.0,17.0,20.0,8.5,13.5,3.5,3.5,6.082762530298219,7.071067811865476,7.0,21.0,20.0,23.0,{},{}
450,450,8,0,15.014999999999846,9.0,43.10452412450461,6.0,8.0,10.04987562112089,12.041594578792296,10.04987562112089,33.015148038438355,25.019992006393608,20.5,18.0,21.0,9.5,13.5,3.5,3.5,7.071067811865476,7.0,7.0,21.0,20.0,23.021728866442675,{},{}
451,451,8,0,15.048366666666512,10.0,43.10452412450461,5.0,8.0,11.0,12.041594578792296,10.04987562112089,33.015148038438355,25.019992006393608,20.0,18.0,21.0,9.5,13.5,4.5,4.5,6.0,6.0,6.0,20.0,20.0,23.0,{},{}
452,452,8,0,15.081733333333178,10.0,44.10215414239989,6.0,8.0,11.04536101718726,12.041594578792296,10.04987562112089,34.0147027033899,26.019223662515376,21.0,19.0,22.0,10.5,13.5,4.5,4.5,7.0,7.0,7.0,21.0,20.0,24.020824298928627,{},{}
453,453,8,0,15.115099999999844,10.0,43.10452412450461,5.0,8.06225774829855,11.0,12.041594578792296,10.0,33.015148038438355,25.0,20.0,18.0,21.0,9.5,13.5,4.5,4.5,7.071067811865476,7.0,7.0,20.0,19.0,23.0,{},{}
454,454,8,0,15.14846666666651,9.0,44.04543109109048,6.0,9.0,11.04536101718726,11.04536101718726,10.04987562112089,34.0147027033899,25.019992006393608,20.5,19.0,21.0,10.0,14.0,4.0,4.0,7.071067811865476,7.071067811865476,7.0,20.0,20.0,24.020824298928627,{},{}
455,455,8,0,15.181833333333175,9.0,44.10215414239989,6.0,8.0,11.0,12.0,9.0,32.0,24.0,19.5,18.0,21.0,10.5,12.5,3.5,4.5,7.0,7.0,7.0,21.0,20.0,23.0,{},{}
456,456,8,0,15.21519999999984,10.0,44.04543109109048,6.0,9.0,10.0,12.0,10.0,35.0,26.0,21.0,20.0,22.0,11.0,14.0,4.0,5.0,7.071067811865476,6.0,6.0,21.0,20.0,23.021728866442675,{},{}
457,457,8,0,15.248566666666507,11.0,42.04759208325728,7.0,9.0,10.0,11.04536101718726,9.0,36.0,27.0,21.5,20.0,22.0,12.0,15.0,5.0,5.0,8.06225774829855,6.082762530298219,6.0,20.0,21.0,23.0,{},{}
458,458,8,0,15.281933333333171,8.0,39.0,8.0,11.0,10.0,10.0,10.0,37.0,26.0,22.0,23.0,23.0,13.0,14.0,3.0,5.0,7.0,7.0,7.0,20.0,20.0,25.0,{},{}
459,459,8,0,15.31529999999984,8.0,38.01315561749642,8.06225774829855,10.0,9.0,11.0,10.0,36.013886210738214,26.019223662515376,22.0,24.0,25.0,14.5,11.5,0.5,5.5,7.0,7.0,7.0,20.0,20.0,23.021728866442675,{},{}
460,460,8,0,15.348666666666505,7.071067811865476,37.0,9.0,10.0,9.0,10.0,10.0,36.013886210738214,26.019223662515376,22.5,24.0,24.0,14.0,12.0,1.0,5.0,7.071067811865476,6.0,6.5,20.0,21.0,24.020824298928627,{},{}
461,461,8,0,15.38203333333317,6.0,36.0,9.0,10.0,8.0,10.04987562112089,10.0,35.0,25.0,22.0,24.0,24.0,14.0,11.0,1.0,5.0,7.0,7.0,7.0,19.0,20.0,23.021728866442675,{},{}
462,462,8,0,15.415399999999837,6.0,36.013886210738214,9.0,10.0,9.0,10.04987562112089,10.0,35.0,25.0,22.0,24.0,23.0,13.5,11.5,0.5,4.5,7.0,7.0,7.0,20.0,21.0,24.020824298928627,{},{}
463,463,8,0,15.448766666666502,5.0,36.0,9.0,10.04987562112089,9.0,10.0,10.0,34.0147027033899,24.0,21.5,24.0,24.0,14.0,10.0,0.0,5.0,7.071067811865476,6.0,6.0,19.0,21.0,23.021728866442675,{},{}
464,464,8,0,15.482133333333168,5.0,36.013886210738214,9.0,10.0,9.0,10.04987562112089,10.04987562112089,34.0147027033899,24.020824298928627,21.5,25.0,24.0,14.5,9.5,0.5,5.5,7.0,6.0,6.0,19.0,21.0,23.08679276123039,{},{}
465,465,8,0,15.515499999999834,5.0,36.05551275463989,8.06225774829855,10.0,9.0,10.04987562112089,11.0,34.0147027033899,24.020824298928627,21.5,25.0,23.0,13.0,10.0,0.0,5.0,7.0,6.0,6.0,18.0,21.0,22.02271554554524,{},{}
466,466,8,0,15.5488666666665,4.0,35.12833614050059,9.055385138137416,10.04987562112089,9.055385138137416,9.055385138137416,10.0,33.06055050963308,23.021728866442675,21.0,25.0,22.0,13.5,9.5,0.5,5.5,6.0,7.071067811865476,6.5,18.0,21.0,22.09072203437452,{},{}
467,467,8,0,15.582233333333166,4.123105625617661,36.12478373637688,9.0,10.0,9.0,10.04987562112089,10.0,33.015148038438355,23.021728866442675,21.0,25.0,22.0,13.5,9.5,0.5,4.5,7.071067811865476,6.082762530298219,6.0,17.0,22.0,24.020824298928627,{},{}
468,468,8,0,15.615599999999832,5.0,37.05401462729781,8.0,10.04987562112089,9.055385138137416,10.04987562112089,10.04987562112089,33.06055050963308,23.021728866442675,20.5,24.0,22.0,13.0,10.0,0.0,5.0,7.0,6.0,6.5,18.0,22.0,23.08679276123039,{},{}
469,469,8,0,15.648966666666498,5.0990195135927845,38.05259518088089,8.0,10.04987562112089,9.0,11.04536101718726,10.0,33.06055050963308,23.021728866442675,20.5,23.0,21.0,12.0,11.0,1.0,4.0,7.0,6.0,6.5,18.0,22.0,24.08318915758459,{},{}
470,470,8,0,15.682333333333164,7.071067811865476,39.11521443121589,7.0,10.0,10.04987562112089,10.04987562112089,10.04987562112089,34.058772731852805,24.08318915758459,20.5,24.0,21.0,12.5,11.5,1.5,5.5,7.0,7.071067811865476,7.0,19.0,22.0,22.02271554554524,{},{}
471,471,8,0,15.71569999999983,8.06225774829855,39.05124837953327,8.0,10.04987562112089,10.04987562112089,11.04536101718726,8.0,34.058772731852805,24.020824298928627,20.0,23.0,21.0,14.0,12.0,2.0,6.0,7.0,6.0,6.0,19.0,22.0,23.08679276123039,{},{}
472,472,8,0,15.749066666666495,9.055385138137416,41.01219330881976,7.0,9.0,11.0,12.0,10.04987562112089,35.05709628591621,26.0768096208106,21.5,23.0,22.0,12.5,12.5,3.5,5.5,7.0,7.071067811865476,6.5,19.0,22.0,22.02271554554524,{},{}
473,473,8,0,15.78243333333316,9.0,42.0,7.0,10.0,11.0,12.0,10.04987562112089,36.013886210738214,26.019223662515376,21.5,23.0,23.0,13.0,13.0,3.0,6.0,7.0,7.0,7.0,20.0,21.0,22.02271554554524,{},{}
474,474,8,0,15.815799999999829,9.0,41.01219330881976,7.0,10.0,10.04987562112089,11.0,10.0,36.0,26.0,21.5,22.0,23.0,12.5,13.5,2.5,5.5,6.0,7.0,7.0,20.0,21.0,22.0,{},{}
475,475,8,0,15.849166666666491,8.06225774829855,41.01219330881976,8.0,10.04987562112089,10.0,11.0,10.0,36.0,26.019223662515376,22.0,22.0,23.0,12.5,13.5,2.5,4.5,7.071067811865476,7.071067811865476,7.0,21.0,21.0,22.0,{},{}
476,476,8,0,15.88253333333316,6.0,39.01281840626232,8.0,10.0,10.0,11.0,10.0,34.0,24.0,21.0,21.0,22.0,11.5,12.5,1.5,3.5,7.071067811865476,7.071067811865476,7.0,21.0,21.0,22.0,{},{}
477,477,8,0,15.915899999999825,6.0,39.05124837953327,7.0,10.04987562112089,10.0,11.0,11.0,34.0147027033899,24.0,21.0,21.0,23.0,11.0,12.0,1.0,3.0,7.071067811865476,7.0,7.0,21.0,21.0,21.0,{},{}
478,478,8,0,15.94926666666649,5.0,38.01315561749642,8.0,10.0,10.0,11.0,11.0,34.0,24.0,21.5,22.0,23.0,11.5,11.5,0.5,3.5,6.082762530298219,7.071067811865476,7.0,22.0,21.0,21.0,{},{}
479,479,8,0,15.982633333333157,5.0,37.01351104664349,7.0,10.0,10.0,11.04536101718726,12.041594578792296,34.0147027033899,24.020824298928627,21.5,22.0,23.0,10.5,11.5,0.5,3.5,7.0,6.0,6.5,22.0,20.0,23.021728866442675,{},{}
480,480,8,0,16.015999999999824,4.0,36.12478373637688,8.06225774829855,10.0,9.055385138137416,10.04987562112089,12.0,34.0147027033899,24.020824298928627,22.0,21.0,24.0,10.5,11.5,0.5,2.5,7.071067811865476,7.0,7.0,22.0,20.0,23.0,{},{}
481,481,8,0,16.04936666666649,5.0990195135927845,37.05401462729781,7.0,10.0,9.0,11.04536101718726,12.041594578792296,34.058772731852805,24.08318915758459,21.5,21.0,23.0,10.0,12.0,1.0,3.0,7.071067811865476,7.0,6.5,22.0,19.0,24.020824298928627,{},{}
482,482,8,0,16.082733333333156,4.0,37.05401462729781,7.0,10.0,10.0,11.04536101718726,12.041594578792296,33.015148038438355,23.021728866442675,21.0,20.0,22.0,9.0,12.0,1.0,2.0,6.0,7.0,7.0,22.0,19.0,23.021728866442675,{},{}
483,483,8,0,16.116099999999822,4.0,36.013886210738214,7.0,10.0,9.0,10.0,12.041594578792296,33.015148038438355,23.021728866442675,21.0,22.0,23.0,10.5,10.5,0.5,3.5,7.071067811865476,7.071067811865476,7.0,22.0,19.0,21.02379604162864,{},{}
484,484,8,0,16.149466666666488,4.123105625617661,38.05259518088089,6.0,10.0,10.04987562112089,11.0,12.0,32.01562118716424,22.02271554554524,20.0,20.0,22.0,9.0,11.0,1.0,2.0,7.071067811865476,7.0,7.0,22.0,20.0,22.02271554554524,{},{}
485,485,8,0,16.182833333333154,4.0,40.049968789001575,7.0,9.055385138137416,9.055385138137416,11.0,11.0,31.016124838541646,22.0,20.0,19.0,21.0,9.0,11.0,1.0,2.0,7.071067811865476,7.071067811865476,7.0,23.0,20.0,22.02271554554524,{},{}
486,486,8,0,16.21619999999982,2.0,38.05259518088089,7.0,10.04987562112089,10.04987562112089,11.0,12.0,31.016124838541646,21.0,20.0,20.0,22.0,9.0,10.0,0.0,2.0,7.071067811865476,7.0,6.5,21.0,20.0,22.02271554554524,{},{}
487,487,8,0,16.249566666666485,2.0,39.01281840626232,7.0,11.04536101718726,9.0,11.0,11.0,31.016124838541646,20.0,19.0,19.0,20.0,8.5,11.5,0.5,1.5,6.082762530298219,6.0,6.0,21.0,20.0,21.0,{},{}
488,488,8,0,16.28293333333315,3.0,39.0,6.0,10.0,10.0,12.0,11.04536101718726,30.01666203960727,20.024984394500787,18.5,19.0,19.0,8.0,11.0,1.0,2.0,4.0,5.0,4.5,21.0,21.0,21.0,{},{}
489,489,8,0,16.316299999999817,3.0,40.01249804748511,6.082762530298219,11.0,10.04987562112089,12.0,11.0,31.016124838541646,20.024984394500787,18.5,19.0,20.0,8.5,11.5,0.5,1.5,3.1622776601683795,3.0,3.5,21.0,20.0,21.0,{},{}
490,490,8,0,16.349666666666483,3.0,40.0,7.071067811865476,11.0,10.0,11.04536101718726,10.04987562112089,31.0,20.0,18.5,19.0,19.0,9.0,12.0,1.0,2.0,3.1622776601683795,3.0,3.0,22.0,21.0,22.0,{},{}
491,491,8,0,16.38303333333315,3.0,40.01249804748511,6.0,9.0,10.0,11.0,12.041594578792296,30.01666203960727,21.02379604162864,19.5,20.0,21.0,8.5,9.5,0.5,2.5,4.123105625617661,4.0,4.0,21.0,21.0,21.02379604162864,{},{}
492,492,8,0,16.416399999999815,3.0,40.0,7.0,9.0,9.055385138137416,10.0,11.0,30.0,21.0,19.5,20.0,20.0,9.0,10.0,0.0,1.0,5.0990195135927845,4.0,4.0,20.0,20.0,22.0,{},{}
493,493,8,0,16.44976666666648,2.0,40.01249804748511,8.0,10.04987562112089,10.0,11.0,11.0,31.016124838541646,21.0,20.0,20.0,21.0,9.5,10.5,0.5,1.5,6.0,5.0,5.0,20.0,20.0,22.0,{},{}
494,494,8,0,16.483133333333146,3.0,40.0,7.0,10.0,10.0,11.0,11.04536101718726,31.016124838541646,21.02379604162864,19.5,21.0,21.0,10.0,10.0,0.0,3.0,6.0,5.0,5.0,19.0,20.0,22.0,{},{}
495,495,8,0,16.516499999999812,3.0,40.01249804748511,7.0,9.055385138137416,9.055385138137416,10.0,11.0,30.01666203960727,21.0,19.5,22.0,21.0,10.5,8.5,0.5,4.5,6.0,6.082762530298219,6.0,19.0,20.0,22.0,{},{}
496,496,8,0,16.549866666666478,4.0,41.01219330881976,6.0,8.06225774829855,9.0,10.04987562112089,10.0,28.0178514522438,20.0,18.0,20.0,19.0,9.5,8.5,0.5,3.5,6.0,6.0,6.0,19.0,20.0,22.02271554554524,{},{}
497,497,8,0,16.583233333333144,2.0,42.04759208325728,7.0,9.055385138137416,10.0,11.04536101718726,10.0,28.0178514522438,19.0,18.0,21.0,19.0,10.0,8.0,1.0,3.0,7.0,6.082762530298219,5.5,18.0,21.0,22.02271554554524,{},{}
498,498,8,0,16.61659999999981,2.0,40.11234224026316,7.0,8.06225774829855,10.04987562112089,11.180339887498947,11.04536101718726,28.0713376952364,20.024984394500787,19.0,22.0,19.0,9.5,7.5,0.5,3.5,7.0,6.0,6.0,19.0,22.0,22.02271554554524,{},{}
499,499,8,0,16.649966666666476,2.0,41.04875150354759,7.071067811865476,9.055385138137416,10.04987562112089,11.04536101718726,12.041594578792296,30.14962686336267,21.095023109728988,20.0,21.0,19.0,8.0,10.0,1.0,2.0,7.0,6.082762530298219,6.0,19.0,22.0,23.08679276123039,{},{}
500,500,8,0,16.68333333333314,4.0,42.01190307520001,6.082762530298219,10.04987562112089,10.0,11.04536101718726,11.0,31.064449134018133,21.02379604162864,19.0,20.0,19.0,8.5,11.5,1.5,2.5,6.0,6.082762530298219,6.0,19.0,23.0,23.08679276123039,{},{}
501,501,8,0,16.716699999999808,7.0,43.04648650006177,7.071067811865476,9.0,11.04536101718726,12.0,11.0,34.0147027033899,25.019992006393608,21.5,21.0,19.0,9.0,14.0,5.0,3.0,6.082762530298219,6.082762530298219,6.0,18.0,21.0,22.02271554554524,{},{}
502,502,8,0,16.750066666666473,4.123105625617661,43.01162633521314,7.0,9.0,10.04987562112089,12.0,11.0,31.016124838541646,22.02271554554524,20.0,20.0,19.0,8.5,11.5,2.5,2.5,7.0,6.0,6.0,19.0,21.0,22.02271554554524,{},{}
503,503,8,0,16.78343333333314,1.0,42.01190307520001,7.0,10.0,10.0,11.04536101718726,12.041594578792296,30.01666203960727,20.024984394500787,19.5,20.0,19.0,7.5,10.5,0.5,0.5,6.0,6.082762530298219,6.5,19.0,21.0,23.0,{},{}
504,504,8,0,16.816799999999805,1.0,43.0,7.0,10.0,10.0,12.041594578792296,12.0,30.0,20.0,19.5,19.0,19.0,7.0,11.0,1.0,0.0,7.071067811865476,6.082762530298219,6.5,19.0,21.0,23.08679276123039,{},{}
505,505,8,0,16.85016666666647,1.0,43.04648650006177,7.0,10.0,11.04536101718726,12.041594578792296,12.041594578792296,30.01666203960727,20.024984394500787,19.5,20.0,18.0,7.0,11.0,1.0,1.0,6.0,6.0,6.0,19.0,21.0,22.0,{},{}
506,506,8,0,16.883533333333137,3.0,43.01162633521314,7.0,9.0,11.0,12.0,12.0,31.0,22.0,20.5,21.0,20.0,8.5,10.5,0.5,1.5,6.0,7.071067811865476,6.5,20.0,21.0,22.02271554554524,{},{}
507,507,8,0,16.916899999999803,3.0,44.01136216933077,7.0,9.0,11.0,12.0,12.0,31.0,22.0,20.5,20.0,19.0,7.5,11.5,1.5,0.5,7.071067811865476,6.0,6.0,20.0,21.0,22.02271554554524,{},{}
508,508,8,0,16.95026666666647,3.0,44.01136216933077,7.0,9.0,11.0,12.041594578792296,12.0,31.0,22.0,20.5,20.0,19.0,7.5,11.5,1.5,1.5,7.071067811865476,6.0,6.0,20.0,21.0,21.02379604162864,{},{}
509,509,8,0,16.983633333333135,3.0,45.0111097397076,7.0,10.0,12.0,12.0,11.0,31.0,21.0,19.5,20.0,19.0,8.5,11.5,0.5,1.5,6.082762530298219,6.082762530298219,6.0,19.0,21.0,21.0,{},{}
510,510,8,0,17.0169999999998,3.0,44.0,7.0,10.0,11.0,12.0,11.0,31.0,21.0,19.5,20.0,20.0,9.0,11.0,1.0,2.0,6.0,6.082762530298219,6.5,20.0,21.0,22.0,{},{}
511,511,8,0,17.050366666666466,4.0,44.0,7.0,10.0,11.0,12.0,11.0,32.0,22.0,20.0,20.0,20.0,9.0,12.0,2.0,2.0,6.082762530298219,6.0,6.0,20.0,21.0,22.0,{},{}
512,512,8,0,17.083733333333132,7.071067811865476,46.0,6.0,10.0,12.0,13.0,12.0,35.0142828000232,25.019992006393608,21.5,20.0,20.0,8.0,15.0,4.0,2.0,4.0,3.1622776601683795,3.0,20.0,21.0,22.0,{},{}
513,513,8,0,17.117099999999798,11.0,48.010415536631214,6.0,9.0,12.0,13.0,11.0,37.0,28.0,22.5,21.0,20.0,9.5,16.5,7.5,3.5,3.0,3.0,3.5,20.0,21.0,23.0,{},{}
514,514,8,0,17.150466666666464,14.0,49.0,6.0,8.0,13.0,14.0,10.0,38.0,30.0,23.0,20.0,20.0,10.0,18.0,9.0,4.0,3.0,2.0,3.0,20.0,21.0,23.021728866442675,{},{}
515,515,8,0,17.18383333333313,14.0,49.0,5.0,9.0,13.0,14.0,11.0,39.0,30.0,23.0,20.0,20.0,9.0,19.0,9.0,4.0,4.0,4.0,4.0,21.0,20.0,23.0,{},{}
516,516,8,0,17.217199999999796,14.0,50.00999900019995,6.0,9.0,12.0,13.0,10.0,39.0,30.0,23.0,19.0,20.0,9.5,19.5,9.5,4.5,4.123105625617661,4.0,4.0,20.0,20.0,24.0,{},{}
517,517,8,0,17.25056666666646,14.0,50.00999900019995,6.0,9.0,12.041594578792296,14.0356688476182,10.0,39.0,30.0,23.0,19.0,20.0,9.5,19.5,9.5,3.5,5.0990195135927845,5.0990195135927845,5.0,20.0,20.0,24.020824298928627,{},{}
518,518,8,0,17.283933333333128,16.0,50.039984012787215,5.0,8.0,13.038404810405298,15.033296378372908,10.0,39.0,31.0,23.0,19.0,21.0,10.0,19.0,10.0,4.0,5.0990195135927845,5.0990195135927845,5.0,20.0,20.0,24.020824298928627,{},{}
519,519,8,0,17.317299999999793,16.0,50.039984012787215,5.0,9.0,12.041594578792296,13.0,10.0,40.0,31.0,23.0,19.0,21.0,10.0,20.0,11.0,4.0,6.082762530298219,6.0,6.0,21.0,20.0,24.0,{},{}
520,520,8,0,17.35066666666646,16.0,50.08991914547278,5.0,8.0,13.0,15.033296378372908,11.0,40.0,32.0,24.0,19.0,22.0,9.5,19.5,10.5,4.5,6.0,6.0,6.0,21.0,19.0,24.0,{},{}
521,521,8,0,17.384033333333125,14.0,51.0881590977792,6.0,9.0,12.0,13.038404810405298,9.0,38.0,29.0,22.0,18.0,21.0,10.5,18.5,8.5,4.5,6.082762530298219,6.0,6.0,20.0,18.0,24.020824298928627,{},{}
522,522,8,0,17.41739999999979,14.0,50.08991914547278,5.0990195135927845,8.0,13.038404810405298,14.0356688476182,10.0,37.01351104664349,29.017236257093817,22.0,18.0,21.0,9.5,17.5,8.5,3.5,6.082762530298219,5.0,5.5,21.0,18.0,24.020824298928627,{},{}
523,523,8,0,17.450766666666457,12.0,49.16299421312742,6.0,8.0,12.0,13.038404810405298,10.0,36.0,28.0,22.0,17.0,21.0,9.0,17.0,7.0,3.0,6.082762530298219,6.0,6.0,22.0,18.0,24.020824298928627,{},{}
524,524,8,0,17.484133333333123,10.0,50.24937810560445,6.0,8.06225774829855,12.041594578792296,13.038404810405298,10.0,34.0147027033899,26.0,21.0,16.0,21.0,8.5,15.5,6.5,2.5,7.071067811865476,6.0,6.0,22.0,18.0,24.020824298928627,{},{}
525,525,8,0,17.51749999999979,8.0,47.16990566028302,6.082762530298219,9.0,11.0,13.038404810405298,9.0,32.01562118716424,23.021728866442675,19.0,15.0,19.0,8.0,15.0,5.0,2.0,7.071067811865476,6.0,6.0,23.0,19.0,23.08679276123039,{},{}
526,526,8,0,17.550866666666455,7.0,46.17358552246078,6.0,9.0,12.0,13.038404810405298,9.0,31.0,22.0,18.5,15.0,19.0,8.0,14.0,4.0,2.0,6.082762530298219,6.0,6.0,21.0,18.0,23.021728866442675,{},{}
527,527,8,0,17.58423333333312,7.0,45.09988913511872,5.0,9.0,10.04987562112089,11.0,11.0,32.0,23.0,19.5,16.0,19.0,6.5,14.5,4.5,1.5,6.082762530298219,6.0,6.0,22.0,20.0,23.021728866442675,{},{}
528,528,8,0,17.617599999999786,5.0,44.01136216933077,6.0,9.0,11.0,12.041594578792296,10.0,30.0,21.0,18.5,17.0,18.0,7.5,12.5,2.5,1.5,6.082762530298219,7.0,7.0,22.0,20.0,23.0,{},{}
529,529,8,0,17.650966666666452,4.0,42.0,7.0,9.0,10.0,11.0,10.0,30.0,21.0,19.0,18.0,18.0,8.0,12.0,2.0,1.0,7.071067811865476,7.0,7.0,22.0,20.0,22.0,{},{}
530,530,8,0,17.684333333333118,3.0,42.01190307520001,7.0,10.0,10.0,12.0,10.0,30.0,20.0,18.5,18.0,19.0,8.5,11.5,1.5,1.5,7.071067811865476,7.071067811865476,7.0,21.0,19.0,22.0,{},{}
531,531,8,0,17.717699999999784,4.0,42.01190307520001,7.0,10.0,10.0,11.0,10.0,31.0,21.0,19.0,18.0,19.0,8.5,12.5,2.5,1.5,7.071067811865476,6.0,6.0,21.0,20.0,21.0,{},{}
532,532,8,0,17.75106666666645,4.0,43.01162633521314,7.071067811865476,10.0,11.0,12.0,11.0,32.01562118716424,22.02271554554524,20.0,19.0,20.0,8.5,12.5,2.5,1.5,6.082762530298219,6.082762530298219,6.0,22.0,19.0,23.0,{},{}
533,533,8,0,17.784433333333116,7.0,44.04543109109048,6.082762530298219,11.0,11.04536101718726,12.0,11.0,35.0142828000232,24.020824298928627,20.5,19.0,21.0,9.0,15.0,4.0,2.0,6.082762530298219,6.0,5.5,21.0,19.0,23.021728866442675,{},{}
534,534,8,0,17.81779999999978,10.04987562112089,43.10452412450461,6.0,9.0,11.0,12.0,10.0,35.0142828000232,26.019223662515376,21.0,18.0,21.0,9.5,15.5,5.5,3.5,7.071067811865476,7.0,6.5,22.0,18.0,22.02271554554524,{},{}
535,535,8,0,17.851166666666447,8.0,43.10452412450461,7.0,10.04987562112089,11.0,12.0,9.055385138137416,34.058772731852805,24.020824298928627,20.0,17.0,20.0,9.5,15.5,4.5,2.5,7.071067811865476,7.0,6.5,23.0,18.0,22.09072203437452,{},{}
536,536,8,0,17.884533333333113,6.0,42.190046219457976,7.071067811865476,10.04987562112089,11.04536101718726,12.041594578792296,10.0,33.06055050963308,23.021728866442675,20.0,17.0,21.0,9.0,14.0,3.0,2.0,6.082762530298219,6.0,6.0,23.0,17.0,22.20360331117452,{},{}
537,537,8,0,17.91789999999978,4.0,42.2965719651132,6.0,10.04987562112089,11.04536101718726,12.041594578792296,10.198039027185567,30.14962686336267,20.09975124224178,18.0,15.0,20.0,7.5,12.5,1.5,1.5,6.082762530298219,6.0,6.0,24.0,17.0,22.20360331117452,{},{}
538,538,8,0,17.951266666666445,4.0,39.45883931389772,7.071067811865476,10.04987562112089,11.180339887498947,12.041594578792296,9.219544457292889,30.265491900843116,20.223748416156685,18.0,15.0,21.0,9.0,12.0,1.0,1.0,7.280109889280518,6.0,5.5,24.0,16.0,23.194827009486403,{},{}
539,539,8,0,17.98463333333311,3.0,40.311288741492746,7.071067811865476,10.04987562112089,11.04536101718726,12.041594578792296,10.198039027185567,30.265491900843116,20.223748416156685,18.5,15.0,20.0,7.5,12.5,1.5,0.5,5.385164807134504,6.082762530298219,6.0,24.0,16.0,23.194827009486403,{},{}
540,540,8,0,18.017999999999777,5.0990195135927845,41.43669871020132,7.0,9.055385138137416,11.180339887498947,11.04536101718726,10.198039027185567,31.25699921617557,22.20360331117452,19.5,16.0,22.0,9.0,12.0,2.0,1.0,3.605551275463989,3.1622776601683795,3.0,25.0,16.0,23.194827009486403,{},{}
541,541,8,0,18.051366666666443,8.06225774829855,42.42640687119285,6.0,9.055385138137416,12.16552506059644,12.16552506059644,10.44030650891055,33.37663853655727,24.33105012119288,20.0,16.0,22.0,9.0,14.0,4.0,2.0,3.1622776601683795,3.1622776601683795,3.0,25.0,15.0,22.20360331117452,{},{}
542,542,8,0,18.08473333333311,9.055385138137416,44.553338819890925,6.0,8.06225774829855,12.041594578792296,13.038404810405298,10.198039027185567,33.24154027718932,25.179356624028344,20.5,15.0,22.0,8.5,14.5,4.5,2.5,4.47213595499958,3.1622776601683795,3.0,26.0,16.0,22.360679774997894,{},{}
543,543,8,0,18.11809999999977,9.055385138137416,42.579337712087536,6.082762530298219,8.06225774829855,10.198039027185567,12.16552506059644,9.055385138137416,32.2490309931942,24.186773244895647,19.5,15.0,22.0,9.5,13.5,3.5,2.5,3.1622776601683795,4.123105625617661,3.5,25.0,17.0,22.360679774997894,{},{}
544,544,8,0,18.15146666666644,6.082762530298219,42.579337712087536,5.0990195135927845,8.06225774829855,12.041594578792296,12.16552506059644,10.04987562112089,29.27456233660889,21.213203435596427,18.0,15.0,22.0,8.5,10.5,1.5,2.5,4.123105625617661,3.1622776601683795,3.0,24.0,15.0,23.194827009486403,{},{}
545,545,8,0,18.184833333333103,5.0,42.42640687119285,6.082762530298219,8.06225774829855,11.04536101718726,12.041594578792296,9.219544457292889,28.284271247461906,20.223748416156685,17.5,15.0,21.0,9.0,10.0,1.0,2.0,4.123105625617661,5.0990195135927845,4.5,24.0,16.0,22.20360331117452,{},{}
