,frame_seq,video_id,gap,time_seconds,m1,m3,m4,m5,m6,m7,m8,m9,m10,m11,m12,m13,m14,m15,m16,m17,e1,e2,e3,b1,b2,b3,m_0_16,m_1_15,m_2_14,m_3_13,label_measures
0,204,19,1,6.806800000000008,27.15617604774105,165.18457012938046,15.977292874845164,26.628821458075425,48.22684681551412,47.93187862453573,37.65884045602214,107.0465374362774,80.59343801683808,66.78457880666747,56.60865391923608,56.31652210428592,19.037256607587096,50.32781989780688,17.738892985586062,7.579197643429779,15.977292874845164,16.84154544269686,16.051020276985582,55.66734029328518,60.95817205293861,48.22684681551409,400.00000000000006,399.5743170131458,394.1065575795156,362.1911297443938,{}
1,205,19,0,6.840166666666675,22.157949572148567,151.33580896738314,16.122276447014166,26.87046074502316,43.3273160683826,48.36682934104129,39.12398139987261,103.37272646891611,76.94528976700593,65.25713779019134,71.01692272190803,65.22650063629908,29.855906467860223,34.849762552274115,1.2101675787380373,12.30081728768164,21.496368596017984,22.157949572148567,21.62983064782929,49.50964068964777,52.358896001614085,53.74092149004587,400.0,393.6316150608984,377.1448888000664,355.7064461213408,{}
2,206,19,0,6.8735333333333415,15.722922769930037,152.34927118035236,16.573415809300787,26.723830004861657,37.05928436896634,47.1687683097901,31.879601830567648,90.47324314581536,63.7592036611353,55.362204889222085,60.47818421891952,55.30130037339222,26.28029858052741,31.7008004893728,4.598290945144527,15.07386766785794,15.722922769930037,20.96389702657353,20.951153445426822,45.37386429314665,43.8512513974033,57.65071682307688,400.0,389.1048381956927,373.0307377823872,352.1217113028043,{}
3,207,19,0,6.906900000000008,11.08441578852994,161.10579676115952,16.626623682794687,33.71193451435723,44.337663154119205,50.18682699819416,35.052000424085364,95.67334198348618,61.96376798506145,55.76579095151055,64.02738961099294,58.39448143407253,27.601250066908506,33.51580365267591,0.6571726206402673,10.233116521404554,22.16883157705943,22.168831577059887,22.15610549588655,47.691955897924345,46.471492459591445,55.69850000375644,400.0000000000001,394.47129455375466,377.8875516972991,361.3077503442478,{}
4,208,19,0,6.940266666666675,11.386818846191124,154.1432115263057,17.08022826928782,29.03080574723829,45.90173423558949,45.547275384765854,36.008282857695114,92.68199057871892,63.65425246889943,57.3395970333072,65.56770064346802,60.26443073848168,28.332317704518573,28.782292120698912,0.787455228316503,16.054444348731522,17.080228269286913,17.080228269287367,19.91136791599456,49.33648063123701,41.46192834807516,51.55601507523249,399.99999999999983,388.6559977704155,371.64490467404266,355.23407490564307,{}
5,209,19,0,6.973633333333342,11.91907600944704,161.01785012138754,18.845713897262385,29.797690023617825,41.71676603306497,42.14029735878997,30.387800578082945,90.18417460736411,60.775601156166765,53.88609004873842,58.00078843364509,55.597804576859744,26.877209850210875,32.835293111555984,3.439887849781826,8.476278672907483,23.83815201889408,24.571804673357928,20.919126588865765,49.903062012148894,51.38435343071524,53.63584204251213,400.0,394.05121443848384,376.63148615005673,364.75099073014695,{}
6,210,19,0,7.0070000000000086,6.043289018351363,157.24168862570312,19.11055785667291,30.21644509175591,42.303023128458406,48.34631214680966,30.814848630853632,85.46501291092653,55.71637177295884,51.68876615613499,58.36103672960781,56.75696145107486,27.183956581949133,27.354602888175577,3.5323785388973192,8.378733635742265,19.110557856672944,18.12986705505364,18.12263772129881,57.26890036975556,51.63757226426696,48.34631214680966,400.0,393.9742430376997,375.9003495800797,357.8321193109852,{}
7,211,19,0,7.040366666666675,0.0,149.86279623719506,18.668141738611663,31.11356956435262,44.00123205174626,43.55899739009404,39.35589838457873,88.00246410349241,57.37058756472473,56.4479717373838,65.9659682026413,59.36589766103907,24.871844777826027,24.87184477782557,6.947442675370439,11.706440907998967,18.668141738611663,18.668141738611663,18.653883583369407,47.41629625940232,45.85312165744426,50.16912345948575,400.00000000000017,380.8585603365205,369.03369278227,350.46642962803804,{}
8,212,19,0,7.073733333333342,6.4307351936251305,154.4715601989983,20.33577024125789,32.15367596812385,45.015146355373645,45.015146355373645,32.79044423904103,90.94432926854172,59.28844901070208,55.27576916485032,60.39550288655573,62.30455613871664,28.896124225895164,29.243224817196733,4.251982243450129,8.243639043424082,12.861470387249351,12.861470387249806,16.05340234771984,50.50313603444784,45.81727805186984,45.47216463427084,400.00000000000006,393.1173172511873,373.8685869943788,355.1489590975884,{}
9,213,19,0,7.107100000000009,6.643638388299176,159.58567043095232,19.93091516489755,33.876041783192186,46.97761756117606,46.97761756117629,35.77708763999629,95.12242565278169,61.25131947910173,56.994789109938665,63.48786635031138,63.77644756099471,29.868155305714936,30.15673651639827,4.184427554906961,15.4390947715533,19.93091516489753,13.28727677659836,16.59341961428572,50.790293080249285,48.48164339478353,46.97761756117629,400.0,393.3796972479599,374.17311132867286,360.29107007031695,{}
10,214,19,0,7.140466666666676,6.871067372240717,158.18385006679222,20.61320211672304,35.03570661026738,41.22640423344588,48.09747160568658,30.728347444622976,91.6714726424178,56.66027307296893,52.08676015821129,58.76261573243528,58.83804912875394,30.739108999958265,31.342576170509343,4.186553495699627,9.240591049067008,21.72822285274995,13.742134744482334,13.72887813004263,52.57707723428439,50.38950874103557,48.58578332901209,400.0000000000002,393.8146734814197,373.3209681943902,360.5182984172316,{}
11,215,19,0,7.173833333333342,13.981399634374888,146.9710471448009,15.631680001526584,27.962799268750214,41.94419890312509,41.94419890312511,35.645714781508715,91.94830025936552,64.45106775214944,56.43705653234792,60.36621869599276,59.21525200159204,24.58702990280608,31.57220708261775,2.5202201756706017,9.505397355484092,20.97209945156256,15.631680001526677,14.109264133087436,52.785713915628094,44.72894705482168,41.94419890312509,400.0,393.7197884774515,379.8208753784389,365.92824703653366,{}
12,216,19,0,7.207200000000009,7.102208242283978,149.31537753096015,21.306624726853308,36.214298417007605,35.5110412114217,42.61324945370614,29.28315475807084,93.41496460204618,57.25983343138679,53.50450518034495,61.35874327313786,60.12279717731735,32.074794647978706,32.074794647978706,4.246072877575898,9.947372609907688,21.30662472685284,21.30662472685284,21.42971053236579,53.58424363813947,45.76987477424427,42.613249453706366,400.0,385.1597660675707,372.6460376240069,351.5413726662779,{}
13,217,19,0,7.240566666666676,16.16640031618905,138.12578484982066,21.68950203508328,28.919336046777705,43.37900407016701,43.97736342661087,22.862742581907103,87.95472685322163,59.61873857179898,50.95614916987688,62.76050029661701,53.09857588683008,36.00117051820689,29.27983179835428,7.603514426832589,13.568702540701452,21.68950203508373,16.16640031618905,18.18962291059961,46.629287368972655,40.07598211711684,43.9773634266112,400.0,384.8825749979847,372.1784848256746,356.9078425895507,{}
14,218,19,0,7.273933333333343,14.774337103062312,140.35620247909242,14.774337103062312,29.54867420612462,44.32301130918714,44.32301130918696,33.036422084944746,89.86878414050224,60.916152424408,52.27119942847048,56.63072968633651,62.371497253624966,29.372874658195546,29.67502031963068,0.7553641535914721,13.704463929429949,16.518211042472117,14.77433710306186,14.761973744456554,47.91166917060491,40.05588197326233,44.323011309187166,400.00000000000006,378.5518467556701,371.20062567572063,356.5026419216764,{}
15,219,19,0,7.3073000000000095,0.0,120.92205800629594,22.497803056188083,23.714766669149057,30.920272781668366,37.496338426979385,33.53774465202568,78.29465322790092,54.5954928388131,53.340820815921234,71.51044347827747,64.1560724006572,36.9448994134591,8.435896236094777,15.444179263003209,21.02484908072711,14.998535370791744,14.998535370791304,14.968308193275334,51.091248486295626,46.67862583972328,44.99560611237549,400.00000000000006,378.6201940178338,372.3293891025194,356.353332684416,{}
16,298,19,1,9.943266666666633,22.881327990056025,176.9989194518647,8.774588733353156,17.549177466706297,41.98986818703154,44.74179917511905,33.756516853852375,82.77930455201007,65.31029606538036,53.87527000313037,51.58826642507154,41.656136600358536,12.905234476189548,36.13465653333071,17.969313827605674,8.298555840385177,17.549177466706354,16.87825842692612,15.502617111270697,45.674728601804986,44.04115461747722,51.16420480123383,400.0,401.0764592485108,400.0769859988845,387.7534346048172,{}
17,353,19,1,11.778433333333256,17.01465380035285,133.8005372695207,14.030642960434436,28.0612859208691,34.1990308859959,37.58659876147128,38.04592251121429,96.7893054324092,68.82001556926824,60.404988224210456,39.12235187009856,41.79590492316811,2.433125620239707,56.28887057416091,22.494390615575185,10.665360920339026,7.609184502242776,7.609184502242992,7.482101709669905,55.8945695843197,54.31736562495462,65.45668010523224,399.9999999999998,392.74008063139627,374.4151793081377,346.9821506478481,{}
18,354,19,0,11.811799999999922,14.53881217197864,131.6545436683111,14.538812171979195,31.93091703746703,35.43766938673573,35.96012021073394,39.42388975758583,100.29487144005672,68.46602909613426,61.03237029825186,42.18139353946481,41.41517353572021,2.426363345190339,58.38007028529091,24.19487011823503,10.7761967193278,7.884777951517549,7.884777951517334,7.672023370824945,52.4762469231066,55.148193602830816,67.36757234875947,399.9999999999998,396.51889026731743,378.5514658664073,349.5901059112973,{}
19,355,19,0,11.845166666666588,18.68136206465173,136.00236871210012,14.65486610894619,25.906388007542024,36.819895409772016,40.46707170796265,37.36272412930311,96.37733449326578,70.47299449448792,61.128516838323776,35.998019032934735,42.66508333777324,2.053786062945392,57.02094471243299,24.63511222236707,11.218419348853333,3.663716527236376,5.181277601508541,5.923985930305207,54.20343920899495,57.62985615823095,66.35272838217364,400.0000000000002,396.3762025648504,377.7183354559285,347.66720182018406,{}
20,356,19,0,11.878533333333252,15.205718425394156,133.9161155782259,15.205718425394156,30.64810529839479,38.20389472624949,38.2038947262495,39.68809026232586,99.99999999999996,69.3695807131895,61.808347370617184,41.21273858451673,44.225680308710935,3.5079250074550146,57.2674137720096,24.555475052184647,10.373127936155017,7.602859212697028,10.752066611409738,8.307110753850338,55.890068983806486,55.91158999612208,65.06999343970102,399.99999999999983,395.6775121757851,376.87872353627967,349.442164870805,{}
21,357,19,0,11.91189999999992,12.350150421888552,133.70143024647277,15.621841911543353,31.48682899850862,35.36544876902943,39.2493920459553,39.828038372610166,98.8783616870457,67.41870081965183,61.30789128536912,41.92353355879391,45.344956011392696,3.865763030858716,55.23153387766888,20.97287529385312,10.50865467583958,3.90546047788579,5.523155175138102,6.631783130524582,53.65412482484726,52.943179899632014,62.973657997017696,400.00000000000045,391.0534280676127,378.8900552603807,350.73122580546664,{}
22,358,19,0,11.945266666666583,12.064719842340152,137.26472662478315,16.086293123120022,32.42296034331923,36.41689491870553,36.41689491870736,37.07707365041265,97.26888102995748,64.84592068663825,58.86369834443008,35.99947489227793,41.85508568171781,1.9936418057434369,58.339655355491686,23.82117151890884,12.58842397340686,5.687363475756485,11.374726951512791,6.766989900637327,50.03471320470999,52.26759202714243,68.83824615892222,400.0000000000007,390.7553974713435,378.2203615195612,349.2059699679195,{}
23,359,19,0,11.978633333333253,13.12993587313939,129.78063263214693,16.60820115642905,29.35942915255282,33.4748996146798,37.59841448078089,38.28001222933984,96.93058997955762,67.59048176236058,61.06761263731005,41.69038939662505,43.45195514577836,4.403914372883037,54.31494393222283,22.01957186441473,10.2758002033936,9.284266692441475,9.284266692441188,8.807828745766074,52.2597838915442,53.434161057646406,66.94979922936051,400.0000000000002,395.2306987662767,378.1786234318028,352.3131498306348,{}
24,360,19,0,12.011999999999915,23.001737880774986,147.7050004770361,16.736222621507128,28.446108576966104,40.613846605344605,44.97724683583151,22.31496349534269,89.95449367166341,61.61920697285394,49.84724618992777,23.453925418602463,23.79073113610184,1.699337938292956,66.15170478706386,36.390326840743,11.619797253733395,12.474443822753576,12.474443822753766,12.002531023619667,66.5956759601313,65.70773361399642,73.37687990485203,400.0000000000005,389.7939345577497,366.8843995242603,350.3520334810765,{}
25,361,19,0,12.045366666666585,13.442477945923734,127.44779871742378,14.16961590189957,31.684224371710343,31.684224371711025,36.125573991950816,41.31117434620732,100.1943149104226,68.54345735730493,61.78423752483536,46.25896758269732,41.82317617065769,2.8515801934536285,56.08107713792765,21.86211481648047,8.554740580362022,4.480825981974428,10.01943149104171,9.50526731151308,55.13055040677614,53.86318143190783,67.80720123326837,399.9999999999993,394.8469684547791,380.8702084678335,353.61638483253955,{}
26,362,19,0,12.078733333333249,13.617911768227952,132.34231404797254,14.354539387603772,31.77512745919828,32.09772585637964,36.59703822301361,41.85031432088923,100.78890360943512,69.43799784057835,62.57455052887599,41.92547161583843,46.6303250390622,2.561531308199619,56.510517227832224,22.53102028232729,8.939221504125271,10.15019214178383,10.150192141783554,7.68459392459863,55.51727039404045,55.51727039404045,64.19545171276019,399.9999999999998,390.3273511833085,371.0585959769999,342.89025688676105,{}
27,363,19,0,12.112099999999916,18.573286881471965,130.75712685311217,13.92996516110418,28.2442233767743,37.146573762944,37.43565651787911,38.28981181360391,98.49972827108992,70.26620796040329,61.06667249530437,42.93542711359032,47.00299389277234,6.898912282338642,53.529710522113646,22.743812938499104,9.451111045746984,9.28664344073592,13.133297102812014,10.155624246062873,51.46934172873716,52.2669038423021,69.80443160242852,400.0000000000004,390.0942982339269,370.361306890753,346.7289928389868,{}
28,364,19,0,12.14546666666658,14.598367304468928,133.6191500243098,15.38803026728496,29.59946721438518,34.40868171747297,34.40868171747297,40.12707357192647,99.24981300277724,69.67227029379085,62.2797139086274,45.41945986706514,39.914070792269285,2.752694537397701,56.43023801665686,24.086077202231536,9.63443088089275,4.866122434822976,6.88173634349514,5.505389074795858,53.67754347925893,54.3657171136083,64.00384774581197,399.9999999999988,394.3961463560088,379.2142706641317,350.3946061946695,{}
29,365,19,0,12.178833333333246,14.956827727351966,135.43983551594422,15.765880729730776,30.3262770906873,35.25358103683192,35.25358103683192,41.11238702935923,101.68687525761749,71.38306102482503,63.83683958855113,41.30619032200366,46.18222635730103,2.8303427561211265,57.81185253344188,24.576342545723943,9.94823443983114,7.050716207366201,7.050716207366566,5.660685512242026,55.48592729821371,56.662901513630686,70.50716207366384,400.0,389.3246902821082,378.67663239458335,348.351050305398,{}
30,366,19,0,12.212199999999912,16.231488588586732,135.0241332083199,15.398542126489517,30.797084252979133,36.29471186009206,36.29471186009114,37.36769293851989,98.73229059761763,68.48072537630729,60.23877371567346,42.97670274571624,41.206233928284746,5.082958862948544,56.626446209139885,23.27309816462366,7.938553729773503,5.13284737549658,11.477395649741528,10.879816442603214,55.65554395441927,59.02514589727275,61.80766713054782,400.00000000000045,389.0820196913421,378.9279164719485,352.78758648652723,{}
31,367,19,0,12.245566666666578,21.71371746356928,143.74338182930728,10.53270007377806,26.33175018444524,36.86445025822365,42.13080029511263,42.45867139016144,100.6134761825184,74.47743646372606,63.6806676747733,43.362037340080406,42.27798640657829,0.3662334234804802,57.73303687745124,23.51218578744215,12.261495018124153,10.532700073778413,7.447743646372447,5.947630797321608,57.10311538906535,60.56035890672047,68.66480365425218,400.0000000000007,393.9919743518904,378.3717659582937,350.7958413506248,{}
32,368,19,0,12.278933333333244,16.220660029832,130.77514200803142,12.09016615553961,27.56982067182356,32.4413200596649,37.84820673627619,43.591714002676994,98.66642304616992,71.11649085361248,63.07727073386968,46.07019062374184,47.95488024016731,3.425348588583347,51.61955449432935,16.498513070775516,10.276045765750496,12.09016615553918,7.6464924682767075,8.780260355888458,57.797148237057854,57.64756969607174,65.10753729321988,399.9999999999992,400.0000000000001,383.1266638629621,355.5824542680643,{}
33,369,19,0,12.31229999999991,11.110039592606473,139.8718245046525,17.566515003641822,28.32515433974377,33.78986627201638,38.88513857412216,39.27992167591463,95.8945097037424,67.57973254403457,62.08182672417252,40.20891925763499,44.67657695292792,3.164590867498646,53.42573993954284,22.61751708241991,11.169144238231638,7.855984335183103,7.855984335182748,6.329181734998201,54.356501959395246,57.98647383682055,66.89129626424649,400.0000000000008,393.6232308061609,377.16907238139487,348.86231959440227,{}
34,370,19,0,12.345666666666576,12.62263089040835,130.93508017363308,11.290024290337412,33.870072871010976,34.337268359709284,39.9162636772901,45.51154290662396,102.23551816792803,68.67453671941857,62.66964733689383,48.44785704348397,48.9167072729374,3.172553219299516,53.52706786255885,17.70691033234425,4.672873953548788,5.64501214516836,12.622630890408862,8.76749929077232,53.41766947568658,55.88694735080617,63.11315445204293,399.99999999999983,394.42439511957855,376.8230598075288,353.65899722397324,{}
35,371,19,0,12.379033333333242,12.64911064067342,125.60254774486076,16.970562748477196,28.284271247461685,28.84441020371222,34.409301068170926,40.000000000000135,96.82974749528144,68.81860213634097,62.80053581955508,43.84339525447877,43.23445920927816,3.5414438418274585,53.28190395509546,23.027397288262364,9.887198418133266,5.656854249492137,8.000000000000306,6.345754576306035,53.26587932232724,56.24646101725898,68.11754546370516,400.00000000000045,394.4008113581921,377.6135590785901,348.0229877464994,{}
36,372,19,0,12.412399999999908,17.420601154186027,128.93337248991307,11.61373410279092,23.94232620682253,35.32179331865209,34.841202308373084,42.2746302466008,94.5289469550684,70.64358663730238,62.00856488599493,44.20114835354025,45.33708111546093,2.8732416919156094,49.68035344044984,23.35344119359433,5.378975725563123,5.80686705139546,8.21215013898115,6.581728061713648,56.09503256658718,56.42913043774024,64.1389429614727,399.9999999999998,387.6274052085386,370.4125800402239,341.76754959437386,{}
37,383,19,1,12.779433333333232,3.3443834087141195,174.42169889606097,13.789246046690756,26.75506726971137,50.27710698610959,50.27710698610958,57.73300888205392,98.41810673326584,72.19531549323766,71.29217273865083,59.78192207120907,57.64048008656874,1.189689991466878,39.378738717552665,11.480508417655074,6.721748451787676,13.789246046690726,13.377533634855686,13.473239153362073,38.60544022309921,34.679463251258625,53.61454465731843,400.00000000000045,399.3843567080247,389.114374579915,368.8538033921113,{}
38,384,19,0,12.812799999999898,3.591816389602516,184.0608777241796,14.367265558409704,28.95814951753793,50.28542945443384,57.58119709584409,58.47053462046858,102.16176528468408,73.25896743930079,72.68566318628137,60.59879385553097,61.70881246753862,2.939493731798109,40.63901473961488,10.4218414127389,5.48842535937132,14.809438362155475,14.367265558409732,14.471353756544715,34.36946517179362,33.25944655978597,53.99684032159031,400.00000000000006,395.8989900478606,384.9281102445527,363.41301727597016,{}
39,385,19,0,12.846166666666564,7.520112351317961,181.4592358419205,15.04022470263567,26.320393229612275,52.77490332998997,52.77490332999042,56.8999748655597,98.9116349643689,73.00708500844092,72.19938106633725,59.61771948641257,60.77910363225175,3.333602640834897,38.56225506462397,10.818078247354038,5.333764225335585,11.28016852697672,15.50310877049754,15.15176168043928,35.76633026908513,34.97056705804715,53.175224389015405,400.00000000000006,399.4340787686852,384.1886962372983,369.1754817985976,{}
40,386,19,0,12.87953333333323,5.519473246608617,161.20263936048315,11.70857088376453,27.31999872878373,46.9966212264478,50.88702897794855,55.19473246608811,98.27142728000663,71.22045625510313,68.91740343232539,55.87397540016718,60.12927816243166,2.8677040354391465,40.24036307793483,11.37830955996776,6.567967306973287,12.341917379408743,15.611427845019216,15.541105740443813,38.11271169680276,39.592817005416464,54.63999745756725,399.99999999999966,391.532618459297,375.4053407186174,352.0368325256378,{}
41,387,19,0,12.912899999999896,6.001312930821463,183.2612706038028,12.730707208218371,25.461414416436856,51.0993383008916,55.329371367832245,55.81543667570775,98.42885046768264,73.25536005749004,70.69616471369557,56.97464871807972,57.16893567022999,1.3600086650521916,41.28597733194181,14.037232292860269,8.98577153695203,12.730707208218371,12.730707208218371,14.984381184592962,38.32310131164951,34.291647054530586,59.56133019017969,399.99999999999983,399.7072648579096,386.5376663059748,373.8196580536221,{}
42,388,19,0,12.946266666666562,4.382657079128204,175.7986406796878,13.147971237383343,30.678599553894912,48.408029653498126,52.77417972473107,57.64485381774061,101.65497279227117,71.34448832534842,70.83354933011037,62.45864250048203,59.406342119804094,3.392846290918669,40.651091433573015,8.160489034291572,7.681202197656148,9.79991915100043,8.765314158255615,8.728065551359691,35.16451843524703,34.25639600793795,52.59188494953384,400.00000000000006,399.4233538568355,390.4502280089245,368.3779050273848,{}
43,389,19,0,12.979633333333227,4.531141797603621,172.71913739784858,18.124567190414712,27.56185954593171,50.04809697459929,50.04809697459929,50.65970537566205,96.86474806360629,69.31314133451112,68.76754117022938,60.66206790692684,56.64327379312874,8.146204284726082,37.85269590969392,8.146204284726082,7.575969984795279,13.593425392811044,9.06228359520731,11.268915927204487,31.79735072471408,27.262630339549787,49.84255977364062,399.9999999999992,395.1457019301631,385.812821750956,362.9441751451351,{}
44,390,19,0,13.012999999999892,0.0,146.6666666666668,19.999999999999982,19.999999999999982,40.00000000000008,46.66666666666639,33.33333333333338,73.33333333333334,53.33333333333336,53.33223759677571,60.51157727326472,59.57142564896259,26.708852963128777,13.29032523445295,6.581061370114867,6.837466358560903,19.999999999999982,20.00000000000001,19.999589098790864,52.73395929040163,53.9305159031498,59.99999999999989,400.00000000000017,400.00000000000034,393.33333333333337,380.00000000000006,{}
45,391,19,0,13.04636666666656,7.214530267081285,179.71277597253732,15.304329824785489,25.507216374642407,51.268870401235,56.34728268028745,57.035869730496096,103.17030535144796,78.037076419041,74.89659549041232,62.41874598570792,64.12965679249953,6.401166294375571,39.79342548899808,12.005874109727417,6.165178596887017,10.202886549857036,15.304329824785489,12.684338740006863,36.1061177157402,29.852443732295,56.34728268028745,399.9999999999996,394.00187258669433,383.8306392950911,368.1885178076759,{}
46,392,19,0,13.079733333333223,5.30324906961022,181.0110081152121,16.770346059137584,27.04137049138556,53.296993537408696,53.296993537408696,54.08274098277128,102.9704710669984,75.93097123266706,72.796705676118,58.786318360370274,57.18771657837976,4.177478241616882,44.35365887579519,14.734282462309238,9.60669184083008,11.858425421261176,10.60649813922064,13.452384806939564,33.510312826255245,29.83051249789969,53.296993537407786,400.0000000000002,399.01443004051794,388.0442101325594,371.83302652304695,{}
47,393,19,0,13.113099999999893,7.737508415678536,164.95598528511957,16.41373401064243,21.88497868085672,49.54422767377049,49.24120203192788,49.54422767377118,93.6526232665945,71.96298809633353,68.85270730186016,58.45049972388142,59.93652937787829,9.65919275098031,34.42635365092997,9.16384953298143,4.705760570990378,10.942489340428477,10.94248934042836,10.89755079597785,35.66471169592751,34.67402525992941,32.82746802128434,400.0000000000002,400.0000000000002,383.61190241500873,366.9406805596498,{}
48,394,19,0,13.146466666666557,0.0,174.1665530811842,16.81985915763015,28.588263353546257,50.77010088052318,50.77010088052319,50.77010088052274,95.96987084507116,67.51264161618957,67.5126335206919,59.08181983421946,55.90786644637137,6.744650949177867,38.418060798748456,6.744650949177867,8.166317570818137,5.606619719210076,11.213239438420189,14.200135209175984,37.75682050961325,29.75581301107865,56.34583083298505,400.00000000000045,404.6488205548413,393.4632886667917,376.3123728561633,{}
49,395,19,0,13.179833333333224,6.035716402835252,181.9745973985397,18.10714920850396,24.142865611338287,54.32144762551183,54.65573661224087,61.55247143313084,104.19261971772764,80.52650063295593,79.46225999436456,63.86366971811094,66.52892720233399,4.032056194080951,38.57789358573973,10.558520033652483,5.945574387882061,6.035716402834326,12.071432805669184,12.02782864674964,33.89660800447609,31.743900036449983,54.65573661224087,399.99999999999926,399.0882139954661,387.0395789855018,368.6236894286847,{}
50,396,19,0,13.213199999999889,6.135719910779114,178.88543819998358,13.719886811400416,25.29822128134703,49.4677553920676,55.56130689184275,55.5613068918416,99.88228365548756,74.64425433938196,71.36318891748965,58.548912319983856,61.3369557637925,4.396530046005864,39.46153797390889,10.508779134356246,6.219481528496544,6.135719910778888,12.271439821557856,12.492579277065945,41.39172189654551,32.491429364386704,55.561306891841824,400.0000000000007,400.0000000000007,386.98837191833,368.60308638712826,{}
51,397,19,0,13.246566666666554,8.950987670106624,171.94285829827254,12.65860815969965,25.317216319398995,50.63443263879842,51.02848085910558,51.02848085910651,95.77975068333298,70.76377086405404,67.02938350681916,53.433972931482685,57.58913863011094,4.519653917805954,40.16660175340644,10.825300109584305,5.904709150682493,6.329304079849672,6.329304079849672,9.458469287666958,30.17962454793156,26.5711911780702,44.30512855894807,400.0000000000003,399.5490698134371,386.5541827536032,361.26966889083087,{}
52,398,19,0,13.27993333333322,0.0,171.04933518356015,14.613730936143378,26.141836622486885,52.6905562161004,52.28367324497416,59.18109970872112,98.89944307138008,73.0686546807178,72.82372120550735,62.8983405146173,65.79324321612717,5.169469109838701,34.49445751474059,11.034466790818897,5.921391889451343,9.242534974216166,13.07091831124333,9.756198065476838,36.58104322816644,34.96440925199886,59.18109970872044,400.0000000000004,406.5139651280144,399.5191984906687,373.03677235508354,{}
53,399,19,0,13.313299999999886,6.887344723738718,173.4189089916363,15.40057098675422,20.662034171215968,48.70088158525059,48.21141306617016,55.52754836416523,97.40176317050006,77.00285493377105,73.30898683120085,58.62226150117567,62.56918910047512,5.089459272781141,36.706426673485794,11.944649313669515,6.6266837061923525,6.88734472373858,6.88734472373858,10.282785061333016,39.3446361740705,35.39770857477083,48.21141306617106,400.00000000000045,406.58674098214806,399.9999999999996,379.05432596634233,{}
54,400,19,0,13.346666666666552,0.0,178.122476531317,15.88102042010698,28.40883296913732,50.22019609518265,50.220196095182665,57.25983343138687,100.44039219036507,72.42859683401481,72.02437406699892,59.911922897717886,57.7983408144878,1.6258323717154326,41.4587254787466,8.698203188678235,10.567910416151108,7.10220824228448,15.88102042010731,11.258889174130218,41.052267385817686,36.09347865208542,58.5663095161412,399.9999999999998,405.8214467697094,391.2021115171602,376.6849493567259,{}
55,401,19,0,13.380033333333218,7.114555037960714,165.02087335496222,14.229110075920834,28.45822015184195,43.27614880464994,50.30750112466749,50.3075011246675,93.57736134425424,65.59295646633318,64.75691545495079,52.67065422072619,58.31090946336417,5.237379868163771,37.933897101803495,11.64097792559528,6.891289300215703,10.061500224933871,7.114555037960261,10.6231875058711,34.3504266656912,29.38869836953586,57.359376480493374,400.0,399.430154043866,391.8821947214527,370.0252648333554,{}
56,459,19,1,15.31529999999984,17.932114935504465,163.1531655155955,15.842166544618657,25.81957256032449,41.77385867086296,45.932039057237496,45.58925785590461,105.12235509839384,79.30978445776718,70.1847830244734,61.854979163754365,59.23939718768713,15.069051114369929,44.405984089179015,14.939450205645812,1.7908489205506155,17.932114935504583,19.90147541781233,19.02776978085012,54.00823323555244,52.95964406496682,49.86194514052504,400.0,398.4430865423588,392.5384305396142,373.348015224465,{}
57,460,19,0,15.348666666666505,22.054911874730724,156.7804663453348,14.119210518177685,26.26324971460865,42.35763155453258,44.335220330728525,47.96377069494581,110.27455937365409,84.07749798003977,72.93499928418157,66.17297104866054,64.57143804551072,17.57534180863945,44.83699248447692,15.131521077907337,4.217370241627577,16.098376854627272,18.40919823393316,16.34749983955794,51.699857983159234,55.306273042103896,50.27707926805097,400.0,398.75210278030727,391.67514522495856,372.5813270320026,{}
58,461,19,0,15.38203333333317,6.002852032233973,150.92262506602165,20.10930543198117,32.2643602058451,40.21861086396212,42.44657378452033,50.02376693528268,108.21795400621308,76.06244948337091,72.90348976997188,69.90346601994918,71.86076306850771,21.075895005014672,37.258547388632905,2.8893432621579223,2.8310903738079105,14.56714081458464,16.50026198923602,15.221479725844006,60.09367962181625,60.431546374245954,54.173684097043136,400.00000000000006,394.8773628927578,384.0001084363325,366.79123356286414,{}
59,462,19,0,15.415399999999837,2.001877640845398,140.83034909439388,18.12777303728088,28.310825098950097,34.2666255714303,38.50688526613391,50.04694102113493,98.27567834560745,70.09430984760388,68.95091972329544,67.38319109464476,68.28070116457866,18.002653285881138,30.39295464094198,0.1923235864144317,1.5560726537165692,14.573889210247966,16.1396535210514,16.131869308941077,58.12834699688517,62.4527136974757,56.19538328071416,400.0,396.8214347736328,381.91817224937313,364.3692279154786,{}
60,463,19,0,15.448766666666502,1.9837746052250365,143.1757626614923,17.85397144702321,29.82267158823405,35.92768615513407,39.87337608569481,49.63402476521107,97.2251961467406,67.44833657764309,67.18438377829693,67.76183444305809,66.94997311240377,18.04962127377109,29.72441590191169,0.7375359975662832,1.5837013281072814,12.546492233823413,14.027404757001277,13.996031953814224,56.91033581220052,57.92802114217557,53.89152923270121,400.00000000000017,396.56641767727547,383.60784593427087,361.9505359458741,{}
61,464,19,0,15.482133333333168,2.833496534643744,140.6082507595106,22.039430755265784,30.120481323139856,38.12079711578128,40.51999116634562,48.1277539836949,102.20245641862208,72.12904610814273,70.88978016331168,70.0971379932796,70.4417650237283,22.435219682214893,31.809074910421373,1.0683437943912395,3.687509225801932,14.167482673218055,14.025092298805523,13.991857436220016,58.035191927572725,57.55271408494434,52.24709454146394,399.99999999999983,396.35036224849705,382.9992311605519,363.3289533519578,{}
62,465,19,0,15.515499999999834,7.980471737132907,138.02409864277294,19.95117934283254,34.15091803316156,37.95970754569797,40.34876316350682,43.89259455423159,105.816511203065,71.82424563419703,67.72721475975493,68.98059348630693,71.21876978372109,26.27618973164317,35.69891194375714,1.253378726552114,7.363600018492889,12.135828614184176,12.13582861418412,12.007815835627298,55.05913691639034,56.06631625022664,55.89891791245574,399.9999999999997,398.4745517031924,384.9336925452012,365.52063397852913,{}
63,466,19,0,15.5488666666665,8.279186687777885,137.07434309712113,20.07997718112692,38.20476214573737,34.371384419777264,38.362742539086206,42.21573447765693,108.59908100504988,70.39456934577666,66.33159614648059,64.48273340327876,70.96833394094563,25.510806431434617,40.8616163371355,1.388105151047398,6.182317059286788,12.214173280660232,14.198688030845991,12.078847763946328,57.00562918629214,58.74367681239357,52.20794067092979,399.9999999999997,398.7228236839544,389.2253798906112,368.1158770366544,{}
64,467,19,0,15.582233333333166,6.285316014532039,137.5034089644779,17.888322977868043,33.84746260317701,31.863514766031383,35.996812008886266,45.757791274648135,103.52661520260034,69.67918455874279,66.65080164018775,65.89116313993611,70.04225856650794,22.20895867271088,35.54749296846762,0.3887913583964746,5.006436415044163,13.913140093897296,14.054393868561748,13.94265625264984,56.3089515068408,56.65587302664062,51.71558627871797,400.0000000000001,396.8070882523105,389.61355343369945,368.8147172990832,{}
65,468,19,0,15.615599999999832,2.8383074400801864,134.7075183601275,20.069864379729577,32.174440204722885,30.37121589178614,36.34807032572693,48.20946859688072,102.53324245024704,70.35911680054552,69.30642458149089,66.39038290156054,68.67675520406351,19.32412526259975,34.98638686423851,0.5929896078683896,0.0427930644854086,14.048905065810652,14.048905065810663,14.036125151195506,54.897388439780286,57.18376074228331,52.33580325456924,399.99999999999983,397.2109603241854,392.08215015050513,373.2401263716707,{}
66,469,19,0,15.648966666666498,5.78905149774513,139.55396898030418,22.51412663881583,34.85470556579916,30.972778065528885,35.03452467274063,51.20938804855501,112.86794802867188,78.01807431204043,75.83427561005533,73.09075785193681,74.09958500963057,22.40334456293158,39.27044252876328,3.3217479582600618,0.8857994555359028,14.327171497428258,16.5013356309061,15.38461415483033,60.61574885313797,60.94792364896398,49.50400689271844,400.0,401.4217806575528,398.5889128321127,379.2270617603221,{}
67,470,19,0,15.682333333333164,16.573744113855533,144.83710563545003,22.706169023515773,37.06001848026781,33.14748822771084,37.513368896120895,47.45998051414249,123.77073116634786,86.73091980228509,78.44433371487378,76.43170447376383,81.01133987269645,31.26203743376596,45.049150318973375,5.254529036670078,10.07519787765159,14.53613518499961,16.445759618492183,15.450243635346167,59.99322372601654,61.511734410925726,55.846007713003054,400.00000000000017,403.6441592219263,402.9420868412525,383.2470718194205,{}
68,471,19,0,15.71569999999983,18.599622199011023,149.03778393927266,22.687002136015643,37.19924439802228,35.158554134191306,41.539269092395,43.32885395099501,121.81012272665032,84.61319956059651,75.31244332121605,74.82819678000908,80.16701489681611,34.16964656391781,44.30250543867385,2.608878240752688,13.11702818494416,12.493900951088545,14.523864842631935,13.48021309084936,59.47758142374767,55.90626318234615,52.00273812577048,400.0,403.8052357566976,400.8691940582255,377.1845182981011,{}
69,472,19,0,15.749066666666495,14.26063471148087,148.88539739947004,20.26817008997305,34.521341455878684,34.814646144270895,39.15836303910287,42.54356298115169,111.57978445647905,77.06022650712495,69.93010339263662,68.9581853461707,74.35773004875932,29.12154442929466,39.92063383447192,3.443709621428752,8.903249265157228,14.260634711480984,16.25962524434627,14.254798014833966,58.37507772909703,57.535148553138754,48.77887573303883,399.99999999999983,401.5831196437616,394.8831294858191,373.7755612892483,{}
70,473,19,0,15.78243333333316,10.847348024853195,147.03024582928143,20.243484159363085,34.47929565519905,34.77224310861876,41.08385999713942,44.497384687222166,109.68239476903344,75.2066012065451,69.95884391472998,67.31111643267536,74.37172305148749,26.359598043565256,38.83333640346643,2.2358587626237068,6.236869179950759,12.739564176613436,14.24326575131432,13.238637410272643,55.77879228861565,55.8964690655958,52.71932742265551,400.00000000000006,400.03042943545154,394.74665629435833,376.0761637289581,{}
71,474,19,0,15.815799999999829,6.3255042171418365,141.44257421490946,20.102766883464348,32.253869436520255,34.53053297173653,36.883710800795726,44.188072776856,102.7188655973424,70.46623054267951,67.37472111994566,66.20461481359018,71.35308256155406,24.59563455959108,33.93308288430751,0.3978361441609195,4.399599711896485,10.771945527300694,10.771945527300756,10.261832306737176,58.27129405650044,56.39912396633167,50.643552707419886,400.00000000000006,399.5496113971208,390.3866295304628,371.501553188148,{}
72,475,19,0,15.849166666666491,4.529572731967375,140.70868173103244,20.35789744817618,30.65419929382448,36.68674298983636,39.33171743920251,52.70679030986583,107.83808285227452,77.21559859505795,75.0669939652339,73.08811661839991,74.48636528263,21.19887169752224,34.043800104517345,1.2916025796700978,2.760948633606972,12.321769986204968,14.747220376136047,13.413707524647975,56.56982307656301,56.68831872607399,53.28749226761119,399.99999999999983,397.9687860855417,388.6468428867568,371.4525823404242,{}
73,476,19,0,15.88253333333316,2.8664814461933896,142.4038440324699,20.26908468748801,26.427653129185508,36.7088736485456,36.98760865814801,54.76405113485003,103.5510223280744,77.12912742999704,75.96392965025075,74.25081044590456,73.21824544602487,19.05551772505521,29.75664590562804,0.7978911362708914,0.5632172726617455,12.819294739860815,14.75611638800448,14.50284477103952,59.46635703853429,57.307357493330926,51.03625117888911,399.99999999999983,399.8972778616856,391.8858611646608,372.21236744068455,{}
74,477,19,0,15.915899999999825,0.0,140.12916330006624,20.067168545322016,26.263249714608687,32.01046427459324,36.162823632943855,55.90922121346127,102.0106852995085,75.90306880144044,75.82623760298009,73.97681717363912,73.97681717363912,18.2096780735111,28.025832660013293,0.8535786596958133,1.28036798954372,10.75287037403676,12.145804139121235,12.092364345690951,56.33619153992515,54.20224489068556,50.27707926805096,399.9999999999998,397.31468433125895,386.3713638455886,368.6439073497828,{}
75,478,19,0,15.94926666666649,0.0,144.27108215992234,24.070555431466083,30.24961501954576,34.040905945032826,38.18990191086719,51.97272147995589,106.11398029640084,75.98642882624469,75.91766282730691,74.06098085598683,74.12974685492463,22.245800656371102,32.01057250553572,0.7908089877844304,1.2721709803488466,10.76467964018699,12.64247508263214,12.171581811986698,58.58863109498691,55.975523135351295,50.33229572558121,400.0,399.1900295427346,390.12842731683776,372.6636256910395,{}
76,479,19,0,15.982633333333157,8.456429501619985,152.27099177922128,24.611824977013143,35.107215259200764,34.92702305867619,39.18402133019828,49.22364995402621,117.06797656412164,82.06504990314858,77.79093253866938,76.39764425505723,77.16305584433769,27.69833188708708,40.25586577371996,4.688145984343009,4.401116638362623,8.456429501619985,12.47565723103616,12.42597876972519,57.48958608861312,60.30008176800232,53.67942531820176,400.0000000000001,399.1472664696747,395.92519085902666,378.31647706629815,{}
77,480,19,0,16.015999999999824,14.276612204965026,150.07429158130498,22.300781169374584,36.39836211055669,36.56596865521622,42.829836614895086,46.43741079150633,119.27594724988226,82.87816243690015,75.72243293111444,75.1030265267699,77.73550374523404,30.118636411251032,42.81646770031318,3.793864226610026,9.213670264624398,10.295011468983317,12.281206189853997,11.226741078744,54.817466784487806,55.43687318883224,46.83077000336733,400.00000000000006,399.1940926001773,394.34990444243545,377.075572347436,{}
78,481,19,0,16.04936666666649,18.62419238435851,153.57902478506827,22.716971768812225,39.29315986817093,39.29315986817116,43.62915280203592,45.24735571215735,125.7280187518795,86.47919799231066,76.93698683647744,76.84417985597497,78.9478047473624,32.9774137385142,47.640916657891125,6.496488635167111,10.703738417941736,10.487143168852914,13.007700195477048,11.600872562798145,57.16909998946937,61.31447845190917,45.66610623237983,400.00000000000017,404.0613382921529,401.0297386589056,381.1777761435948,{}
79,482,19,0,16.082733333333156,18.546506054862192,146.22918088432704,20.11651024708847,38.432538863604265,38.69488005832981,42.67356242857503,48.321515815291264,125.12728104264876,86.71126012464745,77.40693189891101,76.77858030638015,80.39309803865251,30.388279874964724,46.47408064375293,6.319421730595309,10.448589338654756,7.253110917927402,8.996376876512151,8.449832844318678,58.2272475745192,57.61684888463202,47.34864173603675,399.9999999999999,399.8330371356375,392.967673598348,373.609686010554,{}
80,483,19,0,16.116099999999822,12.149740650956083,145.19362557921414,22.06205997465244,36.17454417294144,36.44922195286869,42.69964315113626,49.9351264759982,120.11032896083492,83.98607314754541,77.68770914043967,76.41395116729348,78.81161323439221,28.04572985216862,42.316430039996135,2.374607624145824,6.190117932846079,8.932666981230533,10.75635542953431,9.285176899269176,55.2153908721279,54.177940939248685,52.54352351294895,400.00000000000017,398.04028216727954,390.5578163849213,369.4119523035058,{}
81,484,19,0,16.149466666666488,4.455846194507826,144.8526997286151,20.026537874631327,28.18124575607733,36.36363636363632,40.3001667773874,53.84019441950559,106.08283375364724,77.94547443301559,75.67605971387184,76.00104892736692,75.67605971387172,22.28497463966778,30.13114279405079,1.4624514607281751,4.781984141428666,10.73109867594372,10.731098675943883,10.422868347094608,53.11252289120819,51.95184712872549,50.45151407666582,400.00000000000006,399.4287733725383,388.4618876741519,367.0113649058696,{}
82,485,19,0,16.182833333333154,2.827225809002844,141.3612904501367,20.09121428988561,26.294719993667645,34.21994514973473,40.77483048669822,54.0140732393723,102.44549371590098,76.20409434934412,74.9437622552482,73.86209970723439,74.43440793369666,20.40851135564833,28.214795564595192,1.545232211448365,2.5296023609636222,10.76575514020365,12.643738193343856,11.303087472631944,55.456667144204346,52.40054121489521,50.9685381083729,400.00000000000017,399.5151180117071,388.5815920683322,366.67385745362486,{}
83,486,19,0,16.21619999999982,2.00418811861834,143.70182547952433,22.136981316499448,30.328869635908088,36.297390606740265,38.55132819346655,56.15304498980699,108.68910071190034,78.39424802026053,78.11037433650131,76.03339802463029,76.3317482130758,20.322237836042973,32.39394546084077,0.5737503623953444,2.6736766887622707,14.590709742333528,16.526958613344526,15.301922165083624,55.321009942158526,55.95213534079341,50.74199029890735,400.0000000000001,397.7896906199274,388.33698437838194,368.7052540733476,{}
84,487,19,0,16.249566666666485,6.325504217141912,147.1274751641731,24.08680244896917,30.07110376066056,36.226975006415095,42.43277226447291,52.04625484886627,112.302197374141,82.2315548228451,79.03869699708957,77.21366754275641,77.48914368680676,25.48154332464981,34.81329770435275,0.9986010221823562,3.58118987265334,14.14425742149088,16.12693471826003,16.12683259960943,58.59607147402585,54.17697499655276,50.64355270742004,399.99999999999983,395.2756922223506,387.7178065671718,368.0225973899658,{}
85,488,19,0,16.28293333333315,8.253126141202243,145.007657020227,22.109246288423428,34.26319298765759,36.25191425505675,42.46198368656562,50.08194522052932,114.53371819735838,80.29195717690986,76.14001006104274,76.65139818831847,76.19683096407346,26.47854081227308,38.07000503052143,1.875089800010756,6.420762042461092,18.45455107860886,18.125957127528373,17.13150226373466,59.20738095791535,57.161828448812685,48.70290602075904,400.0000000000001,397.20557467112815,387.984717916491,366.3069106103166,{}
86,489,19,0,16.316299999999817,6.00902030075829,145.10398167000636,22.033074436113505,32.29751365298109,38.10980282307496,40.50830493003771,48.1138736177364,108.32915404843962,76.14060793380614,72.86024999502251,74.74722868740673,74.19828943144034,26.486319100372384,33.6682743659311,0.3202145659802227,6.6558884785910095,16.14875682649043,18.137997708750767,18.13786791588541,57.43276965547068,55.28275756960284,48.73525803900491,400.00000000000006,399.4479641055693,389.8820643120384,368.1665926177431,{}
87,490,19,0,16.349666666666483,2.830798912437888,145.2423309011473,22.01844817876209,32.08932515684328,38.24198743639201,42.46198368656552,50.0819452205294,106.25870448140137,74.17017280784127,72.96434309245103,72.30092866149789,74.83089894903094,23.59618954839084,32.557906522452186,1.3436953304897088,3.6262907454639617,16.138036766794194,16.138036766794077,16.135588278265857,55.9966756973966,54.1863414027618,50.40094172734001,399.99999999999983,399.4988471521128,389.9573204110524,368.2759502316089,{}
88,491,19,0,16.38303333333315,2.8486531502631136,145.9222402439014,22.248692343611044,30.481919825079075,38.48318490739455,42.729797253943225,48.34324703518318,103.04488445431274,72.6266900032398,71.41607857362169,72.82357379306654,73.18975141113367,24.94585023081163,29.99223552979697,2.311496214047679,4.87473954051643,18.240280030487643,20.143019597993035,19.13278054399865,56.03661861480941,54.44603458633105,49.01008194309391,399.9999999999997,397.41008680694944,390.09390088650485,370.2427277283315,{}
89,492,19,0,16.416399999999815,2.8486531502630164,142.4326575131439,20.14301959799302,30.481919825079025,36.75756145732049,39.11066950641151,48.34324703518322,100.89622230091436,70.52933846505374,69.15833949369869,68.67231561135361,72.67486523066646,22.64299498925573,30.076301425122324,2.1156333702082293,2.687426172967207,20.541929998569582,20.243484159363064,19.126469252287905,54.03441986072369,55.52108114789701,50.998052305417495,400.00000000000006,399.71080482523934,390.43179085967313,368.9858127347078,{}
90,493,19,0,16.44976666666648,2.9047729685265105,144.71484474209194,20.642290399406324,31.082428104140178,33.119507542060504,39.881168247074754,49.29563193245726,103.02734659468555,72.0067381304684,70.73192427116317,72.28761175513307,71.66533676154506,23.024174762754,30.97546634748892,2.247104143512047,4.321354122138473,20.94661576320731,20.64229039940632,21.537628944738344,56.55788275054891,57.11101607818267,51.71801235142413,400.0,399.8048304348315,394.8034231280746,376.2550082668402,{}
91,494,19,0,16.483133333333146,2.848653150263172,143.92043019219986,20.24348415936293,28.486531502628704,34.47929565519898,38.74587181291699,48.38519346132666,99.21331788938252,70.75907633229902,69.61194920074877,71.20231939516657,70.7859315624462,22.73940219800147,28.21027566679845,2.186036121781399,4.580266159922985,22.5205805466114,22.24869234361111,22.12638677760782,55.93476552875654,55.668739968963,49.01008194309375,400.00000000000006,397.4100868069494,390.0939008865049,370.5987172680941,{}
92,495,19,0,16.516499999999812,2.0130006733175114,139.8274955239327,20.230406392072343,30.26203573184445,36.73381520736048,38.72084106766284,50.325016832934594,100.83104096625004,70.56995842810171,70.3635586518028,70.40404068603993,71.24838025727047,20.801982450113883,29.881524414717205,2.59663333892172,2.550368156936429,22.50603172145258,24.156008079808583,23.01114488990902,56.11966574809691,58.54858780232206,46.691202387576375,400.0,397.4644214471565,390.1795627321652,370.35930177298894,{}
93,496,19,0,16.549866666666478,2.832679335302439,145.10398167000596,22.03307443611357,30.3109925407668,36.27599541750138,38.5286044398216,46.11267870566871,100.47030829327454,70.2196010892357,69.08676688906769,69.5421573424876,72.21685570181398,24.82166192943896,29.58308616392958,3.032093398719212,4.542375661959568,24.11939542582113,24.036081203033,22.9366913184482,56.99874434702565,58.38220901564273,48.23879085164226,400.0,397.1614427848009,387.26466630109167,367.8231662700634,{}
94,497,19,0,16.583233333333144,2.844904161904884,141.517898139971,22.12816127179736,30.44180389782441,36.43254958453517,38.43253886360464,46.31168446474891,100.90390205811616,70.52264366688043,69.42380534646759,69.08957405185788,72.02401151978688,24.27425588817732,30.347068563119365,2.6341957964999665,3.642554617525775,24.223486073556124,22.12816127179747,23.0619593280677,56.1395276200322,55.323776663696606,50.45195102905797,400.0000000000002,395.2113583965614,387.5966589299469,367.4279357590061,{}
95,498,19,0,16.61659999999981,2.8326793353024966,142.90298734237192,22.12393286049403,30.3109925407669,34.285953096555566,38.26739055042323,46.06915563914662,100.47030829327468,70.2196010892357,69.0867668890678,71.53665223974406,72.40131765762965,26.09560231179057,28.49360773739363,4.12157182525516,5.631854088495629,22.39429645111948,24.11939542582119,23.02892229635597,54.8197874939537,56.38771411838644,44.24786572098829,400.0,396.8633284954831,386.9589275813452,367.4903365291759,{}
96,499,19,0,16.649966666666476,2.013000673317437,143.43247810593996,22.234319164631664,30.46222778733947,36.28988572594666,40.46081278414477,48.35393548738187,101.15203196036155,70.71336430334712,70.62833962901652,73.63705590202153,73.60305910797626,25.310613166692065,27.520404779633623,3.552664977729023,6.782360412028197,24.23973799492392,26.169008753126,25.072635608375265,55.38077749971978,53.81692497363804,48.47947598984761,400.00000000000017,396.8522467002416,384.9097323911165,367.0125881191449,{}
97,500,19,0,16.68333333333314,2.0030067669191056,142.56568635114968,22.03307443611353,30.310992540766904,34.10997612743564,38.26739055042338,48.11387361773639,100.47030829327466,70.2196010892357,70.12386979453618,74.94093742681844,73.71128784387065,26.245685823196368,26.144155123686915,4.698615149521288,7.6994113794676196,24.11939542582114,24.03608120303305,22.962859872390368,55.74035403069547,53.089274654615,46.24300212721079,400.00000000000006,396.5751069423532,384.9787343187061,366.8565813144985,{}
98,501,19,0,16.716699999999808,2.014301959799336,143.3696311764911,22.24869234361105,30.48191982507914,34.30232633106492,38.48318490739468,46.37271357364366,101.03687228577644,70.61557775359383,69.59470502779834,75.52236553428213,74.28578181139858,28.56054607669455,26.132757850115468,4.883938465150891,9.750859723105805,24.50504097154688,24.17162351759157,23.092350164493155,55.89585323530241,53.22982410798432,48.51081511833987,399.99999999999983,396.5362021026947,384.8582065171519,366.9348342583178,{}
99,502,19,0,16.750066666666473,2.0130006733175483,143.27701101988606,22.23431916463143,28.46812853271604,36.28988572594657,38.458323864065314,46.29901548629986,98.82172748424676,70.48377485217206,69.39254585458048,75.28893927163097,74.11642509309695,28.54621057738393,24.104185708707064,6.899794973680628,9.898725468777002,24.239737994923843,24.1560080798086,24.08163735912001,57.90416173990661,55.31110153737967,46.473729373095736,399.9999999999998,396.561132643525,386.3126090825645,368.3846231778634,{}
100,503,19,0,16.78343333333314,4.475886080615386,142.4710467027383,20.016771071601955,30.29087113742998,36.08574723394258,40.23321192121007,46.03857346468464,100.26384445299826,70.08728830443965,67.94750928059727,74.56236764113669,74.13378346773425,28.433176345984748,25.90678542908654,5.007667710280543,9.789764802980926,24.35145301037956,24.103384202072945,23.104070505652487,54.02416291045904,54.272290589797365,44.21849257684687,400.00000000000017,396.03372525813086,381.6122728337654,365.4746675929709,{}
101,504,19,0,16.816799999999805,4.504116109322232,143.36963117649125,24.25540755916991,32.2917169411846,34.24313331658817,40.48696831872619,44.31464311558466,104.91787169584975,72.6266900032398,70.54413643928956,74.67652343301245,75.10556907716943,30.67676355722631,30.02190441614448,3.059772883330311,9.65352699353275,24.255407559169964,24.17162351759156,23.11201141024736,54.872679752712486,53.94684441532104,48.38519346132674,400.0000000000002,396.8174860804622,384.85820651715215,366.934834258318,{}
102,505,19,0,16.85016666666647,8.278560843722644,142.9101177442614,22.086305214969325,32.1882188881976,36.196957244599865,42.35555626530045,44.172610429938544,106.49157503444049,74.31742745943689,70.19793846222956,74.06167537537499,75.08663092014388,30.48954836826408,31.883027254972035,1.1689099752139782,9.587365067641144,18.1818181818182,18.181818181818187,18.097950995553106,54.9214943033997,55.31305035421025,46.354722850843714,400.00000000000006,396.7261711915218,386.5142526303448,366.87032026144095,{}
103,506,19,0,16.883533333333137,10.14040253126794,142.0959522298323,22.308885568789176,32.7018155514322,36.56174128033107,42.78240514781002,46.64585164383226,111.61815186246712,79.09513974388938,73.9272380370137,80.09025240174333,78.8750101326417,32.89834428496465,32.12290397991876,3.5010551086022588,11.556375292361508,14.3406947876415,14.196563543775076,14.177826472852018,56.6997321555117,54.54701727881735,46.6899195342877,400.00000000000006,398.7125811471698,386.9171543350929,366.8359817849576,{}
104,507,19,0,16.916899999999803,12.059844715424278,143.0615934951809,22.10971531161105,32.40985883340199,36.23532374632968,40.39997980001519,44.21943062322211,110.62164238001633,78.38899065025744,72.25787810583984,75.5519872547826,78.0432310914382,32.640016997319435,33.808894437266645,0.5372113486625949,11.517575178471816,10.248897255807794,12.22619525936624,11.145659629397528,53.95727172282494,54.22882910786319,48.28123516359455,400.00000000000034,394.6618859758258,384.9297232341354,366.9895711306448,{}
105,508,19,0,16.95026666666647,12.005704064467832,142.292778710409,24.011408128935543,32.077679602056946,36.017112193403484,40.069006089326976,44.06636758929528,112.05323793503302,80.06303507303379,73.92224080818607,77.99072234520384,81.0938014836072,35.61645277745163,32.44441632486144,0.999881055707874,14.239685379562047,10.004753387056546,12.171307805532296,11.067648926971856,53.235046552163965,51.92485758261586,48.02281625787132,400.0,394.4309787620096,382.9560321452431,364.8375681431013,{}
106,509,19,0,16.983633333333135,13.891719300036884,137.06202652036023,21.829844614343376,31.81445741615424,37.706095242956685,39.74020888514572,43.70476894046698,111.1337544002938,79.40605590984725,72.32125542268824,79.29763825273352,80.44587083822722,36.30850615038514,31.19365190591293,1.8963235124064115,15.11839570900088,12.07143280566916,14.032755599137207,12.961110245345878,50.6962083958897,49.652360590895455,47.67007835945973,400.00000000000006,392.7667770458535,381.11786181585205,361.1737976180668,{}
107,510,19,0,17.0169999999998,12.182287237478326,140.32158745803704,22.030312533948344,34.105700354792624,38.10502566193779,40.25489106556405,46.10689836359577,114.17464072027954,80.11022739617601,74.024132104079,80.05174607485316,81.25269382994094,34.68451492670272,33.506442366949955,1.904360011639256,13.284769690804753,14.019289794330817,16.022045479235175,16.0126367345041,55.232159136371706,51.94956860579839,46.06338075280127,400.00000000000006,394.5784502756202,382.8407755364976,363.1786357759513,{}
108,511,19,0,17.050366666666466,13.955413899505697,139.68224216354298,22.02036923775914,31.960329145828617,35.940685989279224,41.91368221424572,43.905158661309066,111.66111005007636,79.74522228288993,72.7384990886593,79.35313699820006,81.39100842224559,36.585984488599706,31.28301520282332,2.144831526412758,15.115151308184409,16.07316340600052,16.073163406000447,15.970832127120673,55.484145733134085,52.97339806704469,43.90515866130885,400.00000000000006,394.76402160074974,382.8653164709999,361.2874435295894,{}
109,512,19,0,17.083733333333132,15.942511329846802,139.62502483038998,21.9209530785394,31.94723739721353,35.87065049215557,39.90606757366682,43.887174012356255,113.59039322515908,81.72966956096603,73.62427338588282,79.70055454565306,80.94956789516141,36.57583687006138,33.20012511463369,0.0506356763313533,15.207581458202752,16.066579437049405,18.04569752011028,17.958786538876495,52.99867456021826,53.64005979374957,47.86903294224124,400.00000000000006,392.61974522448895,380.7265641144614,363.1189132108455,{}
110,513,19,0,17.117099999999798,16.015021126763088,140.18861969520768,22.020654049299363,30.2939057627426,38.03567517606222,42.0870672214301,44.086781841325255,112.12302037017967,82.10139278695526,73.98275234033008,81.6914208644954,81.71416029966997,37.736092672130894,30.413994545932496,1.1483414763137034,18.23702700997228,18.127773037281013,18.01689876760859,18.00963265822702,53.75602475258654,53.2102783083979,48.0867510787011,400.00000000000006,396.60424605641975,385.12088547728456,365.2535338912378,{}
111,514,19,0,17.150466666666464,14.089577450832866,144.9772683061936,22.14076456559451,32.4553728494942,36.23034201642737,42.31662894843428,44.32725090808869,112.73458957403204,80.53702717733438,73.40377854808946,79.82850623630941,80.61543701176947,35.99646204318572,32.51148289472019,1.3377823182819384,16.278225183801624,20.22835727643138,18.11517100821369,18.110649703801528,52.48828272318394,50.858211831159565,46.33806170225957,400.00000000000017,396.7661034478791,384.9865196503125,366.9974928386145,{}
112,515,19,0,17.18383333333313,16.02204547923514,138.24818095993697,22.03031253394842,32.044090958470505,36.04960232827921,40.10515133620852,42.105527040642365,112.1721986765384,80.13525793182696,72.0549106451628,79.04657884718989,80.70964555543918,37.8602227153458,32.22615998944059,0.4921319850941472,16.138535097397494,18.135724064403583,18.135724064403583,19.040416802607865,50.70656453314808,47.99135358090456,48.10784242076903,400.0,394.3801760217002,384.8314721672575,364.9304442357581,{}
113,516,19,0,17.217199999999796,16.0349139481371,140.3627529135269,22.0480066786884,30.13220172300614,38.08292062682538,42.139345048837285,42.0916491138598,110.25825338090536,80.1745697406853,72.14686665350524,79.17240423025106,80.81619988122048,37.90862984119099,30.26385417675124,1.4974302847872425,18.205599778201982,18.15029018215907,16.0349139481371,17.03467684874431,52.725308448558906,51.99348161764789,48.104741844411166,399.9999999999998,394.69693139711165,382.93325104407546,364.9979757780872,{}
114,517,19,0,17.25056666666646,16.15970115270858,138.35921811931385,22.138926679588124,30.065463652756936,38.08292062682539,42.09164911385962,42.09164911385979,110.24003339344222,80.17456974068529,72.11638520901312,79.45636072513497,80.35697121791071,37.82564069657883,30.30554308190188,1.3509157391636109,18.237362478707723,18.15029018215908,20.04364243517125,19.03665429104609,52.2579238433093,52.61816804041956,50.109106087928296,400.0,394.5085817083459,382.9332510440756,362.7899280766006,{}
115,518,19,0,17.283933333333128,15.949044456578054,137.57495427771403,19.93630557072251,29.97083903344773,35.88535002730068,39.92242079377171,43.905158661309066,109.64968063897376,79.77013877226014,71.74359329013157,80.3933703147502,80.83261680428166,36.77844645038056,29.029687865826418,2.663635763440425,17.046142612969106,20.035739133042046,19.93630557072251,20.931784635747192,52.87851970128224,51.07648282115326,45.89682214477239,400.00000000000017,390.5989856202492,376.91746132941097,360.8471308300773,{}
116,519,19,0,17.317299999999793,14.089577450832827,138.89756244773872,22.140764565594576,32.26758705237758,36.23034201642741,40.30622408257674,42.31662894843428,110.70382282797247,78.52487521575871,71.44192612577473,78.82393989795872,80.06083481789818,37.18555909308839,31.25970797665127,0.8433374454132263,17.15910588934173,20.127967786904023,20.127967786904023,20.12765369719631,53.87239601299859,50.94882620223268,44.32725090808856,400.00000000000017,394.55437808795966,382.5426052854538,364.316216942964,{}
117,520,19,0,17.35066666666646,14.177442357890374,141.7888896187949,24.304186899240783,30.44767040763792,36.45628034886112,42.580522360605286,42.580522360605066,111.39418995485352,81.03926923763198,73.9128425919921,79.31368966828325,80.55138378993331,37.41211776805813,31.45993421939568,1.1814352979387197,15.234889461037824,18.34031440349157,18.228140174430564,19.24051770928702,52.18568487466274,51.251788401054114,46.583024890211306,400.00000000000017,394.4233749966534,384.336305324268,366.1850989968634,{}
118,521,19,0,17.384033333333125,18.05765078974241,140.4627257690872,20.064056433047085,28.089679006265783,38.12170722278938,40.178241696215096,44.186500751476174,110.37054892586836,82.28709609911947,73.23380598062175,80.25622573218817,82.26263137549296,37.1185044011371,29.092881827918177,1.003202821652394,17.054447968090017,18.168775843456487,18.057650789742297,19.060853611394634,52.16654672592233,52.16654672592233,46.14732979600808,400.00000000000017,392.563916428357,378.5678596437695,362.7601378317332,{}
119,522,19,0,17.41739999999979,16.051245146437736,142.46892959117508,22.07046207635176,30.09608464957057,36.17099213157726,42.13451850939873,42.18226302161075,110.37054892586843,80.28130188519265,72.23060315896942,80.25622573218823,78.24982008888344,37.1185044011371,31.099287471222965,1.003202821652394,17.054447968090017,18.168775843456487,18.057650789742297,19.060853611394634,52.16654672592233,50.160141082617656,46.14732979600808,400.00000000000017,392.2561518513649,378.4029978521507,364.4043628862407,{}
120,523,19,0,17.450766666666457,16.060137355853158,142.53371903319658,20.07517169481639,30.112757542224585,36.13530905066955,40.15034338963278,44.21097957629234,110.43169296954837,80.32577682417704,72.2706181013391,80.30068677926567,80.30068677926567,36.13530905066955,30.112757542224585,2.0075171694816163,16.060137355853158,20.1752978605552,18.06765452533477,19.07141311007564,50.18792923704103,50.18792923704103,46.2165159705349,400.0,392.20638472035387,378.31446670993466,360.1521610428028,{}
121,524,19,0,17.484133333333123,12.099012080378015,145.18814496453666,24.198024160756034,32.32698648340281,36.35300703188422,40.33004026792665,42.39452704717832,110.907610736799,78.66942686449386,72.60410529838492,78.29701581050307,79.09914801573319,36.34104518694664,32.20783618499786,0.1559701510170725,14.059595041669809,20.26559442437309,20.26559442437308,21.178518363085743,52.90730336996023,51.81551231284152,48.43804056222924,399.99999999999983,394.37954327488296,382.3172951635236,364.2284956895575,{}
122,525,19,0,17.51749999999979,14.186902234252443,145.92242298088195,20.26700319178917,30.46798656835952,36.48060574522037,42.560706702757216,44.63344462534295,109.44181723566136,79.06729151604091,71.94786133085142,77.01461212879872,77.01461212879872,32.42720510686263,32.42720510686263,0.0,12.160201915073458,20.36808612903412,20.26700319178917,21.280353351378665,54.72090861783067,52.6942082986518,44.63344462534295,399.9999999999999,394.0616369516876,382.07467083127545,365.9078194488855,{}
123,526,19,0,17.550866666666455,14.262991646413385,145.24460373513608,20.27151992390866,30.256374339557965,38.37778547947972,42.40692287160213,44.37601569801837,108.92294762240864,78.66657328285066,71.60675260362041,76.6494816602135,78.66657328285066,33.28201177351366,31.264920150876605,1.0085458113185268,15.128187169778926,20.271519923908684,20.271519923908773,21.1794620376906,52.44438218856709,50.42729056592992,46.393107320655645,400.00000000000006,394.2059704106954,382.2747852567607,364.1730305577728,{}
124,527,19,0,17.58423333333312,16.208402118831177,145.8896881845312,22.37845661427904,30.458214109029377,38.54823527230103,42.547055561931685,42.59526753837579,111.4511816837852,81.14324987234659,72.91430942569605,77.32453937867785,78.54462837582264,35.399371132754595,33.48528655925236,1.1697183504736586,15.251112464309358,18.346665457477265,20.26050264853883,21.267606372247823,52.18398995127336,51.25493135711736,44.75691322855827,400.00000000000006,394.0758910306888,381.9521222285505,363.7705404592413,{}
125,528,19,0,17.617599999999786,18.14851812056713,147.25988324515967,20.165020133963367,32.32698648340272,38.31353825453039,44.36304429471943,44.40885023804703,114.94061476359173,82.70117038103515,73.60232348896659,76.62707650906111,80.66008053585381,34.2805342277378,36.297036241134265,2.016502013396348,16.132016107170784,20.265594424373035,20.16502013396348,21.17327114066165,50.4125503349087,50.41255033490859,42.34654228132308,400.0,394.379543274883,380.4728389427054,362.3929595217154,{}
126,529,19,0,17.650966666666452,24.190340638249506,149.22824007265348,22.1744789183954,34.32888808767703,38.301372677228585,44.3489578367908,42.3330961169368,122.9840872578224,88.6979156735817,76.60157626633804,78.98493441129256,82.19244443814705,38.256239382796025,42.38813597988997,6.203413489437367,16.193470760577952,20.259159553912884,20.15861719854129,21.16622502096186,51.93270574730076,48.98135103509088,44.34895783679102,399.99999999999983,394.4140480090156,382.5359878931303,366.2937789561384,{}
127,530,19,0,17.684333333333118,30.247530200945164,153.37350468914866,20.165020133963367,34.33979189379493,40.330040267926734,44.40885023804677,42.39452704717837,127.0396268439698,92.78100852737435,77.62292685136515,79.01205124587648,84.21006510920938,39.27637199320043,45.426608223738754,9.24215826993452,19.223689201463912,20.26559442437313,20.165020133963424,21.172944400213566,53.96300168033281,51.016713650038525,44.36304429471936,399.9999999999999,392.2187131678346,380.3071475553027,362.3929595217153,{}
128,531,19,0,17.717699999999784,28.40528755244176,151.90584970704964,22.26172236386736,32.38068707471607,40.47585884339509,46.547237669904405,42.54781004666473,125.47516241452524,93.09447533980916,78.92117358393045,77.26991690521061,82.50723606801876,37.40068578366311,45.58469194890063,11.29192698478073,17.274257578391712,18.32622453119142,18.21413647952785,19.225742744151542,52.12856100901234,51.19451682711025,44.52344472773471,400.0,394.1203608354117,382.2130014091352,364.0859187779717,{}
129,532,19,0,17.75106666666645,26.177297167090323,153.1556886870089,22.150020679845568,30.271620515200635,40.27276487244639,44.30004135969114,42.33431973553908,120.81829461733956,90.63609195975664,77.48105521356064,77.60897598521473,81.11289277399823,37.113709097702326,41.44076824321587,7.547325527586054,15.300436644354704,20.23681389433673,20.136382436223307,21.140297958993926,52.89245819258935,52.13605710802659,44.30004135969137,399.9999999999997,392.3237075881757,378.48900648286127,362.6841423693676,{}
130,533,19,0,17.784433333333116,18.136537986955563,153.27226033043974,22.25828996309508,32.30564691095084,38.34124100001632,42.366541726556136,44.37953522974435,116.8972823434717,84.63717727245954,75.53977046865276,78.3934951308018,80.18406746783654,35.02807134324189,37.60201907772944,3.860921601731208,13.373337142228024,20.25221677407091,20.25221677407091,21.12315803845661,51.98255315953952,51.31108853315152,44.33375952366959,400.0000000000002,392.4412724016983,382.4048934546616,364.5399019332766,{}
131,534,19,0,17.81779999999978,18.290378489145585,156.69535137979426,20.32264276571745,30.55163118888241,40.69606042385043,44.75597807631243,44.70981408457808,113.82494325847716,83.32283533944111,74.15973744031112,74.66209905175378,79.35080742521916,32.307433411449665,36.81752432306882,4.71103555619618,12.436240781048582,20.424003208793195,20.322642765717337,21.333623099267584,50.90597662619581,49.097474825002,42.67754980800643,399.99999999999983,394.1230634693846,381.99000708615534,365.8188599657756,{}
132,535,19,0,17.851166666666447,16.26546346221377,150.57912576837575,20.433235589392044,30.56544161988215,38.63047572275822,42.7452232940184,44.77620938059943,111.84354325661944,81.32731731106931,73.17691426498254,74.60649989164892,77.39865931873157,31.3280287718676,35.84015840603308,1.641789743124605,13.43587116312176,20.73447889786478,20.33182932776733,21.32092938520327,50.92898794998797,49.11966864123832,42.74522329401817,399.9999999999998,396.5280139300222,384.6156628540327,366.4357491406756,{}
133,536,19,0,17.884533333333113,12.132203050344032,149.7534153235515,20.22033841724005,30.39783402973694,36.3966091510321,40.44067683448012,44.48474451792824,107.1868677048956,76.83728598551232,70.74419707215338,74.60804745683606,76.53997264917746,31.10622903622459,31.608752930186256,2.2501903251837803,11.396125195285208,22.607025614499687,20.22033841724005,21.22325912164598,54.13857417613252,51.52544992753201,46.55071486294163,400.0000000000001,392.1390447719681,380.0670662929579,363.76945176760216,{}
134,537,19,0,17.91789999999978,8.051187114761543,144.97726830619345,20.12796778690409,28.46524502724861,34.27669402041089,38.29607050044363,44.28152913118907,100.72031862665776,72.4606840328547,68.41838523848128,73.91053380978599,74.73324432451591,30.05116920695707,26.382325019648533,3.490960832772544,12.340657720947888,20.526580102878235,20.12796778690409,21.12920720600158,52.37553020124875,50.69675604281349,46.29432590987963,400.00000000000017,390.3476736288395,380.3333838827496,364.3162169429642,{}
135,538,19,0,17.951266666666445,4.047585884339532,147.75074572365708,20.237929421697547,30.424279108097323,34.40448001688608,38.4520659012255,42.49965178556503,97.16314011367172,66.7851670916021,64.7575487928533,71.55445184210305,71.97238439205694,29.26627672177005,25.39490152219741,4.784227874471981,11.251184173758247,20.33886735170848,20.338867351708377,21.226574247657425,51.60367169430504,49.73397344451132,46.59121239645271,399.9999999999997,396.3173623285916,382.0254279765053,367.9186549976115,{}
136,539,19,0,17.98463333333311,4.013972875945838,144.51696026780064,20.069864379729417,32.111783007567155,34.118769445540416,40.18987210038316,42.14671519743198,98.3423354606744,66.23055245310724,64.22257493366214,73.90056018408211,72.6963869040759,31.15240874386313,25.04234432309113,5.162335450396768,12.989461770436948,20.069864379729417,20.16996407490449,21.084182152700464,50.67562553359284,47.5759943128362,48.209468596880846,400.0,392.2310853424891,380.2166814299725,364.3495804672585,{}
137,540,19,0,18.017999999999777,16.06013735585319,142.53371903319643,20.07517169481643,32.120274711706266,36.13530905066951,42.15786055911442,40.20049999056223,108.42451368058968,76.31206256830161,68.27947940857126,73.26985877089982,75.63197166906872,34.27281648728115,33.973393725541314,0.4491341426096369,13.90097895706424,22.08268886429805,20.175297860555222,21.10930470264992,49.67090925304376,50.42501102335126,44.34750377025336,399.99999999999983,392.2063847203539,378.1812827102606,362.1552071218777,{}
138,541,19,0,18.051366666666443,22.19930089356228,143.30060807231752,18.27483812623668,34.36731563362964,40.36236526102219,44.444444444444656,40.36236526102219,115.03274099391328,80.7499530599266,69.65278894549442,75.31676280181148,80.53550886245773,37.573844477677085,37.07789452806935,0.3550550775602232,18.91936341856342,20.18118263051116,20.1811826305111,20.198688856756466,52.46925035055858,52.0860162985889,40.5636750647522,400.00000000000006,394.2775085175348,382.3255674241168,368.54287585402,{}
139,542,19,0,18.08473333333311,20.259159553912827,143.18295568669174,22.26592045651684,34.26964923752028,38.35438498312173,42.3330961169368,40.31723439708269,116.91997975153964,82.65033051401937,72.5643024880178,78.95336562088528,82.18989365839388,40.25501740769812,36.3465458329905,0.1735854137764363,20.208701881260595,20.158617198541343,20.15861719854129,21.160621892292625,55.972896648678784,59.075035978747565,42.38106564634009,400.0000000000001,394.5840130016497,382.5359878931303,366.6707842168116,{}
140,543,19,0,18.11809999999977,16.062767429068586,142.91011774426167,22.08630521496933,30.38422234560016,36.14122671540442,42.2125432866068,42.16476450130505,110.5045145336246,80.31383714534297,72.22724630538949,76.66579216773175,81.12675492836888,36.76371320323983,31.6078265954684,1.8718110076040373,15.400409128430285,22.448399923854303,20.17860184914135,22.147895515122457,56.894087871843,58.48568765076368,44.172610429938665,399.9999999999998,392.49151172587074,382.5302198242838,364.10169782853353,{}
141,544,19,0,18.15146666666644,8.394313297611246,145.25115840557035,24.431040268643194,30.60658909920652,38.736020216270006,42.947779921812376,44.79024049251259,107.98056102625652,77.39174463577137,73.19706567289273,75.45539374559127,80.00609503781294,33.04081499327549,30.20371942455893,3.103782552176085,11.921475579747836,20.762391844530487,20.46074299953837,22.48114528651172,57.52494975130128,60.44148399594212,42.802767307730925,400.00000000000006,392.44701914088887,380.6353808816689,364.2248970807464,{}
142,545,19,0,18.184833333333103,4.046187852829776,140.12025064693157,22.254033190563423,28.61086868690528,36.639789348626266,40.66368466062894,48.596383746641024,103.3561443824332,74.88180939375383,72.80142056796387,75.0251481698989,77.69362129222077,27.77948942724925,26.992631968103296,4.207976846738347,6.808027581308579,20.63159081724076,20.631590817240845,21.3991017693898,56.68794825240423,57.98797361968934,44.55402206335489,400.00000000000017,392.54278665302246,378.5348760810557,364.2299555975444,{}
143,546,19,0,18.21819999999977,2.039489518475409,140.9610409944922,22.434384703227835,28.62559949950708,36.71081133255492,38.80393451109427,48.94774844340637,101.99486877986632,73.42162266510961,72.29040458663201,76.92875605463189,77.2681476254611,28.22606564063324,24.832149932340823,4.808047253414429,8.880746103365482,22.526898022328684,20.496615991256142,22.45640893653592,56.11273971043727,59.05413332429089,42.82927988798048,399.99999999999983,394.3815889805505,382.23428946911935,368.3354207323384,{}
144,547,19,0,18.25156666666644,2.0340502363726403,140.40841190925107,22.37455260009942,28.54925553714628,34.578854018335505,38.70044511113232,50.851255909316656,103.7565018076275,75.25985874578872,74.21420712427187,77.09466721813635,77.26410604718717,26.347737917407017,26.573656356141555,3.4734959955422937,6.466915308773992,20.44195188265683,20.34050236372672,22.36592543471216,52.35659817671245,55.858333977096606,44.79530976098414,400.0,394.4694199723709,380.30212495779466,365.9312342280974,{}
145,548,19,0,18.284933333333104,2.02534890827004,137.73861722867417,22.27883799097078,28.35488471578089,32.46881299738707,36.51249669736364,48.65055026958201,101.2876968776419,72.94068511948089,71.87277048677208,73.6094836343076,74.09598959746097,25.27002485355468,27.385760088663005,2.811551903339364,7.224047848217879,20.35450461748711,20.354504617487144,22.28876156772003,53.64011096069055,57.88289552307367,46.62703342613925,400.00000000000017,392.0711408857413,378.106116526091,364.1687727049917,{}
146,549,19,0,18.31829999999977,4.094817927888585,139.2238095482155,22.52149860338784,30.77930576271281,34.80595238705382,38.90077031494252,49.18045099095859,106.46526612510591,75.78179430395085,73.70672270199634,73.70672270199634,73.70672270199634,24.56890756733208,32.758543423109586,0.0,4.094817927888585,22.61437115659068,22.61437115659057,23.5452030853599,53.23263306255302,57.327450990441605,47.268106448068494,399.99999999999983,394.1461673498878,381.7470742297349,365.5642828348966,{}
147,550,19,0,18.35166666666644,6.178921462980906,146.2924811611217,24.715685851924192,35.01388829022586,37.07352877788612,41.24426862368067,49.43137170384816,115.33986730897912,80.32597901875326,77.23532639327436,75.86225392406061,80.79387254265339,28.897454341661387,37.01002418059943,0.1544706527864718,6.127335893866302,22.749472751824104,22.65604536426376,23.68550009393749,54.05328620471528,57.06260336640878,47.55049310125404,400.0,394.1669774591175,384.0276876656351,367.7482178835167,{}
148,551,19,0,18.3850333333331,10.335537765399051,149.19018503213013,24.805290636957288,37.26531137264004,39.27504350851542,43.60568160251325,45.476366167755046,117.84326165291864,80.61719457011138,75.44827420091178,72.70168978475806,82.21480753384742,31.982576538205308,40.37650396387244,1.2048426440923097,9.358943571883287,20.77417380393132,22.738183083877583,23.7656639085896,55.33139915286722,58.47198424410328,43.45844759205916,400.0000000000001,398.0940035036752,385.9019086268598,369.6194085053041,{}
149,552,19,0,18.418399999999767,14.532958974404478,154.13831674718375,24.91364395612211,37.42809197602136,39.44660293052648,45.863365291505424,45.67501391955692,122.5096759021718,85.12161685008351,77.84456265148026,73.71566423685226,83.63870738802996,33.00837572357284,43.83247681606417,4.699188250902466,10.5161445809033,22.93168264575272,22.931682645752765,23.838115156277468,54.61095472165374,57.8616067884189,47.796263019410816,400.00000000000017,398.2991857628011,390.03204996512767,369.58737476570695,{}
150,553,19,0,18.45176666666644,24.72453705977889,157.6828767682005,24.72453705977888,35.08697452580322,39.20136665710206,45.51523963468048,43.31696869737316,127.80988800354156,92.73990423843108,80.37866592891919,74.35055358502996,87.63770961020566,37.68145416490279,46.8156549302613,8.311662535228834,13.661037038871086,20.603780883149067,22.664158971463976,22.65143741434696,57.02548261194397,59.39531303721333,45.32831794292784,400.00000000000017,396.13414463608666,388.194041628612,369.7962552047974,{}
151,554,19,0,18.4851333333331,31.07751543820648,158.74777069570038,24.806946917841696,35.38554439508816,39.33202953075971,45.90030072709336,43.46134936801765,134.62515227078342,99.313885551054,83.75669158021935,76.50614652793877,89.62017583988984,39.60574411957271,51.5619788856261,13.3662221833348,16.105953831548277,20.77556092200478,20.77556092200477,21.728708532170856,54.7946329642715,56.58290968862832,47.5915671622324,400.00000000000017,399.3691606718356,389.4769668315541,371.4720083552096,{}
152,555,19,0,18.518499999999765,40.80363565397721,160.80552883080077,24.53639055123957,30.83503287896532,38.92898737075349,45.24286870173066,38.715090216922654,134.73075743174462,103.99932929631548,83.52239005947388,76.74780902245425,88.51965341386824,44.04054725258425,52.07309989613736,16.80373081754783,19.0888535523518,18.451581714314266,20.477991649502464,21.48938652628715,50.7343411222119,51.70378713091651,44.874285219337104,400.00000000000006,396.9627265493101,385.28033734330006,365.2544819989251,{}
153,556,19,0,18.55186666666643,38.606220835214735,166.79382367019346,24.43357449378668,32.71822082900904,41.03596581303618,45.37200878497891,40.63265415044593,136.32759796802392,103.6628772790994,84.28870622960983,78.45504501095809,90.0881524264513,43.69258285171975,52.00683315161643,15.499404880054044,19.502562431856177,18.37426313391134,20.39218170278044,21.504141207757183,50.53558721377459,52.075263195236914,44.824238095430346,399.99999999999983,397.5426952410426,388.0248570303861,368.2071998677248,{}
154,557,19,0,18.585233333333097,41.04230308772885,168.81969699181772,18.377100711885724,28.70020950780967,43.05031426171463,47.071843488235714,42.66592876055421,130.6568960466409,101.97665456184642,81.45797093996742,75.52432807800363,84.85685374439316,37.61814358118727,50.464768418254266,18.031361318394488,17.743320402765107,16.36163678800057,18.710247485313257,19.5003699881039,51.96258117952664,53.46039394079895,45.06024293740229,400.0,398.86063889722135,387.4262531759796,371.1548555434545,{}
155,558,19,0,18.618599999999763,37.107859741486784,175.5181068893426,18.414109265727244,28.758007158564315,43.13701073784669,47.16663868370531,42.703461937987605,126.6658822619637,97.94624300345438,79.34722078382993,71.79611122323126,81.48737483041646,34.24246474538813,49.99076810706424,19.62480880455029,16.475148132215054,20.73769387807286,20.436403860383148,20.55355490023885,54.91716044071688,55.96704733149522,48.9731215017273,400.0,398.1192701930493,388.6695469768826,372.857294712812,{}
156,559,19,0,18.65196666666643,31.03444193803537,181.9116238974668,18.693759320834225,31.239743682365088,45.603652924141386,48.19344498770192,43.40111184860701,124.2921573522976,93.10332581410592,77.40572247423762,70.69664865620183,75.2040367510063,29.714089209595382,51.17619098408727,18.61898005315368,12.308636720427558,19.032646596831007,21.05263157894734,21.01136296501147,54.36603486656418,58.21465085520498,49.71686294091889,400.0000000000002,397.6706092838316,387.6035635546838,377.08155150328577,{}
157,560,19,0,18.68533333333309,22.77880688986991,168.8461294685275,20.37398426083565,30.83143278171153,41.203833192587766,47.25710404240868,42.97896688195876,116.77332682854768,85.9579337639173,74.49618332133616,74.0973061193007,75.2235476309304,31.72246924423507,42.04634976750685,7.977544040709972,12.341729898274934,20.47560077280752,20.47560077280752,20.46005412793869,56.49978250008746,59.03382590125415,49.06705168473614,400.00000000000017,396.3774215556526,390.3785112182976,373.216691993771,{}
158,561,19,0,18.71869999999976,22.35810278563724,168.0579928173041,18.329978655017754,30.63181808742884,40.68606753011469,44.944700700165214,44.71620557127425,116.01729086679784,85.40140864907973,74.15373476257741,74.17704621644805,77.30078103511687,31.07416800959311,40.21225792689279,8.368811939567877,13.823692145302855,20.64294724517912,22.35810278563713,22.19250408487068,53.849458441230354,54.6420478728329,50.96824292118992,400.0000000000001,400.6755032702188,388.0200424999313,370.7395608338445,{}
159,562,19,0,18.752066666666423,22.51886745555216,163.245481472215,18.238892532480097,26.49199044634686,40.733637315184005,44.7213595499956,44.49399986897981,111.67178800079328,85.19158697237776,73.92612257524155,71.75233361877434,75.54637376030058,29.20488346022909,38.015359655141424,8.032063703869653,12.02214847276946,18.569533817705143,22.246999934489875,22.22223511465416,53.65856771587221,53.73929197420256,44.72135954999605,400.00000000000006,396.3576560137703,385.760753610796,367.2219042727265,{}
160,563,19,0,18.78543333333309,18.31474185982527,159.6129695420121,16.306116991710315,28.60282134267619,38.64028383033588,42.9042320140144,44.67903522433065,107.87852777604093,79.29226237552271,70.0745885004851,72.42747469182393,74.01524141262962,28.60281208639788,34.608712291184474,4.878355721895673,13.173861560307955,20.625787794791066,20.32612361775693,21.30828961545012,53.12115181130281,52.41931289848293,44.907340416640125,399.9999999999999,396.012233411554,385.3692840573196,368.4327629612148,{}
161,564,19,0,18.81879999999976,16.29216919444165,157.80324996720367,18.299075940917465,28.578355287783705,38.870765663495625,42.86753293167567,44.64081802487169,107.7862514949472,79.22443798783071,70.99931076834844,72.43848598662578,75.55669895955998,29.428848808663133,33.723530412411264,2.118785738019369,12.113058087167587,18.63080825288564,20.30873721904378,21.284944597300125,54.59728209020369,55.12269526513029,44.8689279312932,399.99999999999983,396.37467924676366,383.7276115491831,365.1157518700024,{}
162,565,19,0,18.852166666666424,14.276612204965092,153.68426563309822,18.28298432760821,28.55322440992996,38.57328206378062,43.161672074952506,44.60156233874914,105.68550871142352,77.14656412756123,69.93277449652157,70.20398832615558,73.65475152022452,27.4041378070782,33.69399045178557,4.148994542701416,10.13878082270719,14.698671892861988,14.698671892862077,14.426267533732414,52.68472903319093,53.53876407118793,46.83077000336723,400.00000000000006,396.3913655084855,381.4020397475176,364.7946809311628,{}
163,566,19,0,18.88553333333309,10.431036784121847,155.7148559561465,20.55897648563768,31.29311035236565,37.33042374135504,43.3957361323873,45.19087120849451,107.3356297325858,76.1317284060759,70.84449888215488,71.0777958049282,74.03289016005658,27.451271246323472,34.76124149321993,2.566266150506181,7.698798451518428,11.016402671540073,14.89288163049753,13.764518443623956,55.369136338193584,58.94635582071726,47.22852773515116,399.9999999999999,396.3793977966311,383.5445559326624,368.32730205422985,{}
164,567,19,0,18.91889999999976,10.36884693903652,150.4376406718326,20.436403860383056,29.115263181454264,36.82821853145424,41.12495574918015,45.15098708975791,104.97657429936206,75.92331750425781,70.73407685643292,70.22266119230017,72.03319021014954,25.98226707433173,33.84748728823581,3.515247898291932,8.323730809333483,12.369286580495546,12.3692865804956,12.520866259802403,55.2093783624714,57.32558111060701,51.20217605796234,400.00000000000017,392.844272436901,380.0683728702476,364.9038698174328,{}
165,568,19,0,18.95226666666642,6.385834052177643,149.39303575270824,18.286245859771142,30.89054403991068,38.58016321610398,43.16937175784664,48.84223866392854,104.24764073316008,73.39543304042671,70.23804250694457,71.9410957051291,73.28289519460793,23.79113710191143,31.635503348094744,0.1204179029019769,8.618481336267337,14.701294013532973,14.701294013532973,15.430694129005474,52.84625681639329,53.25911819777133,48.84223866392865,399.99999999999983,392.09229087442696,377.8450036369035,363.1793994363412,{}
166,569,19,0,18.985633333333087,7.301750576369124,147.8214389475494,20.3524175646384,30.645947879723018,36.95535973688708,40.95594691966011,46.97280070257893,104.5451582011281,73.9107194737746,70.5886875367247,72.20890647579006,73.03625231701483,25.670702906892984,31.92176037392494,0.1838546313831557,6.251057467032183,16.699742468319425,14.743250759412373,15.478261779581317,54.78868015222247,54.32904357376424,49.27381298251625,400.0,394.06563489426367,379.3506330919491,362.2343136674149,{}
167,570,19,0,19.01899999999976,10.947893815439429,148.39309251522803,18.40935208127616,29.10774141239687,35.09455254921178,41.11433134171013,46.93482274751337,104.94945417534352,75.90370313028579,70.5136316755885,72.64221758625558,72.37192096267881,25.723228677055545,32.43559482921182,0.3829202167337371,8.379195330879838,18.74308351927183,20.43112422718039,20.38487036141441,54.64496739976926,55.00536289787164,51.470761346895,400.0000000000002,392.0687089647335,381.7065549508205,364.9455232414853,{}
168,571,19,0,19.05236666666642,8.391379077900977,149.2794470743916,18.42959562286732,31.132701572079185,37.1390676354103,41.5102687627721,46.98643385431221,104.76876316495492,73.71838249146907,69.41442398897607,70.7748242631352,74.37988498965728,25.74557518846393,32.139456477012345,0.4081200822477058,8.400471692933365,20.75513438138616,18.429595622867268,19.57275894446628,52.61348060310922,53.15764071277283,47.512417783530445,400.00000000000006,394.9405613665552,382.5866953724707,365.3468295908686,{}
169,572,19,0,19.085733333333085,9.056706947765525,148.16783638309008,20.352417564638305,28.99560988428163,34.66483422443196,39.32113023433703,46.75401609123835,104.54515820112802,75.61129987917074,71.24048118922587,72.36237853078865,74.09010043679507,26.622623915281,31.31215480301239,0.6170435378596721,9.34540485521677,21.143095256382907,20.25141238749822,20.13805728104888,54.43445901261799,52.79648889393661,46.97280070257907,400.0,392.986993191866,382.2102019227752,365.96829320797457,{}
170,573,19,0,19.11909999999975,9.066356401111989,148.3257015578047,20.674473527476447,29.026503208582632,36.99473376342301,41.34894705495312,46.67192611610992,104.65654566596444,75.69185981280548,71.35622053651127,71.36741015867472,74.84738265151702,26.72641253747168,31.54913968993162,1.0686089166123338,7.200521862199366,20.674473527476497,20.37410201406496,22.34567546046935,55.56766366384119,53.91159958364608,49.03381932876092,400.00000000000017,392.5062233534381,380.1928749231193,363.9269791236792,{}
171,574,19,0,19.152466666666417,9.130492765305362,147.01227531091843,20.51823056682341,30.89562321222875,36.97567753877698,41.28961875468988,47.134925324634416,107.12290081303064,76.2273120355777,71.89092150463455,73.14822681514659,76.67317206068935,27.85155781589605,32.20722264159849,0.3929079095349834,8.25106610023522,20.82072694009321,20.51823056682353,21.36296433843222,57.0277765839387,57.05022846448367,49.1692083115186,399.99999999999983,396.4148306872456,381.5901544609128,364.7686139486607,{}
172,575,19,0,19.185833333333083,9.250440490446875,148.6128681369498,18.73071440164346,29.615859855655827,35.7071795873434,42.18849967419876,49.81514657964722,106.78150127652214,77.22871392125394,72.85095307901929,73.8423498411039,76.61603291704819,25.48112464346434,31.52975882112605,0.4065840653493069,7.212689926401481,23.126101226117527,20.78777955434082,21.660348358127408,58.26962317375393,56.58759046504866,53.93887350592565,400.0,396.7349899646794,386.1878877023199,371.586866906942,{}
173,576,19,0,19.21919999999975,7.331881983678003,146.4259903359141,20.436403860383127,31.106540817109394,34.80788214539087,39.11511862572165,46.81464392356217,104.68072615553253,73.65643706290855,70.33059851896053,70.44745448611752,74.86572295862777,26.0477515362968,32.024099570900944,0.5508924165976623,8.129836572213208,21.230344363056453,22.46072160898993,22.4363456941569,57.081357671295,55.86828144080727,51.2021760579624,400.0,394.4200259242375,384.0513150699156,365.7188684635575,{}
174,577,19,0,19.25256666666641,9.220776377681004,150.49934156240744,18.67064915126215,29.520888355938617,35.29281519170008,42.05321050466639,47.60100217686481,104.40264517876486,74.93831101863455,70.57333823268334,71.61150976948159,76.03211115197803,26.27801932928446,30.55349995932511,2.5005421961595857,8.0821095983016,23.051940944202595,22.77363769238287,22.61092954607716,59.77858687694061,56.20638373956973,51.91550952392005,400.0000000000001,396.6916885602428,386.178840391961,369.590986285878,{}
175,578,19,0,19.28593333333308,6.392272577811698,143.23541031047648,20.61445964787925,30.92168947181912,36.60936598271847,38.882676119765584,44.654496492529255,102.35623346430172,71.4677800734735,68.32435693462764,70.45545159994117,72.79459508482353,27.02385477967414,30.71250412121936,1.6306529101343583,9.255361000279663,22.600096434817143,20.31496005315629,21.159127244260105,54.531282491319246,53.77780838801584,48.89148391569868,399.99999999999983,394.46589256728777,379.7892243638863,363.1350976066949,{}
176,579,19,0,19.319299999999743,7.302499339472785,140.93285268352886,18.340314403491465,32.97029152223476,36.68062880698316,40.96014677579141,44.97004372594899,102.8949007229976,69.92588601279955,66.58577609075678,72.18739211725506,71.68274202477767,26.96513660803771,30.85654954336292,3.6615167820853,9.04445110184338,23.092530524609018,22.370709877609013,22.35039187349537,55.4778668330062,55.489081279505626,46.75881051441497,400.0000000000002,394.0331786521709,379.72996565258194,360.68274075996186,{}
177,580,19,0,19.35266666666641,5.728551789226144,140.93285268352895,20.253489082700582,32.65776985741667,36.68062880698311,38.69423656158903,45.28817837046846,102.55547740316756,69.92588601279957,67.58317286713009,71.61175739101816,71.78102564832432,26.467913167449296,30.81246510497556,3.785966688415897,8.717315251270406,22.64408918523423,22.370709877608974,22.224922184306703,57.65276843849858,56.71615074807079,48.986654786125,400.00000000000017,392.4371569939104,379.729965652582,361.0635346328027,{}
178,581,19,0,19.38603333333308,7.208039784718948,139.10985292744638,18.103078102321085,32.23533388630949,36.48107401862887,40.43031759714655,42.40838713504114,99.25535813143732,67.05354762045621,63.726775452165725,70.66977044306316,71.41366276351641,28.63985433745188,28.1439261238163,6.075120617035282,10.786438646572831,22.351182540152045,21.990655956406005,21.8208413999634,55.04803171354388,57.27970867490376,48.35300082946424,399.9999999999998,390.1622833946458,375.680761246547,358.89624470410206,{}
179,582,19,0,19.419399999999744,6.364055497828798,140.0381454894617,18.22388157093477,34.44829792192577,34.448297921926006,40.45056954023757,42.69138211717959,101.60588805045045,67.17018643021791,63.997939800460586,69.7635199626643,72.95154664058873,28.6922401013195,30.19581296714898,6.319528060140897,10.400654410249786,24.48301033810579,22.22869022298069,23.22624400636755,56.79661712727693,56.05048322393293,48.46720270459048,400.0,392.0640424608078,375.8566134837944,358.97447765918133,{}
180,583,19,0,19.45276666666641,6.321869096672051,134.89452526694726,20.091214289885656,34.51068907582951,34.21994514973471,38.19371746706695,42.40838713504096,103.2034238545843,68.70216889000919,65.56143789595342,73.48990229378535,75.09580938853037,31.910384683342272,28.788411450201465,7.698246947186817,13.526678990352138,22.35118254015208,22.08133945847859,22.965594466808,58.40785174663472,57.66666385675239,46.15397424991477,400.0,393.7463894611204,377.6490090574373,358.8962447041021,{}
181,584,19,0,19.48613333333308,4.47998279689916,118.6307565405822,22.129482574079443,34.29455361170334,32.118696069895066,38.11936253796822,42.500848549718,103.13694927653847,68.85195765011254,66.71192391441207,82.92070338210817,79.45145584691716,38.7020155360251,21.924506964199395,14.531028610513545,20.388938383049208,22.39991398449545,22.129482574079493,22.123562150644773,56.361054219251855,56.75916459214261,46.25460202758823,400.00000000000006,392.1354302851208,377.9895054519519,359.1370601845386,{}
182,585,19,0,19.51949999999974,8.326108942436244,100.60475713261434,22.577332809133868,32.87309277147061,28.34332139810789,32.561492442619034,42.83747710110629,106.5688374569857,73.70038232864131,69.53950449412923,87.38845328625689,91.3866178156934,46.55005844986886,17.134990840442583,17.706157201790575,26.27365262201181,18.61774558335632,20.294498098590868,19.41965628583489,57.402219315482455,56.545469773460354,48.84223866392856,400.0000000000001,392.9441921424012,377.8450036369034,359.6534392871415,{}
183,586,19,0,19.552866666666407,7.338048132758189,119.45476907871364,24.507154069793632,35.133143697396605,28.78219278508977,33.130791924000754,41.51026876277221,107.7700004346448,72.64297033485153,69.2449718213233,73.07595228170072,83.49143040835207,36.81332786144003,29.414746847336005,7.554214595306803,12.53448919379764,20.75513438138601,22.7543213137372,21.740814112642283,58.73371918316252,59.21259174070968,45.508642627474494,399.9999999999999,394.3948166613506,387.0108054957472,364.8533205710736,{}
184,587,19,0,19.58623333333308,6.406769124181761,117.99592134944795,24.396249995711592,34.679504536392805,27.030188546662604,33.4136197471553,42.93013403676455,107.68328606374293,73.21678628388695,69.8594085467385,79.57429130714087,91.10679729368286,42.93351413468133,22.30035668484618,14.11478450092011,19.567654179339456,20.661209605198017,22.65134946602777,20.83999043763725,53.964606817460776,56.78505665112596,42.97791383345194,400.00000000000017,401.0504421609791,389.0813534992926,366.4761543099135,{}
185,588,19,0,19.61959999999974,6.6179467266366725,132.5242799245374,25.20039034837985,36.12695839013745,32.013355364792446,35.081360441586305,46.32562708645691,113.7247498755674,77.65872159202722,74.22810351020934,77.22702748463729,89.10907994752864,37.293987193570274,30.46275405603137,9.18617764798455,13.18895196332619,21.34223690986149,23.397975039680645,23.39792052469471,56.771209216960415,56.7964633135872,47.21523526171388,400.0,406.7642234415714,402.3907531079649,382.6295117482483,{}
186,589,19,0,19.652966666666405,2.91509108970714,120.63335879829935,24.821106229246432,35.283441767761104,31.53153118976197,34.55336056899875,45.62839286032401,107.54276358461216,72.49732494311716,71.08368547184807,78.25361717940132,91.82238646464076,39.85437321223651,22.45500728185129,14.569947953857197,16.485246276429848,22.767589238623746,22.76758923862372,20.8319785085024,53.51642001318555,53.91440408021367,45.76785847194501,400.00000000000006,401.5266826411736,397.8325107900652,375.4587531284107,{}
187,590,19,0,19.68633333333307,2.0560186481735125,128.2336045331799,22.61620512991068,33.15230455376956,31.11320787214185,35.49238480474555,44.90412507934377,100.40867614756569,67.34834227653727,67.07087509590758,73.95151726485835,80.83215943380912,32.821524764771084,22.97445189328528,11.982656800489394,13.041217134173962,22.709468227147934,22.709468227147934,21.64509705563472,54.31891572733355,54.36815109169095,47.99823862906568,400.00000000000017,400.9816224701384,396.4332391184416,372.7976278548644,{}
188,591,19,0,19.719699999999737,2.872128745481966,113.5308571120704,20.410309608052472,34.585009931191415,34.76343764987215,39.06517442896694,45.81923109944145,102.83664894511628,68.51095743693517,67.16652079112873,91.22906633999094,96.68680096548894,48.33127218357674,8.841530093306801,25.79689232985379,28.319578556750685,20.41030960805236,24.455295049749548,22.41309686204511,52.39425240478073,52.24871281476737,49.12095919979354,400.00000000000006,397.89609618783385,389.6897677323248,366.9699465044119,{}
189,592,19,0,19.753066666666403,2.0346290557659303,123.15809841700262,20.44776894556541,32.807407739522986,30.587181615376924,35.12314319050697,45.49568877688645,100.70900017718488,67.90907855027365,66.73730870967745,73.28579530156526,79.48836912266131,31.10829331811226,24.142325795958413,11.355481303237298,14.19435162904665,22.74784438844329,22.380919613424304,21.37502362962323,55.48917964565129,54.630361731961045,49.00035641552635,399.99999999999983,399.7256497700491,392.72030344759867,371.8976893346755,{}
190,593,19,0,19.78643333333307,2.011905467611736,133.16625840677915,24.14286561133821,34.261515539676445,32.253298248791886,38.43739998843413,44.44444444444451,102.92228800873822,68.67055123089513,68.56560225522037,68.96753854430267,72.77411163502359,26.46868680162732,32.00122160428987,3.5110317016898307,5.118776858019146,20.11905467611524,22.130960143726742,21.10165517682213,53.05559015886706,53.71760287029673,48.32762774355012,400.00000000000006,399.2758066846569,392.0790308133834,368.7993395378492,{}
191,594,19,0,19.81979999999973,2.008427975321865,134.57966178041644,22.092707728541768,34.143275580473755,34.143275580473755,36.20745024049882,46.23748429564126,102.50855836468388,68.40459195978677,68.28655116094751,70.29497913626949,72.30340711159147,25.10534969152468,31.130633617490844,5.0210699383048905,5.0210699383048905,22.18381206444979,24.10113570386386,23.09692171620287,54.22755533369366,56.23598330901552,50.250851887973326,400.0,400.665021367016,391.3085740190784,369.73080718875,{}
192,595,19,0,19.8531666666664,4.019897487640204,138.70102740483296,22.20060950153428,34.22819373421972,34.169128644940606,36.179077388760994,44.21887236404082,104.51733467864186,70.37691372966619,68.36686142382882,68.42491752218461,71.22322146293573,25.63176742410019,34.63046266925426,2.01454661294747,4.847684212712011,24.1193849258404,24.202987897233665,24.17455935536873,50.92680947773658,52.41304559564594,48.280625625153405,399.9999999999999,400.2271795216751,392.45503812523583,366.604953623392,{}
193,596,19,0,19.886533333333063,8.039287524591677,138.6777097992058,22.108040692626982,36.23257923514137,34.226033340760985,40.196437622958136,44.261735585733085,110.54020346313504,74.39056439965401,70.3673103141108,70.25055685415703,75.88974896992215,28.80891624358196,37.37862020418538,1.4302298844331744,7.991774333832609,24.117862573774904,24.201460268368866,23.17556180081465,51.30147030366737,53.65989019473244,50.28572740059572,400.0000000000002,398.3556202715975,392.78522409146143,373.20503680293086,{}
194,597,19,0,19.91989999999973,12.12105753264662,139.40679981519912,24.32614344572453,40.40352510882239,36.41924537233882,40.45399798934943,44.44387761970455,121.22740895967436,80.83229847641324,74.77363338227906,77.3361536671739,83.42951987457377,35.95794593320261,40.835000668970565,2.1019751645682163,13.1550580524098,24.24211506529341,24.24211506529336,24.261280761827607,52.66746760659578,55.19456134377316,50.5447937626427,400.0,404.28264693772405,398.7123772220168,374.9590803674533,{}
195,598,19,0,19.9532666666664,22.330422711924754,138.28123493666274,26.468462809594648,44.66084542384917,34.5703087341658,42.82370755982427,42.63080699549239,136.02772339680502,91.37428247459074,80.2048504084994,82.67654968415218,92.42005987223251,44.92044770534096,48.478739416184,1.576156059836535,18.29296275507238,22.42250731996408,24.36046114028136,24.370716046411644,55.64308514271363,57.50581503161146,48.72092228056306,400.0,402.5674204531493,397.18779629388257,373.4939708984453,{}
196,599,19,0,19.986633333333064,22.39829045146457,138.26578696285486,28.38984310540502,42.584764658107474,34.47338091370602,40.75919887320809,42.633019364419376,135.865677718724,93.28091306061653,82.1277604120645,83.14168338011473,93.28091306061653,45.62653356225815,47.65437949835837,3.0417689041504445,17.236690456853125,22.30630529710396,24.334151233204352,24.334151233204352,56.77968621081004,58.807532146910376,52.72399433860937,399.9999999999999,402.990695845557,395.9236118724156,370.2526830001462,{}
197,600,19,0,20.01999999999973,18.426495225654865,134.68599511297944,22.38352586777924,34.65251911219281,28.56070515656745,34.83129511786788,49.00606249885603,124.19352426420986,89.55722396303797,80.41854968012694,80.24501460008207,88.04810923382604,35.245573153951,40.0327477758799,3.62628477611122,13.188666083413864,26.453257843739152,26.453257843739152,26.449139786156763,55.81845609169022,57.01524974717245,46.80191772353853,400.00000000000017,403.3605373509567,400.04657993326384,374.3987528393865,{}
198,601,19,0,20.053366666666395,6.043289018351327,133.19630789034085,22.158726400620967,30.28351830434664,26.264949535846647,30.483852473227262,50.40101431049132,108.85378526834732,78.58857901649846,75.56496694586497,75.38024066439493,81.07696082843938,27.840038291229348,30.60497360097497,1.4420567779275189,5.970830130096715,24.25694542715095,26.18758574618863,25.176404490677385,53.129662115711085,54.47637629675086,52.37517149237726,400.0,399.0910060170737,394.0308888565729,372.6313766844538,{}
199,602,19,0,20.08673333333306,2.0625682330610875,138.3305329517541,20.62568233061156,28.875955262856017,31.0071995482254,35.124271346884534,53.66642417521706,105.2111992000747,76.34289207886468,75.311301978968,77.48655126458345,80.47826398069037,25.32228551939829,26.228142756147577,4.41605402915377,5.13120447921915,24.83661045361828,24.75081879673373,24.74420557226199,56.16314867846751,56.37769381348704,49.50163759346746,399.99999999999983,403.1885675525189,401.6715936316016,379.803892917445,{}
200,603,19,0,20.120099999999727,2.0425983159341583,138.9567489179001,22.46858147527743,30.63897473901463,30.70698586540567,34.78419591243569,51.10579353694912,106.23475098147928,75.60373533068949,74.58221656629905,78.83945140832702,79.67537409820636,28.15865289621877,26.97641937767503,3.319807254092097,6.126119141543768,26.63222370820344,24.51117979121153,24.5044765661749,53.51099390498541,55.91128620021016,53.10755621429171,400.00000000000006,403.3394719922731,397.7825836544013,378.1455813308809,{}
201,604,19,0,20.1534666666664,6.462212631667599,135.12052392126634,24.52237276845619,32.696497024608405,28.60943489653236,32.76029512824787,49.087300638659976,112.46849419346766,79.80243915304064,76.67421740624843,76.49008999594605,82.31089199905432,30.327566354969804,33.047900352340775,3.5162395773878643,8.137243616590126,24.522372768456304,26.64438525556604,24.483005976338745,53.990908375768754,53.18312360799053,53.1710918165032,400.0,401.0166128053663,397.43921120903815,373.67573417918095,{}
202,605,19,0,20.18683333333306,8.101395633080179,131.78782090837137,22.27883799097074,34.43093144059107,30.38023362405092,34.49044908473808,44.60368288731225,109.38759266970392,74.96527418956134,70.9151894483133,76.00677927345498,79.00252863568971,32.911799811585524,31.88164093998728,2.208329075323036,11.017963563475403,22.27883799097069,24.30418689924076,23.285142770096456,51.034307317119726,51.38953451422259,50.633722706751534,400.0000000000001,397.0148836553437,393.4236996029935,370.068436039746,{}
203,606,19,0,20.220199999999725,4.05069781654003,139.98370077441973,24.304186899240765,34.490449084738195,32.405582532320935,36.51249669736352,42.724782025221415,105.49326820809938,71.00285168979885,68.93775805110693,70.12184870811654,74.95293858871639,29.92197090263596,32.89403845173058,3.2207265870664514,8.0754982808063,22.27883799097069,24.30418689924076,24.273858468699583,50.98694369083938,51.43689814050299,50.633722706751534,400.0000000000001,399.0297166630031,393.658226293211,372.07484088498575,{}
204,607,19,0,20.25356666666639,4.052100529707705,142.05487843017738,22.286552913392715,32.480056598759624,34.50239275698434,38.548235272300886,44.75691322855814,103.50717827095302,71.02743921508869,68.92816678316103,71.56656551170306,78.02121954402924,30.17668545769959,28.598357646875456,5.677268692666303,8.127210369169688,24.39687588562524,22.286552913392715,23.28622449253401,53.89871688307335,52.061260625695866,48.66739743285277,400.0,398.96731593600697,393.5599380065703,372.2036864079784,{}
205,608,19,0,20.286933333333057,4.072684190015007,138.53114192815482,22.399763045082192,32.64504718743961,32.581473520119594,36.71067918967597,44.84578271176941,103.933272719462,71.30105799218357,69.24624516152699,71.57681741071656,74.84903501311408,28.40237796613372,30.66232681383269,3.8725165150675593,8.145232305248442,22.492133593852987,22.399763045082192,22.399388839433243,50.49573206577429,51.6021653557936,48.91461567668669,400.00000000000006,400.9939704192031,397.5824311454504,375.5823088923162,{}
206,609,19,0,20.32029999999972,4.013972875945953,140.50338554418582,22.167889764009992,32.111783007567055,34.118769445540195,38.185521228851584,44.19929142724522,102.35630833662026,70.2445253290532,68.23638563579004,71.93524580106782,74.75898132156408,29.20582647851961,29.007464892368944,3.208790364200013,9.031286334148604,22.076850817702454,22.076850817702457,21.073001446346893,52.58915698709052,53.49928661766347,48.16767451135075,400.00000000000006,400.52329699340777,395.21329069088006,375.4513253392616,{}
207,610,19,0,20.35366666666639,10.094703525024672,141.38352160304203,22.20834775505431,32.30305128007898,34.32199198508394,38.41296667087774,42.39775480510377,107.00385736526174,74.70080608518276,69.64286180486454,69.7015430163616,76.20342125025047,30.56117494773628,34.03510266836986,0.5633396303730933,10.057959650618272,22.20834775505431,22.20834775505431,22.20497043053649,53.78719845832393,52.49621180538554,46.43563621511369,400.00000000000006,398.4685226324689,395.0164678005757,373.46037510268616,{}
208,611,19,0,20.38703333333305,10.039988590563516,142.58197811378065,24.095972617352302,32.12796348980307,32.12796348980307,38.204762145737455,44.17594979847911,110.439874496198,78.31191100639492,73.28713076904785,75.67936039963047,79.31646731998853,33.32484873873966,32.934748942865326,1.405506617488527,11.054739803675602,22.08797489923961,20.07997718112692,21.08259926232887,53.05357223891605,52.88146938779522,50.240086856036136,400.0,398.5761665431881,395.22373960143045,371.870118063326,{}
209,612,19,0,20.42039999999972,12.047986308676082,146.59758618609973,24.179494436653115,34.19496896363965,34.13596120791564,40.21012296939976,42.21573447765688,112.46579933633998,78.31191100639487,72.28673767005546,77.97788400090428,80.8234571663287,37.24488102809528,33.03389170668095,3.2012698111024065,13.046035036643277,20.079977181126896,22.08797489923956,22.093351330744724,52.63162947500706,51.5530654526284,48.23376037943483,399.9999999999998,398.7228236839543,393.2241992854513,373.6440802349505,{}
210,613,19,0,20.453766666666382,14.191537200401138,142.62318373654065,22.16788976400993,36.12575588351312,34.11876944553991,40.18987210038303,44.19929142724519,116.42251372405472,80.30454093072163,73.2616671182833,76.89555465390345,81.3061077002568,34.927271617715974,37.31962815442705,0.6065927711565564,13.055917308164226,20.06986437972944,22.076850817702425,22.075441597043607,53.36882567913949,53.51622205343921,50.21478463502354,400.0,400.844986355637,393.62525176856656,370.1679605492205,{}
211,614,19,0,20.48713333333305,11.97473004603332,143.91834396937375,21.953671751060927,35.92419013809975,33.98705076359473,40.11484918637791,43.95267892308066,113.77744100569484,77.86132812498475,71.87531601852879,75.11616386852972,79.77560348205452,33.504138805171124,36.3297890658481,1.1648599033812843,11.971530492174791,19.957883410055427,21.953671751060984,21.924739369580152,54.252485004999926,52.55709484859358,45.90313184312769,400.00000000000006,396.79564932539006,391.6477192203783,367.8590380178632,{}
212,615,19,0,20.52049999999972,10.227485438059524,142.76271170426708,22.06352407923693,34.15711601265883,36.159621538692505,40.31557686544314,42.31186821214241,108.60859081811664,74.45721788008899,69.34384766137964,70.45412357023667,74.81551508913128,30.387397567023868,35.91030849826109,1.5316113819617383,9.058712671750982,20.157788432721567,20.057749162942773,20.0419035855208,55.17217208627716,56.7322520812865,52.18870616372364,399.99999999999983,398.78114525439855,395.60064999579225,370.1999812943871,{}
213,616,19,0,20.553866666666384,10.227485438059563,140.91907096353933,20.157788432721528,34.15711601265885,34.157116012659074,38.32027596997273,40.31557686544328,104.78134374727952,70.65909758417963,65.38902399170672,64.1930916595121,71.43702464309092,27.58617246262213,36.76637684118259,1.1617628369890554,8.086780531982527,22.15450806968881,24.152728358326662,23.01884993681228,53.46387016496635,52.00597170286244,50.18447237230771,399.9999999999999,398.7811452543986,391.6143900899475,370.1999812943874,{}
214,617,19,0,20.58723333333305,7.1909064873202775,138.1328028542206,19.94398619776917,35.954532436601376,34.13860535212965,38.10293213018311,40.33421592789838,102.41581605638828,66.56632183010268,63.09345826975982,64.18147397780615,70.60649305374272,27.29774147503588,34.71915388360446,4.575392372257966,8.011231450298965,21.93838481754604,23.932783437323007,22.87696186128977,54.74436931012019,56.54245842762828,49.89983752438064,400.00000000000006,396.9003582063301,385.9045374118165,366.66572499266994,{}
215,618,19,0,20.620599999999715,7.302499339472816,138.45152404245422,20.253489082700582,36.512496697363645,34.66838895402556,38.95836410946145,40.9601467757914,104.00516686207692,67.59933842174082,64.07004999442586,65.07042586476246,73.76334722079002,28.700438762757926,34.27724677555341,3.5300619792334373,9.106869992029033,22.27883799097072,22.27883799097072,22.26123775829308,55.71058726184378,57.36638180584902,52.81463789667512,400.0000000000001,401.2542826675578,392.14960166810096,366.34189467893134,{}
216,619,19,0,20.65396666666638,10.173145278829274,136.1951150523244,19.951179342832493,35.96750006328028,33.97563414849869,38.37685971426672,38.73818310827702,104.43446685100837,68.5635855988887,63.12100856732332,63.828149342824986,71.06185170205549,29.28258358880793,36.65539560879256,2.735823328170568,9.969525687401074,22.036797856023373,21.94629727711579,21.89817909709336,55.11061060221391,55.80615890598608,49.91783476757961,399.99999999999983,397.0435072149581,388.0235108849752,364.5446819756559,{}
217,620,19,0,20.687333333333047,10.22748543805932,134.92470823436966,20.057749162942763,36.159621538692406,34.33333618142522,38.581850856186975,42.54891134536688,108.77515431674,72.65225746983992,67.44811891397705,68.64909731902924,74.39035993830282,29.16327073341245,37.142454087953865,2.273071322732904,9.971049977554912,20.15778843272164,22.063524079236977,21.03762659776703,56.54557836860124,59.5333783031212,50.14437290735691,399.99999999999983,398.9677402146179,391.8454689175178,368.7572316598458,{}
218,621,19,0,20.72069999999972,14.172995485588087,136.82630688729208,20.043642435171336,34.13309312090112,34.30918935303168,38.5547160235335,42.51898645676416,110.6946333979408,76.58665020881506,69.42267122778696,70.98789615111912,75.87558736152403,31.083388626170404,37.181365279151805,0.116373600247698,9.90339338108231,22.13892667958813,24.05237092220562,23.01869812900219,56.17353683958231,56.01061379923544,50.14917735069978,399.9999999999998,396.8894270388595,390.07420679610846,368.7866805192652,{}
219,622,19,0,20.75406666666638,8.291419087314699,137.68867092043453,24.131574129360576,38.26120922591577,34.42216773010863,41.015789126440175,46.42672091056794,116.91298700753865,78.65930805272662,74.57205015046611,71.40895332924595,79.53262634610678,29.06314053445942,41.43540116358668,0.2100949918153674,5.906003658809823,22.21182901431707,24.131574129360576,23.087105211711048,58.03290551700076,58.8499415962828,50.43473334731727,400.00000000000006,399.5953975447047,392.7769427788736,371.96320830577145,{}
220,623,19,0,20.787433333333045,2.846524502724827,137.8141244189898,22.1407645655945,30.45914230174892,30.45914230174892,34.746259654059706,52.37140957193627,106.98161624440829,76.59214100088725,75.50787231906929,70.0236713090377,76.6163192956999,20.973441746300523,33.65964641077562,0.3598100133565367,0.1392812954928786,22.232067074867143,22.140764565594484,22.08769211024344,57.37228696843584,58.41689668463232,48.68305927424134,400.0000000000002,403.4490351911351,396.52096540201023,374.9262877105553,{}
221,624,19,0,20.82079999999971,2.022938687920677,144.32501501676256,22.344088123718755,26.375893519739936,30.411436850788245,34.627132627179066,54.61934457385808,103.3482135335438,76.97806696718743,76.90996594701289,72.21658415240381,77.28706089960826,20.241296763153628,28.59540032834184,1.0964760929309705,0.9456381118927766,22.34408812371887,24.27526425504808,22.20799197745839,57.991402248347526,57.74774089436284,46.92171291711715,399.99999999999983,403.4735872367965,398.2364314805093,376.81543440348327,{}
222,625,19,0,20.854166666666377,2.02379294216976,144.59855407479753,22.3535236703007,30.62554445011118,30.625544450111303,34.93608286696269,56.66620238075331,111.47407190016352,80.97701114708181,79.88682768322826,72.4451220189369,78.5956800127675,18.991608461866463,35.940856063186175,2.464918279970334,0.2112787097117916,18.32622453119144,20.23792942169758,20.18885448356628,55.214169471334856,56.62269420274646,48.73938824205921,399.9999999999999,399.3851667942452,398.1320778514455,376.6647845405325,{}
223,626,19,0,20.88753333333304,6.135719910778938,148.16348504491134,22.5904138382992,32.97850359471158,32.97850359471136,39.34097632622555,51.130999256491386,112.65541189869822,79.79057555696923,76.59017918518748,70.10817348739602,73.8086048982857,21.014950005761875,40.64223823244015,5.188104849726983,0.1750204045690679,16.361919762077207,16.36191976207723,16.3019005398653,55.00641286457608,61.09462265208708,47.43898730305976,400.0000000000001,401.5863966656841,398.575240352712,378.6346299620993,{}
224,627,19,0,20.92089999999971,6.222713912870644,156.68393278147045,22.816617680525404,39.6282607927487,37.56604739032613,44.00123205174632,49.781711302964354,118.30432223717725,78.8210428963604,75.3204374018145,69.85258512549547,72.66991917973439,21.73548509388764,46.78257337433684,3.0644686204002483,0.9267546231048982,14.667077350582128,16.723041153161997,15.686866587089469,56.40846472631995,61.70950117048011,52.02162365536192,400.0,405.4697550693552,406.2806900893858,388.42009882875817,{}
225,628,19,0,20.95426666666637,10.46338031193425,155.00696771097236,20.52037707257527,39.20412535030545,41.24544745557658,45.88495805820633,47.19686726692316,117.12804025526056,78.00442869895095,72.64994183007309,66.60946688765807,71.31775249231998,21.95375031941171,48.08656034218609,6.624448350745183,3.339597928888111,11.050561244036343,12.312226243545163,11.241488110355476,54.929998721055085,57.77686908666459,47.374969285685154,400.00000000000006,403.4224718146725,400.7992646329392,383.2424210209449,{}
226,629,19,0,20.98763333333304,12.232219575932424,151.90437772558636,20.10964510780044,40.26953294626537,38.6816746992452,44.966533464438,46.29587972721679,118.80018577436137,78.5306745928983,72.3355888225318,68.03347219823195,71.0349489128597,23.3114691502766,49.124168896076185,6.703297996002107,3.101525938448958,12.232219575932367,14.0767515754603,12.005906858511535,54.626876206227394,53.62638396801805,50.63479257519568,400.0,401.33229406764025,392.4730972451046,372.9187156841546,{}
227,630,19,0,21.020999999999702,16.187771395515675,153.91157339496718,20.17860184914136,36.19695724459986,38.62168757392973,42.92284344985315,46.224084574592965,118.73484796022215,82.54176222731374,74.42508832721455,68.03193454602217,73.0910155869658,24.40602337788539,48.11902195564153,7.727226521441253,4.192800040782004,14.19761471714594,16.06276742906857,14.986661302795198,56.67787823723791,55.349580703656784,48.563314186547146,400.0000000000001,399.8084604902965,392.8046651180717,373.7237234744447,{}
228,631,19,0,21.05436666666637,10.283489934581274,152.5954551153366,22.184341318727256,38.53011325356248,40.53634017994599,43.11336822496072,44.41449440251071,115.23792936807496,76.7428872323655,71.55197445036663,66.26414818848491,71.71255919584678,24.63255292275778,46.208260511911135,5.614730922323474,4.502108042925556,16.259625244346292,18.15082471532233,16.058474548014317,57.21405074678245,55.86055074916408,53.05262784123179,399.99999999999983,401.5831196437613,394.2233754541148,370.6942204760022,{}
229,632,19,0,21.08773333333304,10.352405521541362,153.36296116257657,22.4251066458811,38.62859275291955,38.78832572689633,43.40229572875111,44.66602272589354,115.88577825875832,77.25718550583876,72.05444102610988,68.19438168542547,72.60587807477907,25.91754128745288,45.4016503404315,4.411496389353601,5.330558137135768,20.70481104308281,18.384910835080184,17.27836085830188,58.08470245982335,55.14370486692076,51.12098705419226,400.0,403.4323062439992,395.9450277032178,376.1763631918378,{}
230,633,19,0,21.121099999999704,12.21987159087879,149.75660245819176,20.089345145419784,38.38064000973751,36.65961477263655,42.61593654576986,46.20549383446545,116.67396334135913,78.37419740589885,72.03338531980717,68.00248954396886,70.51163504132069,23.30252716522068,47.25557353345823,4.971825337345081,3.2061303577273748,20.189542002123623,20.089345145419763,18.981221030892584,54.41128476664676,56.08404843154784,48.87948636351488,400.0,399.4598446482977,394.06365565961227,370.5599380338104,{}
231,634,19,0,21.15446666666637,8.33705910800152,148.72605298597622,22.33409377081172,36.45273348529668,36.62059039831705,42.89381523815173,46.550714862941554,113.30608761766608,76.86388708929877,72.54657099765859,66.07549782536853,69.83438751436643,21.865172175539897,45.13559080404343,6.459507357862435,1.3011541231146566,20.620780032191387,20.321188611023526,19.31491009423513,55.30772459319303,55.874449500149694,51.551950080478846,399.99999999999983,399.2787302864405,394.3380745720797,374.038004068391,{}
232,635,19,0,21.187833333333035,2.043531064038321,149.86204092332383,22.4788417044183,30.72100814409541,37.009921653224,41.074466042957965,53.13180766498856,106.34218363300668,75.63825961293043,75.44903434997377,69.93522594363742,72.2297194630471,18.121816163500284,35.166625164828815,1.8496427350343083,0.7726355728624412,20.537233021478983,22.4788417044183,21.46990364590414,55.37221605513986,54.48251448638911,51.738074117715584,400.0,399.2214587641256,395.9390876532668,375.9930561933028,{}
233,636,19,0,21.2211999999997,0.0,146.17632156064772,22.37070987760901,26.40731894833745,34.49044908473808,40.55758028152711,52.698006238910125,101.28769687764192,74.93790960599239,74.78688409314259,72.32163920271091,73.17454383304982,20.32366581471979,28.443785240549232,0.8470628178023389,1.1391534446307787,18.340314403491515,20.35450461748713,20.148411438622706,54.11855133876532,53.943296962668114,53.00845373294769,400.0000000000002,401.2542826675581,395.91297491647975,376.65500282749497,{}
234,637,19,0,21.254566666666367,2.026050264853936,146.1005623319618,22.378456614279017,30.45821410902936,34.50239275698439,38.70763596030866,52.677306886201045,105.52979939435798,75.07329614953652,75.00498876539598,74.5171418829002,73.29458584001941,21.335954017583845,31.62188226297542,1.8455894108874416,2.151228421607584,20.66173967201962,22.286552913392764,21.16550149237446,53.9805514318154,55.89667292209976,49.003618338781926,400.0,401.1835330682082,397.8184649026452,376.4966201199864,{}
235,638,19,0,21.28793333333304,2.852598329282801,143.4406030786619,22.18800784900908,32.33643863858666,36.3636363636364,38.53648134107862,52.483158077183376,108.94162279573445,76.64948166021351,75.51360208478127,73.13178182931154,74.57601513825159,21.55867624877453,35.04595182742446,1.4442333089400563,2.247879263108416,20.2715199239088,20.17091622637197,20.149384068276618,54.89251278253619,55.59133535137812,50.5884005309238,400.0000000000002,401.03109318189416,395.8282134599348,376.2889693171354,{}
236,639,19,0,21.3212999999997,2.0181182630510657,143.34323380566963,24.21741915661335,30.338969975054503,36.38214438690539,38.39731864551281,48.602723871436,104.9615528681882,74.7793836387127,73.4758258341983,72.4908323183871,71.52929102914288,23.745379399018702,32.79793885385459,1.0905285353624097,2.192783184008136,22.29084479077837,22.199300893562288,22.18580633231784,55.81629922929835,56.449509346605566,50.61414854151371,399.99999999999983,402.7448143875972,397.2157137861052,375.5272903954415,{}
