,video_id,frame_seq,gap,time_seconds,m1,m3,m4,m5,m6,m7,m8,m9,m10,m11,m12,m13,m14,m15,m16,m17,e1,e2,e3,b1,b2,b3
0,19,204,1,6.806800000000008,6.789044011935244,41.29614253234512,3.9943232187113153,6.657205364518859,12.05671170387853,11.982969656133925,9.414710114005494,26.761634359069316,20.148359504209484,16.643013411297147,14.64585180194149,13.314410729037718,4.660043755163201,12.648690192585832,4.660043755163201,1.9971616093556577,3.9943232187113153,4.2103863606742165,3.9943232187113153,13.314410729037718,15.977292874845261,12.056711703878523
1,19,205,0,6.840166666666675,5.539487393037124,37.83395224184578,4.030569111753493,6.7176151862557845,10.831829017095655,12.091707335260324,9.780995349968208,25.843181617229018,19.236322441751472,16.122276447013746,18.809322521516037,14.778753409762544,7.389376704881329,8.732899742132531,0.6717615186255443,3.3588075931278354,5.374092149004582,5.539487393037124,5.374092149004582,10.748184298009164,14.778753409762658,13.43523037251147
2,19,206,0,6.8735333333333415,3.930730692482598,38.087317795088104,4.143353952325186,6.680957501215426,9.264821092241585,11.792192077447524,7.969900457641876,22.618310786453893,15.939800915283866,13.757557423688695,15.722922769930051,13.102435641608281,6.5512178208041405,7.861461384965082,1.3102435641609418,3.9307306924824843,3.9307306924824843,5.240974256643426,5.240974256643426,10.481948513286625,11.792192077447453,14.412679205769209
3,19,207,0,6.906900000000008,2.771103947132474,40.27644919028986,4.156655920698654,8.427983628589338,11.084415788529782,12.546706749548521,8.763000106021323,23.918335495871528,15.490941996265315,13.855519735662142,16.626623682794616,13.855519735662142,6.927759867831014,8.313311841397422,1.1368683772161603e-13,2.77110394713236,5.542207894264834,5.542207894264948,5.542207894264948,11.084415788529782,12.469967762095962,13.924625000939114
4,19,208,0,6.940266666666675,2.8467047115477726,38.53580288157642,4.270057067321886,7.2577014368095405,11.475433558897361,11.38681884619146,9.002070714423834,23.170497644679674,15.913563117224838,14.233523557739318,17.080228269287204,14.233523557739318,7.116761778869773,7.116761778869545,1.1368683772161603e-13,4.270057067321886,4.270057067321773,4.270057067321773,4.981733245208829,11.386818846191431,11.386818846191431,12.889003768808127
5,19,209,0,6.973633333333342,2.9797690023617633,40.254462530346906,4.711428474315519,7.449422505904522,10.429191508266257,10.535074339697482,7.596950144520774,22.546043651841057,15.193900289041654,13.408960510628049,14.89884501180893,13.408960510628049,6.704480255314138,8.194364756494906,0.7449422505904977,2.2348267517713793,5.959538004723527,6.142951168339462,5.214595754133143,11.919076009447167,13.408960510628049,13.408960510628049
6,19,210,0,7.0070000000000086,1.5108222545878789,39.31042215642577,4.777639464168231,7.55411127293894,10.575755782114612,12.086578036702406,7.703712157713378,21.366253227731605,13.92909294323972,12.841989163996345,15.108222545877993,13.597400291290228,6.798700145645171,6.798700145645057,0.7554111272938826,2.2662333818817615,4.77763946416824,4.532466763763409,4.532466763763409,13.597400291290228,13.597400291290228,12.086578036702406
7,19,211,0,7.040366666666675,0.0,37.465699059298736,4.667035434652917,7.778392391088232,11.000308012936598,10.889749347523491,9.838974596144656,22.00061602587315,14.342646891181158,14.001106303958636,17.11246326039395,14.001106303958636,6.222713912870631,6.222713912870518,1.5556784782177147,3.1113569564353156,4.667035434652917,4.667035434652917,4.667035434652917,10.889749347523434,12.445427825741035,12.542280864871431
8,19,212,0,7.073733333333342,1.6076837984062422,38.61789004974957,5.083942560314471,8.038418992030984,11.253786588843411,11.253786588843411,8.197611059760286,22.736082317135434,14.8221122526755,13.665312286452718,16.07683798406208,14.469154185655839,7.2345770928278625,7.2345770928278625,0.8038418992031211,2.4115256976093633,3.2153675968123707,3.2153675968124844,4.0192094960156055,11.253786588843468,12.861470387249597,11.368041158567722
9,19,213,0,7.107100000000009,1.6609095970748058,39.89641760773808,4.982728791224417,8.469010445797965,11.74440439029406,11.74440439029406,8.944271909999067,23.780606413195372,15.312829869775465,14.117731575135736,16.609095970747944,14.948186373673138,7.474093186836626,7.474093186836626,0.8304547985374029,4.1522739926870145,4.982728791224417,3.3218191941496116,4.1522739926870145,11.62636717952364,13.287276776598446,11.74440439029406
10,19,214,0,7.140466666666676,1.7177668430601898,39.545962516698076,5.153300529180797,8.758926652566817,10.30660105836148,12.02436790142167,7.682086861155747,22.917868160604463,14.165068268242274,12.883251322951764,15.459901587542163,13.74213474448186,7.729950793771081,7.729950793771081,0.8588834215300949,2.5766502645902847,5.4320557131874345,3.4355336861204933,3.4355336861204933,12.02436790142167,13.74213474448186,12.14644583225302
11,19,215,0,7.173833333333342,3.4953499085937665,36.74276178620026,3.907920000381644,6.990699817187533,10.486049725781243,10.486049725781243,8.911428695377131,22.987075064841353,16.112766938037364,13.981399634375066,15.729074588671892,13.981399634375066,6.11686234003912,7.864537294335946,0.8738374771484132,2.6215124314453533,5.243024862890707,3.907920000381669,3.4953499085937665,12.23372468007824,12.23372468007824,10.4860497257813
12,19,216,0,7.207200000000009,1.7755520605710444,37.32884438274001,5.326656181713247,9.053574604251867,8.87776030285545,10.65331236342655,7.3207886895177365,23.353741150511524,14.314958357846704,13.316640454283174,15.979968545139855,14.204416484568696,7.989984272569814,7.989984272569927,0.8877760302855222,2.6633280908565666,5.326656181713247,5.326656181713247,5.326656181713247,12.428864423997538,12.428864423997538,10.65331236342655
13,19,217,0,7.240566666666676,4.041600079047224,34.531446212455165,5.42237550877087,7.229834011694493,10.84475101754174,10.99434085665273,5.715685645476757,21.98868171330546,14.90468464294973,12.652209520465362,16.26712652631261,12.652209520465362,9.037292514618116,7.229834011694493,1.8074585029236232,3.6149170058472464,5.42237550877087,4.041600079047224,4.518646257309001,10.84475101754174,10.84475101754174,10.994340856652785
14,19,218,0,7.273933333333343,3.693584275765488,35.089050619773104,3.693584275765602,7.387168551531204,11.080752827296749,11.080752827296749,8.259105521236215,22.46719603512558,15.229038106101974,12.927544965179436,14.774337103062294,14.774337103062294,7.38716855153109,7.387168551531204,0.0,3.693584275765488,4.1295527606181075,3.693584275765488,3.693584275765488,11.080752827296806,11.080752827296806,11.080752827296749
15,19,219,0,7.3073000000000095,0.0,30.23051450157398,5.624450764046969,5.92869166728734,7.730068195417129,9.374084606744873,8.384436163006393,19.573663306975227,13.648873209703195,13.12371844944289,18.748169213489632,14.998535370791728,9.374084606744873,1.8748169213488382,3.7496338426979037,5.624450764046969,3.7496338426979037,3.7496338426979037,3.7496338426979037,11.248901528093938,13.12371844944289,11.248901528093882
16,19,298,1,9.943266666666633,5.720331997514006,44.24972986296618,2.19364718333829,4.387294366676571,10.497467046757881,11.185449793779771,8.439129213463094,20.694826138002515,16.327574016345093,13.180150816107727,7.63061363037815,14.5675351125401,2.7747685928647883,9.017997926810551,3.4684607410809747,0.6936921482162006,4.387294366676575,4.219564606731542,3.815306815189061,16.648611557188687,5.549537185729562,12.79105120030845
17,19,353,1,11.778433333333256,4.253663450088197,33.450134317380154,3.5076607401086077,7.0153214802172155,8.549757721498871,9.396649690367871,9.511480627803586,24.19732635810227,17.205003892317077,14.887822075308804,11.910257660247055,7.656594210158801,0.42536634500885384,14.037089385291154,6.380495175132296,2.1268317250440987,1.9022961255606479,1.9022961255606985,1.7014653800353017,10.208792280211753,17.014653800352903,16.36417002630814
18,19,354,0,11.811799999999922,3.6347030429946776,32.91363591707778,3.634703042994788,7.982729259366749,8.859417346683792,8.990030052683535,9.855972439396453,25.073717860014167,17.116507274033566,14.986264564021326,12.341629640958729,7.933904769187734,0.4407724871771279,14.545492076844198,6.611587307656407,2.203862435885469,1.9711944878793233,1.9711944878793233,1.763089948708398,9.696994717896132,16.749354512729724,16.841893087189934
19,19,355,0,11.845166666666588,4.670340516162912,34.000592178025016,3.663716527236545,6.476597001885526,9.204973852443091,10.11676792699068,9.340681032325778,24.09433362331646,17.61824862362197,15.112830674850784,10.991149581709635,8.24336218628224,0.4579645659045468,14.19690154304169,6.869468488568543,2.2898228295228478,0.9159291318091505,1.2953194003769943,1.3738936977136973,10.075220449900542,17.40265350437369,16.588182095543264
20,19,356,0,11.878533333333252,3.801429606348563,33.47902889455637,3.8014296063485062,7.662026324598684,9.5509736815622,9.550973681562425,9.922022565581491,24.99999999999999,17.342395178297387,15.205718425394082,12.35464622063273,8.553216614284167,0.950357401587155,14.255361023806927,6.652501811109914,1.9007148031742531,1.9007148031742531,2.688016652852457,1.90071480317431,10.45393141745842,17.106433228568335,16.267498359925213
21,19,357,0,11.91189999999992,3.08753760547216,33.42535756161823,3.9054604778858106,7.871707249627157,8.841362192257426,9.812348011488801,9.957009593152542,24.719590421761428,16.854675204912958,15.133659351807466,12.69274655312887,8.78728607524306,0.9763651194714384,13.669111672600309,5.8581907168286875,1.9527302389429337,0.9763651194714384,1.3807887937845356,1.4645476792071577,9.763651194714441,16.598207031014624,15.743414499254314
22,19,358,0,11.945266666666583,3.0161799605850206,34.31618165619572,4.0215732807799895,8.105740085829783,9.104223729676445,9.10422372967667,9.269268412603177,24.31722025748935,16.211480171659566,14.57820314282759,11.059326522145057,8.043146561560036,0.5026966600975129,14.578203142827533,6.535056581267497,2.513483300487451,1.4218408689391213,2.8436817378782027,1.5080899802925387,9.048539881755062,16.086293123120072,17.209561539730416
23,19,359,0,11.978633333333253,3.282483968284844,32.44515815803674,4.152050289107251,7.339857288138224,8.368724903670044,9.39960362019521,9.570003057334983,24.232647494889417,16.897620440590142,15.05118229801377,12.456150867321696,8.304100578214502,1.0380125722768412,13.49416343959848,6.22807543366082,2.0760251445535687,2.321066673110354,2.321066673110354,2.0760251445536255,9.342113150491286,16.608201156428947,16.737449807340084
24,19,360,0,12.011999999999915,5.750434470193783,36.92625011925893,4.18405565537671,7.111527144241498,10.153461651336132,11.244311708957975,5.578740873835727,22.488623417915836,15.404801743213486,12.552166966130358,2.7893704369178067,9.762796529212437,0.6973426092293948,16.038880012277673,7.670768701524139,3.4867130461473153,3.118610955688303,3.1186109556884047,2.7893704369178067,20.92027827688389,11.157481747671454,18.34421997621309
25,19,361,0,12.045366666666585,3.360619486480914,31.861949679355877,3.5424039754749277,7.921056092927621,7.921056092927726,9.031393497987795,10.32779358655182,25.048578727605666,17.13586433932621,15.122787689164,13.442477945923542,7.84144546845539,0.5601032477467811,14.00258119367038,6.16113572521499,1.680309743240457,1.120206495493619,2.504857872760468,2.240412990987238,10.081858459442628,16.8030974324044,16.951800308317154
26,19,362,0,12.078733333333249,3.4044779420569853,33.08557851199328,3.588634846900905,7.9437818647995755,8.02443146409499,9.149259555753478,10.462578580222322,25.197225902358795,17.359499460144598,15.320150739256292,12.483085787542166,9.07860784548518,0.5674129903428025,14.185324758570687,6.241542893771111,1.702238971028521,2.537548035445876,2.5375480354459015,1.7022389710284642,10.213433826170842,17.022389710284756,16.04886292818999
27,19,363,0,12.112099999999916,4.643321720367965,32.68928171327819,3.482491290276016,7.06105584419358,9.286643440736043,9.358914129469783,9.572452953400976,24.624932067772452,17.566551990100795,15.090795591196013,12.769134731012002,9.286643440735986,1.741245645138008,13.349549946057948,6.384567365505973,1.741245645138008,2.3216608601840107,3.283324275703014,2.3216608601840107,9.286643440735986,16.25162602128796,17.451107900607095
28,19,364,0,12.14546666666658,3.6495918261172733,33.404787506077284,3.8470075668212877,7.399866803596303,8.602170429368377,8.602170429368384,10.031768392981583,24.81245325069433,17.418067573447733,15.20663260882202,13.381836695763354,7.299183652234547,0.6082653043528694,13.99010200011628,6.690918347881677,1.824795913058665,1.2165306087057957,1.7204340858737732,1.2165306087057388,9.732244869646081,17.031428521880628,16.000961936452978
29,19,365,0,12.178833333333246,3.739206931837998,33.85995887898599,3.941470182432683,7.581569272671792,8.813395259207978,8.813395259207978,10.278096757339814,25.421718814404368,17.845765256206292,15.580028882658269,12.464023106126604,8.724816174288605,0.623201155306333,14.333626572045603,6.855212708369663,1.869603465918999,1.7626790518415953,1.7626790518415953,1.246402310612666,9.971218484901271,17.449632348577268,17.626790518415945
30,19,366,0,12.212199999999912,4.057872147146673,33.75603330207988,3.8496355316223685,7.699271063244794,9.073677965022982,9.073677965022764,9.341923234629974,24.683072649404394,17.12018134407682,14.756936204552517,12.832118438741304,7.699271063244794,1.283211843874085,14.115330282615503,6.416059219370709,1.2832118438741986,1.2832118438741418,2.869348912435428,2.5664236877482836,10.26569475099302,17.964965814237814,15.451916782636932
31,19,367,0,12.245566666666578,5.428429365892347,35.935845457326806,2.633175018444547,6.582937546111339,9.216112564555942,10.532700073778187,10.614667847540359,25.153369045629645,18.619359115931537,15.799050110667281,13.165875092222734,7.8995250553336405,0.0,14.482462601444979,6.5829375461113955,2.633175018444547,2.633175018444547,1.8619359115931515,1.3165875092223018,10.532700073778244,18.432225129111885,17.166200913563078
32,19,368,0,12.278933333333244,4.055165007458072,32.69378550200799,3.022541538884863,6.8924551679558315,8.110330014916144,9.46205168406891,10.897928500669263,24.666605761542463,17.77912271340316,15.544799195255905,13.517216691526869,9.462051684068797,0.6758608345763832,12.8413558569506,4.731025842034455,2.027582503729036,3.0225415388848123,1.911623117069239,2.027582503729093,10.813773353221507,17.57238169898494,16.276884323305115
33,19,369,0,12.31229999999991,2.7775098981516066,34.967956126162996,4.391628750910509,7.081288584935897,8.447466568004163,9.721284643530453,9.819980418978613,23.97362742593558,16.89493313600866,15.276304439833552,12.498794541681946,8.332529694454706,0.6943774745378732,13.193172016219819,6.249397270840973,2.0831324236136197,1.9639960837958386,1.9639960837957178,1.3887549490757465,9.721284643530396,18.05381433798499,16.722824066061712
34,19,370,0,12.345666666666576,3.1556577226021147,32.733770043408356,2.822506072584247,8.46751821775274,8.584317089927321,9.97906591932254,11.377885726656041,25.558879541981998,17.168634179854642,15.523783399213357,14.112530362921234,9.878771254044864,0.7056265181461185,13.406903844775115,4.939385627022375,0.7056265181460049,1.4112530362921234,3.1556577226022164,2.116879554438185,9.878771254044864,16.93503643550548,15.778288613010716
35,19,371,0,12.379033333333242,3.162277660168405,31.400636936215175,4.242640687119206,7.071067811865419,7.211102550928037,8.602325267042678,10.00000000000008,24.207436873820377,17.20465053408528,15.556349186104057,12.727922061357845,8.485281374238639,0.7071067811864395,13.435028842544398,6.363961030678979,2.1213203435596597,1.4142135623730496,2.000000000000016,1.4142135623730496,9.899494936611632,16.970562748477107,17.029386365926307
36,19,372,0,12.412399999999908,4.355150288546611,32.23334312247833,2.9034335256976647,5.985581551705618,8.830448329662929,8.710300577093221,10.568657561650195,23.632236738767123,17.660896659325633,15.24302600991291,13.065450865639605,8.710300577093108,0.7258583814243593,12.339592484215359,6.532725432819916,0.725858381424473,1.4517167628488892,2.053037534745265,1.4517167628488323,10.162017339941997,17.420601154186272,16.034735740368117
37,19,383,1,12.779433333333232,0.8360958521785733,43.605424724015315,3.4473115116726816,6.688766817427847,12.569276746527388,12.56927674652739,14.433252220513484,24.604526683316465,18.04882887330942,17.558012895748092,12.541437782677207,15.88582119139113,0.0,10.033150226141771,2.5082875565354357,2.5082875565354357,3.4473115116726816,3.3443834087139237,3.3443834087139237,11.705341930498726,6.688766817427844,13.403636164329644
38,19,384,0,12.812799999999898,0.8979540974006568,46.01521943104484,3.591816389602428,7.2395373793844815,12.571357363608513,14.395299273961085,14.617633655117151,25.54044132117102,18.3147418598252,17.959081948012184,12.571357363608527,17.06112785061157,0.4489770487003,10.326472120106999,2.244885243501514,2.244885243501514,3.702359590538863,3.5918163896024353,3.5918163896024424,10.775449168807306,6.2856786818042565,13.49921008039761
39,19,385,0,12.846166666666564,1.880028087829487,45.364808960480175,3.7600561756589173,6.580098307403063,13.193725832497545,13.193725832497543,14.22499371638993,24.727908741092214,18.251771252110224,17.86026683437977,12.220182570891424,16.920252790465057,0.47000702195737176,9.870147461104608,2.3500351097868304,2.3500351097868304,2.8200421317441737,3.8757771926244167,3.760056175658903,11.280168526976695,6.580098307403063,13.293806097253853
40,19,386,0,12.87953333333323,1.379868311652165,40.30065984012078,2.9271427209411343,6.829999682195933,11.749155306611918,12.721757244487197,13.79868311652203,24.56785682000167,17.805114063775793,17.07499920548983,11.708570883764452,16.587142085333,0.48785712015686045,10.244999523293899,2.439285600784274,2.439285600784274,3.0854793448521827,3.9028569612548125,3.9028569612548267,11.708570883764466,7.805713922509639,13.659999364391865
41,19,387,0,12.912899999999896,1.5003282327053429,45.81531765095067,3.1826768020546012,6.3653536041092025,12.774834575222895,13.832342841958106,13.953859168926948,24.60721261692066,18.31384001437252,17.50472241130035,11.6698149408669,15.913384010273035,0.0,10.608922673515337,3.1826768020546012,3.1826768020546012,3.1826768020546012,3.1826768020546012,3.713122935730368,11.669814940866885,6.365353604109217,14.890332547544904
42,19,388,0,12.946266666666562,1.0956642697819916,43.9496601699219,3.286992809345861,7.669649888473714,12.102007413374613,13.193544931182794,14.41121345443514,25.413743198067774,17.8361220813371,17.530628316511326,13.147971237383501,16.434964046729363,0.5478321348909674,10.408810562928608,1.6434964046729306,2.7391606744548938,2.449979787750075,2.1913285395639264,2.191328539563898,10.956642697819575,6.573985618691751,13.147971237383445
43,19,389,0,12.979633333333227,1.1327854494008989,43.17978434946216,4.531141797603681,6.890464886482929,12.51202424364987,12.51202424364987,12.664926343915507,24.216187015901557,17.32828533362777,16.991781741013767,12.460639943410087,15.85899629161284,1.6991781741013767,9.628676319907811,1.6991781741013767,2.831963623502304,3.3983563482027535,2.2655708988018546,2.831963623502304,10.195069044608232,4.531141797603652,12.460639943410115
44,19,390,0,13.012999999999892,0.0,36.66666666666674,5.0,5.0,10.0,11.666666666666629,8.333333333333343,18.333333333333343,13.333333333333343,13.333333333333343,15.0,15.0,6.666666666666657,3.333333333333343,1.6666666666666572,1.6666666666666572,5.0,5.0,5.0,13.333333333333336,13.333333333333336,15.0
45,19,391,0,13.04636666666656,1.8036325667702857,44.928193993134386,3.8260824561963602,6.376804093660581,12.817217600308616,14.086820670071797,14.258967432624017,25.79257633786197,19.50926910476024,18.492731871615717,12.753608187321191,17.855051462249662,1.2753608187321106,10.202886549856942,2.5507216374642496,2.5507216374642496,2.5507216374642496,3.8260824561963602,3.188402046830305,11.478247368589052,5.101443274928471,14.086820670071797
46,19,392,0,13.079733333333223,1.3258122674025685,45.25275202880316,4.192586514784346,6.760342622846414,13.32424838435197,13.324248384352197,13.520685245692835,25.742617766749596,18.98274280816674,17.898465609934732,11.932310406623145,15.90974720883085,0.6629061337012558,11.269404272921918,3.3145306685064497,3.3145306685064497,2.964606355315297,2.651624534805137,3.3145306685064213,10.606498139220577,5.3032490696103025,13.32424838435197
47,19,393,0,13.113099999999893,1.9343771039196151,41.23899632127988,4.103433502660607,5.471244670214162,12.386056918442621,12.310300507981992,12.38605691844279,23.413155816648644,17.9907470240834,17.09763959441932,12.310300507981935,16.413734010642543,2.051716751330275,8.890772589098049,2.051716751330332,2.051716751330332,2.7356223351071094,2.735622335107081,2.7356223351070525,10.942489340428352,6.839055837767717,8.2068670053211
48,19,394,0,13.146466666666557,0.0,43.54163827029602,4.204964789407541,7.147065838386549,12.69252522013072,12.692525220130726,12.692525220130676,23.992467711267793,16.878160404047392,16.819859157630106,12.614894368222565,15.41820422782763,1.4016549298025325,9.811584508617614,1.4016549298025325,2.803309859605008,1.401654929802504,2.8033098596050365,3.5041373245062744,11.21323943842009,5.606619719210045,14.086457708246268
49,19,395,0,13.179833333333224,1.5089291007086558,45.49364934963491,4.5267873021259675,6.0357164028345665,13.580361906377902,13.66393415306022,15.38811785828273,26.0481549294319,20.131625158238972,19.616078309212355,13.580361906377789,18.1071492085037,0.7544645503543848,9.80803915460615,2.263393651062927,2.263393651062927,1.508929100708599,3.0178582014173116,3.0178582014173116,10.562503704960477,6.0357164028345665,13.66393415306022
50,19,396,0,13.213199999999889,1.5339299776947541,44.721359549995896,3.42997170285013,6.324555320336744,12.366938848016952,13.890326722960479,13.890326722960417,24.97057091387187,18.661063584845483,17.64019474348953,12.27143982155792,16.873229754642125,0.7669649888473486,9.970544855015817,2.300894966542103,2.300894966542103,1.5339299776947541,3.0678599553894514,3.0678599553893946,12.27143982155792,6.13571991077896,13.890326722960474
51,19,397,0,13.246566666666554,2.2377469175267195,42.985714574568036,3.1646520399248743,6.329304079849749,12.658608159699497,12.757120214776561,12.757120214776624,23.944937670833266,17.69094271601353,16.61442320960566,11.076282139737089,15.823260199624428,0.791163009981176,10.285119129755856,2.3734890299436984,2.3734890299436984,1.5823260199624656,1.5823260199624087,2.3734890299436415,9.49395611977468,4.74697805988734,11.076282139737032
52,19,398,0,13.27993333333322,0.0,42.762333795889944,3.6534327340358854,6.535459155621709,13.172639054025069,13.070918311243531,14.795274927180268,24.724860767845033,18.267163670179464,17.97251267795974,13.070918311243418,17.97251267795974,0.8169323944526923,8.9862563389799,2.4507971833581905,2.4507971833581905,2.3106337435540496,3.267729577810826,2.4507971833581337,11.437053522337976,6.535459155621709,14.795274927180305
53,19,399,0,13.313299999999886,1.7218361809347016,43.35472724790904,3.85014274668862,5.165508542803991,12.175220396312627,12.05285326654257,13.881887091041285,24.350440792625044,19.250713733442765,18.079279899814026,12.052853266542684,17.218361809346675,0.8609180904673508,9.470098995140688,2.5827542714019955,2.5827542714019955,1.7218361809346447,1.7218361809346447,2.5827542714019387,12.05285326654274,6.887344723738693,12.052853266542797
54,19,400,0,13.346666666666552,0.0,44.530619132829216,3.970255105026781,7.102208242284348,12.555049023795789,12.555049023795565,14.314958357846697,25.110098047591283,18.107149208503714,17.7555206057109,12.428864423997595,15.979968545139798,0.0,10.65331236342655,1.7755520605711013,3.5511041211422025,1.7755520605711013,3.9702551050267303,2.6633280908566235,12.428864423997595,7.102208242284348,14.641577379035253
55,19,401,0,13.380033333333218,1.7786387594901498,41.2552183387406,3.557277518980186,7.114555037960486,10.819037201162557,12.576875281166911,12.576875281166854,23.394340336063557,16.39823911658332,16.00774883541095,10.671832556940672,16.00774883541095,0.8893193797450181,9.782513177195653,2.667958139235168,2.667958139235168,2.5153750562334274,1.778638759490093,2.667958139235168,10.671832556940672,5.335916278470336,14.339844120123347
56,19,459,1,15.31529999999984,4.483028733876136,40.7882913788989,3.960541636154659,6.454893140081125,10.443464667715721,11.483009764309362,11.397314463976144,26.280588774598467,19.8274461144418,17.5749035104362,13.366828022021906,17.327369658176536,3.960541636154659,10.891489499425234,2.970406227115973,0.0,4.483028733876136,4.975368854453083,4.703143192933624,15.842166544618536,10.396421794905919,12.46548628513127
57,19,460,0,15.348666666666505,5.5137279686827005,39.19511658633373,3.5298026295444114,6.565812428652151,10.589407888633142,11.08380508268214,11.990942673736452,27.56863984341352,21.019374495009956,18.220415841886904,14.476494778485488,18.96920005456718,4.742300013641824,10.732573715084044,2.7455421131610365,0.7487842126803059,4.024594213656816,4.602299558483297,3.993515800961518,15.474873728725854,10.48297897752397,12.569269817012739
58,19,461,0,15.38203333333317,1.500713008058483,37.73065626650543,5.027326357995316,8.066090051461257,10.054652715990574,10.611643446130097,12.505941733820663,27.05448850155326,19.01561237084273,18.25867493137818,16.007605419290456,20.009506774113078,5.502614362881104,9.00427804835087,0.0,0.5002376693528277,3.641785203646158,4.1250654973090075,3.7517825201462074,17.008080757996098,12.505941733820649,13.543421024260796
59,19,462,0,15.415399999999837,0.5004694102113376,35.20758727359845,4.531943259320229,7.077706274737545,8.566656392857555,9.62672131653345,12.511735255283725,24.568919586401865,17.52357746190096,17.266194652291517,15.514551716551807,19.017837588031256,4.754459397007821,7.256806448064538,0.7507041153170348,0.25023470510569723,3.6434723025620155,4.0349133802628465,4.003755281690786,16.515490536974497,13.012204665495062,14.048845820178535
60,19,463,0,15.448766666666502,0.4959436513062201,35.79394066537309,4.463492861755782,7.455667897058519,8.981921538783556,9.96834402142372,12.408506191302774,24.306299036685154,16.862084144410773,16.862084144410773,15.87019684179839,18.349915098329376,4.711464687408892,7.191182943939879,0.7439154769593017,0.24797182565311005,3.136623058455853,3.506851189250307,3.4716055591433985,15.870196841798375,12.39859128265499,13.472882308175281
61,19,464,0,15.482133333333168,0.708374133660924,35.15206268987765,5.509857688816453,7.530120330784964,9.530199278945314,10.129997791586458,12.031938495923733,25.550614104655512,18.032261527035672,17.7818134502713,16.529573066449387,19.034053834093214,5.760305765580853,7.7638903796959085,0.7513442302931708,0.7513442302931708,3.54187066830451,3.506273074701383,3.506273074701383,16.028676912920616,12.522403838219233,13.06177363536602
62,19,465,0,15.515499999999834,1.995117934283229,34.50602466069323,4.987794835708144,8.537729508290381,9.489926886424488,10.08719079087665,10.973148638557888,26.45412780076624,17.95606140854926,16.95850244140766,16.459722957836846,18.95362037569089,6.73352302820598,8.728640962489237,0.7481692253562358,1.745728192497836,3.033957153546051,3.0339571535460275,2.992676901424872,14.963384507124402,12.46948708927033,13.974729478113954
63,19,466,0,15.5488666666665,2.0697966719444607,34.26858577428028,5.019994295281748,9.551190536434353,8.592846104944316,9.590685634771534,10.553933619414227,27.149770251262478,17.59864233644416,16.56598117442971,15.56198231537337,18.573978892542385,6.525992583866241,10.039988590563468,0.0,1.5059982885844931,3.0535433201650544,3.5496720077114934,3.011996577169043,15.059982885845173,13.553984597260651,13.051985167732482
64,19,467,0,15.582233333333166,1.5713290036330072,34.37585224111944,4.472080744467007,8.461865650794259,7.965878691507863,8.999203002221567,11.439447818662039,25.8816538006501,17.419796139685705,16.646078326627162,15.90073153588267,18.38522083836432,5.714325395707817,8.695712558685841,0.24844893024814496,1.24224465124081,3.478285023474328,3.5135984671404406,3.478285023474342,14.906935814889977,12.919344372904646,12.928896569679468
65,19,468,0,15.615599999999832,0.7095768600200354,33.676879590031874,5.017466094932388,8.043610051180716,7.5928039729464984,9.087017581431766,12.052367149220187,25.633310612561765,17.589779200136388,17.31025802751668,16.055891503783585,18.06287794175651,5.017466094932388,8.529692361385003,0.5017466094932388,0.0,3.5122262664526573,3.5122262664526573,3.512226266452643,14.550651675303868,13.045411846824152,13.083950813642328
66,19,469,0,15.648966666666498,1.4472628744362828,34.88849224507609,5.6285316597039525,8.71367639144979,7.7431945163822276,8.758631168185163,12.802347012138757,28.21698700716798,19.504518578010114,18.932333764458747,17.397279675448573,19.955703157132177,5.884374007872282,9.466166882229402,0.255842348168386,0.2558423481683292,3.5817928743570633,4.125333907726529,3.837635222525421,16.373910282775114,13.30380210475478,12.37600172317959
67,19,470,0,15.682333333333164,4.1434360284638725,36.20927640886249,5.676542255878945,9.26500462006696,8.286872056927741,9.378342224030266,11.864995128535625,30.94268279158696,21.682729950571265,19.52933954695945,17.98754958272582,22.09898948734886,8.222879809246109,10.792529749635463,0.5139299880778765,2.569649940389411,3.634033796249904,4.11143990462304,3.8544749105841163,16.445759618492175,12.848249701947012,13.96150192825077
68,19,471,0,15.71569999999983,4.649905549752769,37.25944598481817,5.671750534003895,9.299811099505572,8.78963853354781,10.38481727309875,10.832213487748763,30.452530681662594,21.15329989014914,18.742610057653025,17.4588696427453,22.08033513641317,8.986182904354195,10.526671402243494,0.25674808298154517,3.337725078760144,3.1234752377721238,3.630966210657982,3.337725078760144,16.43187731081909,11.29691565118813,13.000684531442609
69,19,472,0,15.749066666666495,3.5651586778702336,37.2213493498675,5.067042522493244,8.630335363969666,8.703661536067726,9.789590759775717,10.63589074528793,27.89494611411976,19.26505662678124,17.394540352183952,15.629876838194264,21.175962167876094,7.814938419097132,9.327507145374,0.2520947877128208,2.268853089415302,3.5651586778702336,4.064906311086573,3.529327027979363,16.638255989045504,11.092170659363674,12.19471893325969
70,19,473,0,15.78243333333316,2.711837006213307,36.75756145732037,5.060871039840775,8.619823913799774,8.693060777154672,10.270964999284864,11.124346171805533,27.42059869225837,18.801650301636275,17.373354403268962,15.10726469849476,21.150170577892652,7.05005685929757,9.064358819096839,0.5035754899498386,1.5107264698494873,3.1848910441533564,3.560816437828587,3.2732406846738655,16.11441567839441,10.575085288946326,13.179831855663851
71,19,474,0,15.815799999999829,1.581376054285463,35.36064355372733,5.025691720866087,8.063467359130051,8.632633242934165,9.220927700198928,11.047018194213992,25.67971639933559,17.61655763566988,16.752513065453854,15.002250506376583,20.003000675168778,6.500975219429847,8.001200270067528,1.0001500337584446,1.0001500337584446,2.6929863818251705,2.6929863818251785,2.5003750843960972,16.502475557014264,11.001650371342848,12.660888176855014
72,19,475,0,15.849166666666491,1.1323931829918175,35.17717043275814,5.089474362044058,7.663549823456122,9.171685747459069,9.832929359800614,13.176697577466458,26.959520713068617,19.303899648764475,18.737600194760233,16.711913687218612,20.763286702301883,5.570637895739537,8.102746030166571,0.5064216268854409,0.5064216268854409,3.0804424965512527,3.6868050940340047,3.291740574755181,16.20549206033317,11.141275791479046,13.321873066902768
73,19,476,0,15.88253333333316,0.716620361548334,35.600961008117494,5.067271171871994,6.606913282296367,9.177218412136398,9.246902164536973,13.69101278371251,25.887755582018602,19.282281857499267,19.00226689451995,17.22872198436474,20.269084687487947,5.067271171871994,7.09417964062078,0.5067271171871823,0.0,3.2048236849651968,3.6890290970011232,3.54708982031039,16.721994867177557,11.654723695305563,12.759062794722293
74,19,477,0,15.915899999999825,0.0,35.03229082501661,5.016792136330501,6.565812428652189,8.002616068648303,9.040705908235939,13.977305303365313,25.502671324877134,18.975767200360103,18.96920005456718,17.471631629206627,19.96757900480756,4.742300013641795,6.739057914122554,0.7487842126802775,0.24959473756010198,2.6882175935091803,3.0364510347803138,2.9951368507211242,15.474873728725868,11.48135792776435,12.569269817012739
75,19,478,0,15.94926666666649,0.0,36.06777053998056,6.017638857866524,7.562403754886426,8.510226486258205,9.547475477716777,12.993180369988977,26.528495074100203,18.99660720656118,18.990032848445423,17.490819728831298,19.98950826152148,5.746983625187397,7.745934451339593,0.7496065598070345,0.24986885326899255,2.6911699100467477,3.160618770658036,2.9984262392282233,15.991606609217186,11.993704956912893,12.583073931395264
76,19,479,0,15.982633333333157,2.1141073754050006,38.06774794480536,6.152956244253289,8.776803814800205,8.731755764669042,9.796005332549516,12.30591248850655,29.266994141030423,20.516262475787144,19.484361440135388,17.94612237907205,21.022600501198696,7.178448951628809,9.742180720067722,0.5127463536877883,1.0254927073755198,2.1141073754050006,3.1189143077590287,3.0764781221266446,15.895136964320969,12.818658842194324,13.419856329550429
77,19,480,0,16.015999999999824,3.5691530512412615,37.518572895326244,5.575195292343649,9.099590527639169,9.14149216380409,10.707459153723752,11.609352697876574,29.818986812470563,20.719540609225035,18.92829244219007,17.666406279377412,21.199687535252878,7.823694209438571,10.347466535063916,0.2523772325625373,2.2713950930628073,2.5737528672458163,3.070301547463495,2.776149558187882,15.142633953752068,11.609352697876588,11.707692500841828
78,19,481,0,16.04936666666649,4.65604809608963,38.39475619626706,5.679242942203036,9.82328996704275,9.82328996704278,10.907288200508992,11.31183892803935,31.432004687969886,21.61979949807766,19.2815436273398,17.481932888788066,22.62367785607867,8.740966444394019,11.31183892803935,0.5141744967290833,2.570872483645303,2.621785792213234,3.2519250488692597,2.8279597320098446,16.453583895329942,11.82601342476839,11.416526558094906
79,19,482,0,16.082733333333156,4.636626513715542,36.557295221081795,5.029127561772128,9.608134715901064,9.673720014582452,10.668390607143747,12.080378953822809,31.281820260662183,21.677815031161852,19.36214111282277,17.60194646620249,22.63107402797465,8.046604098835417,11.064080635898733,0.50291275617721,2.5145637808860783,1.8132777294818614,2.2490942191280503,2.01165102470884,16.596120953848086,11.06408063589872,11.83716043400916
80,19,483,0,16.116099999999822,3.0374351627390324,36.29840639480354,5.5155149936630945,9.043636043235347,9.112305488217158,10.674910787784093,12.483781618999558,30.027582240208726,20.99651828688636,19.474699325639335,17.477294266599387,22.470806914199244,7.4902689713997574,9.987025295199658,0.49935126475998004,1.4980537942799401,2.233166745307634,2.6890888573835747,2.2470806914199244,15.97924047231946,9.987025295199658,13.135880878237213
81,19,484,0,16.149466666666488,1.1139615486269723,36.213174932153734,5.006634468657811,7.045311439019337,9.090909090909099,10.075041694346893,13.460048604876405,26.52070843841182,19.486368608253905,18.93079247758658,16.93807747994589,21.919864974047613,5.9781449929220685,6.974502491742442,1.494536248230503,0.9963574988203163,2.6827746689859286,2.682774668985963,2.490893747050862,15.941719981125559,8.967217489383131,12.612878519166442
82,19,485,0,16.182833333333154,0.70680645225071,35.34032261253417,5.022803572471418,6.573679998416928,8.554986287433696,10.193707621674546,13.503518309843068,25.61137342897525,19.051023587336015,18.742036326482406,16.492991967304533,21.49086832103316,5.4976639891015395,6.49723925984722,1.4993629061186198,0.49978763537288273,2.6914387850509063,3.160934548335968,2.7488319945507556,16.49299196730452,8.996177436711548,12.742134527093185
83,19,486,0,16.21619999999982,0.5010470296546146,35.925456369881104,5.534245329124865,7.582217408977048,9.074347651685047,9.637832048366661,14.038261247451752,27.1722751779751,19.59856200506512,19.540834156531048,17.035599008257833,22.046069304804263,5.511517326201073,7.515705444819645,1.002094059309286,0.501047029654643,3.6476774355833954,4.13173965333614,3.757852722409808,16.53455197860319,10.020940593092845,12.685497574726837
84,19,487,0,16.249566666666485,1.581376054285481,36.78186879104331,6.021700612242282,7.517775940165138,9.056743751603769,10.608193066118218,13.011563712216578,28.075549343535236,20.557888705711267,19.752963166729188,17.50262559077268,22.003300742685667,6.751012727869437,8.251237778507146,0.7501125253187979,0.7501125253187979,3.536064355372727,4.031733679565011,4.00060013503375,17.002550573893473,10.001500337584403,12.660888176855014
85,19,488,0,16.28293333333315,2.0632815353005585,36.25191425505675,5.527311572105872,8.565798246914396,9.062978563764188,10.615495921641369,12.520486305132314,28.63342954933959,20.072989294227458,19.015932518021913,17.514674687651762,21.518028901972144,7.005869875060711,9.007546982220902,0.5004192767900406,1.5012578303701503,4.613637769652217,4.531489281882096,4.253563852715416,17.014255410861708,11.009224089381107,12.1757265051898
86,19,489,0,16.316299999999817,1.5022550751895665,36.27599541750156,5.508268609028391,8.074378413245263,9.527450705768745,10.127076232509426,12.0284684044341,27.082288512109905,19.035151983451545,18.277436748139678,17.02555751881505,21.031571052653874,7.010523684217958,8.012027067677678,1.001503383459692,1.5022550751895665,4.037189206622617,4.53449942718769,4.506765225568699,16.52480582708519,10.515785526326937,12.183814509751238
87,19,490,0,16.349666666666483,0.7076997281094514,36.31058272528684,5.504612044690532,8.022331289210799,9.560496859098032,10.615495921641369,12.52048630513234,26.564676120350324,18.542543201960324,18.265303602836838,16.513836134071653,21.017609625182104,6.255240959875607,7.756498790245786,1.2510481919751157,0.7506289151850751,4.034509191698549,4.034509191698529,4.00335421432041,16.013416857281612,10.508804812591052,12.600235431834982
88,19,491,0,16.38303333333315,0.7121632875657581,36.48056006097532,5.562173085902778,7.620479956269766,9.620796226848656,10.682449313485812,12.085811758795785,25.761221113578184,18.156672500809957,17.8769298932188,16.61799116834422,20.646595087942842,6.5464813693477595,7.050056859297541,1.5107264698494873,1.0071509798996772,4.560070007621906,5.035754899498258,4.783967154523339,16.11441567839441,10.575085288946326,12.252520485773438
89,19,492,0,16.416399999999815,0.7121632875657581,35.60816437828598,5.035754899498244,7.620479956269766,9.189390364330109,9.777667376602858,12.085811758795813,25.224055575228597,17.63233461626343,17.373354403268962,15.610840188444598,20.646595087942842,6.0429058793978925,7.05005685929757,1.510726469849459,0.5035754899498102,5.135482499642398,5.060871039840761,4.783967154523339,15.610840188444584,10.575085288946326,12.749513076354365
90,19,493,0,16.44976666666648,0.726193242131588,36.178711185522964,5.160572599851593,7.770607026035043,8.279876885515163,9.970292061768673,12.32390798311431,25.756836648671378,18.001684532617094,17.715617725726844,16.43187731081909,20.53984663852387,6.161953991557169,7.18894632348335,1.5404884978892994,1.0269923319261807,5.236653940801834,5.160572599851579,5.39170974261252,16.431877310819104,10.78341948522504,12.929503087856066
91,19,494,0,16.483133333333146,0.7121632875657581,35.98010754805001,5.060871039840746,7.121632875657174,8.619823913799749,9.686467953229261,12.096298365331657,24.803329472345624,17.68976908307475,17.37335440326899,16.11441567839441,20.143019597993003,6.0429058793978925,6.546481369347731,1.510726469849459,1.0071509798996487,5.630145136652852,5.562173085902778,5.539330389448082,16.11441567839441,10.575085288946326,12.252520485773438
92,19,495,0,16.516499999999812,0.5032501683293731,34.956873880983174,5.057601598018091,7.56550893296112,9.183453801840084,9.680210266915726,12.581254208233645,25.20776024156252,17.642489607025432,17.61375589152712,16.104005386539086,20.130006733173843,5.53575185162282,7.045502356610854,1.509750504988034,0.5032501683293447,5.626507930363147,6.03900201995215,5.787376935787478,16.104005386539086,11.57475387157497,11.672800596894094
93,19,496,0,16.549866666666478,0.7081698338256195,36.275995417501505,5.508268609028391,7.57774813519169,9.068998854375346,9.632151109955387,11.528169676417173,25.117577073318635,17.554900272308924,17.275933364679958,16.02405413535533,20.030067669194153,6.509771992488112,7.010523684217958,1.5022550751895665,1.0015033834597205,6.029848856455287,6.009020300758252,5.7586444548933144,16.02405413535533,12.01804060151649,12.059697712910541
94,19,497,0,16.583233333333144,0.7112260404762439,35.37947453499274,5.532040317949338,7.610450974456074,9.108137396133781,9.608134715901123,11.577921116187238,25.22597551452903,17.63066091672012,17.3504900881139,16.09320819767086,19.61359749091136,6.2864094522151674,7.292234964569616,1.2572818904430392,0.7543691342658292,6.055871518389037,5.532040317949367,5.783496696037972,15.590295441493666,11.566993392075943,12.612987757264488
95,19,498,0,16.61659999999981,0.7081698338256396,35.72574683559301,5.530983215123496,7.577748135191712,8.571488274138927,9.566847637605777,11.517288909786657,25.117577073318657,17.554900272308924,17.275933364679958,16.524805827085203,20.03006766919418,6.760147838353049,6.760147838353021,1.7526309210545037,1.2518792293246577,5.5985741127798585,6.029848856455287,5.758644454893329,15.523302443625482,11.517288909786643,11.061966430247054
96,19,499,0,16.649966666666476,0.5032501683293731,35.858119526485005,5.5585797911578965,7.6155569468348565,9.07247143148668,10.115203196036187,12.088483871845474,25.288007990090385,17.678341075836784,17.61375589152712,17.110505723197775,20.130006733173843,6.542252188281509,6.542252188281481,1.509750504988034,1.509750504988034,6.059934498730972,6.542252188281495,6.2906271041168225,15.600755218209727,11.071503703245611,12.11986899746195
97,19,500,0,16.68333333333314,0.5007516917298176,35.641421587787384,5.508268609028391,7.577748135191719,8.52749403185896,9.566847637605834,12.028468404434104,25.11757707331866,17.554900272308924,17.526309210544895,17.526309210544895,20.03006766919418,6.760147838353049,6.259396146623175,1.7526309210545037,1.7526309210545037,6.029848856455287,6.009020300758252,5.758644454893329,15.523302443625482,11.016537218056797,11.56075053180268
98,19,501,0,16.716699999999808,0.5035754899498386,35.842407794122806,5.562173085902749,7.620479956269773,8.575581582766233,9.620796226848656,11.593178393410929,25.259218071444103,17.653894438398464,17.373354403268962,17.625142148243896,20.14301959799303,7.301844604272446,6.294693624372826,1.7625142148243924,2.2660897047742026,6.126260242886728,6.0429058793978925,5.791118134422987,15.610840188444584,11.078660778896165,12.127703779584959
99,19,502,0,16.750066666666473,0.5032501683293731,35.819252754971465,5.558579791157868,7.1170321331790225,9.07247143148668,9.614580966016307,11.574753871574956,24.70543187106169,17.620943713043005,17.362130807362433,17.61375589152712,20.130006733173843,7.297127440775512,5.787376935787478,2.264625757482065,2.264625757482065,6.059934498730963,6.03900201995215,6.03900201995215,16.104005386539086,11.57475387157497,11.618432343273918
100,19,503,0,16.78343333333314,1.1189715201538517,35.617761675684584,5.004192767900491,7.572717784357511,9.02143680848566,10.058302980302525,11.509643366171161,25.06596111324958,17.521822076109906,17.014255410861693,17.514674687651762,20.016771071601994,7.256079513455717,6.2552409598756356,1.7514674687651848,2.2518867455552254,6.087863252594897,6.025846050518229,5.7548216830855665,15.012578303701503,11.509643366171161,11.054623144211684
101,19,504,0,16.816799999999805,1.126029027330563,35.842407794122806,6.063851889792483,8.07292923529615,8.560783329147057,10.121742079681551,11.078660778896165,26.22946792396245,18.156672500809957,17.625142148243896,17.625142148243896,20.14301959799303,7.805420094222285,7.301844604272475,1.2589387248745538,2.2660897047742026,6.063851889792492,6.0429058793978925,5.791118134422987,15.10726469849476,11.582236268845989,12.096298365331688
102,19,505,0,16.85016666666647,2.069640210930659,35.72752943606536,5.521576303742336,8.047054722049378,9.049239311149968,10.588889066325098,11.043152607484643,26.622893758610104,18.579356864859232,17.568651875543765,17.568651875543765,20.078459286335743,7.780402973455097,7.780402973455097,0.752942223237568,2.258826669712761,4.545454545454554,4.545454545454554,4.51765333942555,15.0588444647518,12.047075571801443,11.588680712710877
103,19,506,0,16.883533333333137,2.5351006328169774,35.52398805745812,5.577221392197316,8.175453887858058,9.140435320082773,10.695601286952508,11.66146291095805,27.90453796561679,19.773784935972344,18.506234619563855,19.266764809408954,20.787825189099124,8.365832088295974,7.858811961732613,1.2675503164084603,2.788610696098658,3.585173696910377,3.549140885943757,3.549140885943757,15.210603796901808,12.16848303752144,11.672479883571896
104,19,507,0,16.916899999999803,3.014961178856055,35.76539837379526,5.527428827902753,8.102464708350515,9.058830936582412,10.099994950003788,11.054857655805534,27.655410595004085,19.597247662564342,18.08976707313633,18.08976707313633,20.602234722183027,8.291143241854144,8.291143241854144,0.25124676490466413,2.7637144139513907,2.562224313951952,3.0565488148415576,2.7637144139513907,14.572312364470932,12.05984471542422,12.070308790898615
105,19,508,0,16.95026666666647,3.001426016116966,35.573194677602274,6.002852032233903,8.019419900514228,9.004278048350841,10.01725152233176,11.01659189732381,28.013309483758263,20.01575876825846,18.508793766054566,19.009031435407394,21.009982112818705,9.00427804835087,8.003802709645214,0.5002376693528277,3.5016636854697936,2.5011883467641383,3.042826951383076,2.751307181440538,14.006654741879146,12.005704064467835,12.005704064467864
106,19,509,0,16.983633333333135,3.472929825009203,34.26550663009005,5.457461153585854,7.953614354038549,9.426523810739184,9.935052221286423,10.926192235116753,27.78343860007344,19.85151397746181,18.10884837326215,19.349180453622566,20.83757895005509,9.178457394667134,7.690058898234611,0.7441992482162618,3.7209962410812807,3.017858201417276,3.508188899784294,3.2248634089370967,13.395586467892556,11.411055139315877,11.917519589864954
107,19,510,0,17.0169999999998,3.045571809369554,35.080396864509254,5.507578133487101,8.526425088698177,9.526256415484404,10.063722766391002,11.526724590898935,28.54366018006989,20.02755684904399,18.52549008536569,19.52686792781789,21.02893469149619,8.762056121456737,8.261367200230694,0.7510333818391359,3.2544779879696364,3.5048224485827006,4.005511369808801,4.005511369808801,14.519978715556903,12.016534109426402,11.51584518820033
108,19,511,0,17.050366666666466,3.4888534748764357,34.920560540885724,5.505092309439774,7.990082286457142,8.985171497319804,10.478420553561389,10.976289665327263,27.915277512519076,19.93630557072248,18.19187883328425,19.437897931454444,20.933120849258614,9.220541326459141,7.725318408654971,0.747611458902071,3.738057294510469,4.018290851500128,4.018290851500128,3.987261114144502,14.45382153877381,12.460190981701558,10.976289665327233
109,19,512,0,17.083733333333132,3.9856278324617165,34.906256207597515,5.480238269634839,7.986809349303363,8.967662623038905,9.976516893416704,10.971793503089069,28.39759830628975,20.43241739024152,18.43352872513543,19.429935683250875,20.924546120424026,9.216764362567716,8.220357404452301,0.24910173952886794,3.736526092932877,4.016644859262356,4.511424380027579,4.483831311519438,13.949697413616008,12.455086976442871,11.96725823556033
110,19,513,0,17.117099999999798,4.003755281690786,35.04715492380192,5.5051635123248275,7.573476440685661,9.508918794015585,10.521766805357567,11.021695460331314,28.030755092544933,20.52534819673882,18.51736817781989,20.01877640845393,21.019715228876635,9.508918794015642,7.507041153170206,0.500469410211366,4.504224691902152,4.53194325932025,4.504224691902138,4.504224691902138,14.013143485917752,12.51173525528371,12.021687769675262
111,19,514,0,17.150466666666464,3.522394362708212,36.2443170765484,5.535191141398627,8.113843212373554,9.05758550410684,10.579157237108564,11.081812727022168,28.183647393508007,20.134256794333584,18.366770605549988,19.624768592231476,20.631166981576683,9.057585504106811,8.05118711476166,0.5031991946725896,4.025593557380802,5.057089319107838,4.52879275205342,4.52879275205342,13.586378256160259,12.076780672142448,11.584515425564918
112,19,515,0,17.18383333333313,4.005511369808801,34.56204523998423,5.507578133487101,8.01102273961763,9.012400582069802,10.026287834052086,10.52638176016058,28.043049669134607,20.033814482956743,18.02480116413959,19.52686792781789,20.52824577027009,9.513089503295902,8.01102273961763,0.0,4.005511369808801,4.533931016100886,4.533931016100886,4.756544751647951,13.017911951878602,11.515845188200302,12.026960605192267
113,19,516,0,17.217199999999796,4.008728487034261,35.090688228381694,5.512001669672117,7.533050430751537,9.52073015670635,10.534836262209323,10.522912278464943,27.564563345226343,20.04364243517132,18.03927819165419,19.542551374292017,20.544733496050597,9.520730156706378,7.516365913189219,0.501091060879304,4.509819547913565,4.537572545539774,4.008728487034261,4.259274017473913,13.52945864374064,12.527276521982074,12.026185461102784
114,19,517,0,17.25056666666646,4.039925288177137,34.58980452982847,5.5347316698970435,7.516365913189219,9.52073015670635,10.5229122784649,10.522912278464943,27.56000834836054,20.04364243517132,18.03927819165419,19.542551374292017,20.544733496050597,9.520730156706378,7.516365913189219,0.501091060879304,4.509819547913565,4.537572545539774,5.010910608792827,4.760365078353189,13.52945864374064,12.527276521982074,12.52727652198206
115,19,518,0,17.283933333333128,3.987261114144502,34.393738569428535,4.984076392680635,7.4927097583619515,8.971337506825137,9.980605198442948,10.97628966532726,27.412420159743448,19.942534693065024,17.942675013650273,19.93630557072251,20.434713209990576,9.22054132645917,7.226910769386905,0.7476114589020995,4.236464933778535,5.008934783260512,4.98407639268062,5.233280212314654,13.45700626023769,12.460190981701558,11.474205536193077
116,19,519,0,17.317299999999793,3.522394362708212,34.7243906119347,5.535191141398627,8.0668967630944,9.05758550410684,10.076556020644198,10.579157237108578,27.675955706993122,19.631218803939678,17.863571410877384,19.62476859223149,20.12796778690408,9.30918510144312,7.799587517425351,0.25159959733628057,4.277193154717111,5.031991946726009,5.031991946726009,5.0319919467260235,13.586378256160259,12.579979866815052,11.081812727022168
117,19,520,0,17.35066666666646,3.5443605894726034,35.44722240469874,6.0760467248101975,7.611917601909481,9.114070087215282,10.645130590151295,10.645130590151265,27.848547488713393,20.25981730940801,18.481308787964338,19.74715185563312,20.25348908270064,9.367238700749027,7.848227019546528,0.2531686135337736,3.7975292030063486,4.585078600872895,4.557035043607641,4.8102036571414,13.164767903755418,12.658430676687914,11.645756222552848
118,19,521,0,17.384033333333125,4.514412697435603,35.1156814422718,5.016014108261771,7.022419751566446,9.530426805697346,10.044560424053774,11.046625187869044,27.59263723146709,20.571774024779867,18.30845149515544,20.064056433047043,20.56565784387324,9.279626100284275,7.273220456979544,0.2508007054130985,4.263611992022504,4.542193960864122,4.5144126974355885,4.765213402848673,13.041636681480583,13.041636681480583,11.53683244900202
119,19,522,0,17.41739999999979,4.012811286609434,35.61723239779377,5.51761551908794,7.524021162392643,9.042748032894314,10.533629627349683,10.545565755402688,27.59263723146711,20.070325471298162,18.057650789742354,20.064056433047057,19.56245502222086,9.279626100284275,7.774821867805741,0.2508007054130985,4.263611992022504,4.542193960864122,4.5144126974355885,4.765213402848673,13.041636681480583,12.540035270654414,11.53683244900202
120,19,523,0,17.450766666666457,4.015034338963289,35.633429758299144,5.018792923704098,7.528189385556146,9.033827262667387,10.037585847408195,11.052744894073085,27.607923242387088,20.08144420604426,18.067654525334774,20.07517169481642,20.07517169481642,9.033827262667387,7.528189385556146,0.5018792923704041,4.015034338963289,5.0438244651387985,4.5169136313336935,4.7678532775188955,12.546982309260258,12.546982309260258,11.554128992633725
121,19,524,0,17.484133333333123,3.024753020094522,36.29703624113421,6.049506040189016,8.08174662085068,9.088251757971074,10.082510066981683,10.598631761794566,27.726902684199743,19.667356716123475,18.14851812056709,19.66089463061435,19.66089463061435,9.074259060283538,8.066008053585392,0.0,3.528878523443609,5.066398606093273,5.066398606093273,5.293317785165399,13.107263087076248,13.107263087076248,12.109510140557317
122,19,525,0,17.51749999999979,3.546725558563111,36.48060574522049,5.066750797947293,7.616996642089879,9.120151436305093,10.640176675689304,11.158361156335737,27.360454308915337,19.766822879010228,17.986965332712856,19.25365303219968,19.25365303219968,8.106801276715657,8.106801276715657,0.0,3.0400504787683644,5.0920215322585305,5.066750797947293,5.320088337844652,13.680227154457668,13.17355207466295,11.158361156335738
123,19,526,0,17.550866666666455,3.565747911603346,36.31115093378402,5.067879980977165,7.564093584889491,9.59444636986993,10.601730717900534,11.094003924504591,27.230736905602157,19.666643320712666,17.901688150905102,19.162370415053374,19.666643320712666,8.320502943378415,7.816230037719151,0.2521364528296317,3.7820467924447314,5.067879980977185,5.06787998097718,5.294865509422635,13.111095547141772,12.60682264148248,11.598276830163911
124,19,527,0,17.58423333333312,4.052100529707786,36.47242204613277,5.594614153569751,7.614553527257348,9.637058818075214,10.63676389048294,10.648816884593955,27.862795420946295,20.28581246808664,18.23445238368498,19.24747751611193,19.7539900823254,8.863969908735754,8.357457342522281,0.25325628310673665,3.7988442466010497,4.586666364369316,5.0651256621347045,5.318381945241441,13.169326721550263,12.662814155336804,11.189228307139556
125,19,528,0,17.617599999999786,4.537129530141783,36.81497081128992,5.041255033490842,8.08174662085068,9.578384563632596,11.090761073679857,11.102212559511758,28.73515369089793,20.67529259525879,18.400580872241648,19.156769127265278,20.165020133963452,8.57013355693445,9.074259060283566,0.504125503349087,4.033004026792696,5.066398606093273,5.041255033490856,5.293317785165399,12.603137583727161,12.603137583727161,10.58663557033077
126,19,529,0,17.650966666666452,6.047585159562374,37.30706001816336,5.543619729598873,8.582222021919236,9.575343169307132,11.087239459197747,10.58327402923419,30.74602181445559,22.174478918395437,19.150686338614236,19.654651768577793,20.66258262850485,9.575343169307132,10.58327402923419,1.5118962898905863,4.031723439708259,5.064789888478215,5.03965429963533,5.291637014617095,13.103101179051862,12.09517031912479,11.087239459197747
127,19,530,0,17.684333333333118,7.561882550236305,38.343376172287165,5.041255033490842,8.584947973448728,10.082510066981683,11.1022125595117,10.59863176179458,31.759906710992453,23.195252131843596,19.40883187893982,19.660894630614365,21.173271140661626,9.830447315307168,11.342823825354458,2.2685647650708916,4.789192281816327,5.066398606093273,5.041255033490856,5.293317785165399,13.611388590425335,12.603137583727161,11.090761073679857
128,19,531,0,17.717699999999784,7.101321888110446,37.9764624267624,5.565430590966827,8.095171768679023,10.118964710848786,11.636809417476115,10.636952511666182,31.36879060363131,23.273618834952288,19.731981186155195,19.226032950612762,20.743877657240063,9.360042357535121,11.383835299704913,2.7827152954834276,4.300560002110728,4.5815561327978624,4.553534119881959,4.806508237653176,13.154654124103445,12.648705888561011,11.130861181933653
129,19,532,0,17.75106666666645,6.544324291772568,38.28892217175227,5.537505169961406,7.567905128800179,10.068191218111622,11.075010339922812,10.583579933884765,30.204573654334908,22.659022989939153,19.381268094864893,19.129563314412096,20.639791997128853,9.313076876753257,10.319895998564448,1.7619334631695551,3.775571706791851,5.059203473584181,5.034095609055825,5.2858003895086085,13.592058144450704,12.585239022639541,11.075010339922812
130,19,533,0,17.784433333333116,4.534134496738886,38.31806508260991,5.564572490773776,8.076411727737716,9.585310250004074,10.59163543163904,11.094883807436078,29.224320585867922,21.159294318114874,18.89222706974543,19.14412343067538,20.655501596255007,8.816372632547882,9.320165354407749,0.7556890827898144,3.274652692089205,5.063054193517743,5.063054193517728,5.289823579528715,13.602403490216702,12.091025324637073,11.083439880917354
131,19,534,0,17.81779999999978,4.5725946222864025,39.17383784494855,5.080660691429358,7.637907797220615,10.17401510596259,11.188994519078122,11.177453521144514,28.4562358146193,20.830708834860275,18.54441152371706,18.29037848914561,20.32264276571732,8.12905710628695,9.145189244572805,1.0161321382858546,3.048396414857592,5.106000802198299,5.080660691429344,5.334693726000808,13.209717797716266,11.68551959028747,10.669387452001615
132,19,535,0,17.851166666666447,4.0663658655534505,37.64478144209394,5.108308897348015,7.641360404970538,9.657618930689523,10.686305823504592,11.194052345149855,27.960885814154874,20.331829327767338,18.298646394990612,18.298646394990612,19.823533594573178,7.878583864509864,8.895175330898212,0.2541478665970942,3.3039222657621963,5.183619724466195,5.0829573319418415,5.337105198538936,13.215689063048785,11.690801863466234,10.68630582350459
133,19,536,0,17.884533333333113,3.0330507625859866,37.43835383088791,5.055084604310025,7.599458507434257,9.099152287758045,10.11016920862005,11.121186129482055,26.7967169262239,19.209321496378067,17.692796115085088,18.19830457551606,19.71482995680907,7.835381136680525,7.835381136680525,0.758262690646518,2.7802965323704996,5.651756403624921,5.055084604310011,5.307838834525512,14.154236892068056,12.132203050344046,11.637678715735378
134,19,537,0,17.91789999999978,2.0127967786903866,36.24431707654834,5.031991946726038,7.116311256812151,8.569173505102741,9.57401762511092,11.070382282797254,25.180079656664436,18.11517100821368,17.10877261886847,18.11517100821368,19.121569397558886,7.547987920089014,6.541589530743863,1.0063983893451791,3.019195168035594,5.131645025719554,5.0319919467260235,5.283591544062318,13.586378256160245,12.076780672142448,11.573581477469872
135,19,538,0,17.951266666666445,1.0118964710848957,36.937686430914304,5.059482355424393,7.606069777024314,8.601120004221514,9.613016475306381,10.624912946391248,24.29078502841792,16.696291772900537,16.190343537358075,17.708188243985404,18.214136479527838,7.336249415365359,6.32435294428052,1.2648705888560698,2.782715295483399,5.0847168379271075,5.084716837927101,5.312456473195624,13.154654124103459,12.142757653018577,11.647803099113181
136,19,539,0,17.98463333333311,1.0034932189864776,36.129240066950175,5.0174660949323595,8.027945751891792,8.52969236138506,10.047468025095787,10.536678799357986,24.585583865168616,16.557638113276823,16.055891503783585,18.56462455124978,18.06287794175654,7.777072447145173,6.2718326186654565,1.254366523733097,3.261352961706052,5.0174660949323595,5.04249101872613,5.268339399678979,12.543665237330927,12.041918627837688,12.052367149220187
137,19,540,0,18.017999999999777,4.015034338963289,35.633429758299144,5.018792923704098,8.030068677926579,9.033827262667387,10.5394651397786,10.050124997640566,27.106128420147424,19.078015642075396,17.06389594059395,18.569533817705192,18.569533817705192,8.531947970296983,8.531947970296983,0.0,3.5131550465928854,5.520672216074516,5.0438244651387985,5.269732569889314,12.045103016889854,13.048861601630676,11.08687594256335
138,19,541,0,18.051366666666443,5.54982522339057,35.825152018079365,4.568709531559168,8.59182890840742,10.090591315255551,11.111111111111146,10.090591315255551,28.758185248478327,20.18748826498165,17.406270018815803,19.172123498985542,19.676653064748308,9.333796966611374,9.333796966611402,0.2522647828813831,4.7930308747463926,5.045295657627776,5.045295657627776,5.045295657627776,12.61323914406944,13.622298275595,10.140918766188095
139,19,542,0,18.08473333333311,5.064789888478207,35.795738921672914,5.566480114129237,8.567412309380074,9.588596245780456,10.58327402923419,10.07930859927066,29.229994937884925,20.66258262850485,18.142755478687207,19.654651768577793,20.66258262850485,10.07930859927066,9.071377739343603,0.0,5.039654299635316,5.03965429963533,5.03965429963533,5.291637014617109,14.111032038978934,14.614997468942462,10.595266411584996
140,19,543,0,18.11809999999977,4.015691857267143,35.72752943606542,5.521576303742336,7.596055586400032,9.0353066788511,10.553135821651708,10.541191125326264,27.626128633406143,20.078459286335743,18.07061335770217,18.57257483986055,21.08238225065253,9.286287419930261,7.780402973455125,0.752942223237568,3.764711116187925,5.612099980963577,5.04465046228534,5.521576303742322,15.0588444647518,13.552960018276622,11.043152607484672
141,19,544,0,18.15146666666644,2.0985783244028036,36.31278960139261,6.107760067160797,7.651647274801623,9.684005054067494,10.736944980453067,11.197560123128156,26.99514025656412,19.347936158942844,18.323280201482433,17.81430019588568,21.377160235062817,8.398170092346106,7.380210081152654,1.272450013991829,2.7993900307820354,5.190597961132622,5.115185749884598,5.598780061564085,15.778380173498746,13.233480145515074,10.700691826932712
142,19,545,0,18.184833333333103,1.0115469632074223,35.03006266173286,5.56350829764088,7.15271717172633,9.159947337156588,10.165921165157258,12.149095936660242,25.8390360956083,18.720452348438446,18.207845337733744,17.702071856130033,20.7367127457523,7.080828742452013,6.575055260848302,1.5173204448111335,1.5173204448111335,5.157897704310197,5.157897704310211,5.31062155683901,15.67897792971516,12.644337040092879,11.138505515838704
143,19,546,0,18.21819999999977,0.5098723796188267,35.24026024862307,5.60859617580698,7.156399874876782,9.17770283313871,9.700983627773622,12.236937110851585,25.498717194966577,18.35540566627739,18.100469476467993,18.35540566627739,20.39489518475264,7.138213314663432,6.118468555425807,1.5296171388564517,2.03948951847525,5.631724505582177,5.124153997814027,5.60859617580698,15.296171388564488,13.256681870089224,10.707319971995162
144,19,547,0,18.25156666666644,0.5085125590931625,35.1021029773128,5.593638150024844,7.137313884286566,8.644713504583876,9.675111277783058,12.712813977329176,25.93912545190688,18.814964686447183,18.560708406900602,18.814964686447183,19.83198980463351,6.6106632682111695,6.6106632682111695,1.017025118186325,1.5255376772794875,5.110487970664212,5.085125590931682,5.593638150024844,13.729839095515516,13.221326536422353,11.19882744024604
145,19,548,0,18.284933333333104,0.5063372270675188,34.43465430716852,5.569709497742679,7.088721178945235,8.117203249346788,9.128124174340904,12.162637567395512,25.321924219410487,18.235171279870226,17.97497156089679,18.228140174430564,18.734477401498083,6.329215338343971,6.8355525654114615,0.7595058406012924,1.77218029473633,5.088626154371784,5.088626154371784,5.569709497742679,13.671105130822923,14.177442357890442,11.656758356534809
146,19,549,0,18.31829999999977,1.0237044819721461,34.80595238705388,5.63037465084696,7.694826440678201,8.701488096763455,9.72519257873563,12.295112747739648,26.616316531276482,18.94544857598771,18.426680675499085,18.426680675499085,18.426680675499085,6.142226891833019,8.189635855777397,0.0,1.0237044819721461,5.653592789147656,5.653592789147656,5.8863007713399895,13.308158265638241,14.331862747610415,11.817026612017123
147,19,550,0,18.35166666666644,1.544730365745238,36.57312029028039,6.178921462981037,8.753472072556463,9.268382194471542,10.311067155920131,12.357842925962046,28.834966827244784,20.081494754688322,19.309129571815703,19.051674510858163,20.081494754688322,7.208741706811196,9.268382194471542,0.0,1.544730365745238,5.687368187956028,5.664011341065944,5.9214664020234835,13.38766316979222,14.417483413622392,11.887623275313482
148,19,551,0,18.3850333333331,2.5838844413497384,37.297546258032554,6.201322659239338,9.316327843160026,9.81876087712891,10.901420400628307,11.369091541938758,29.46081541322966,20.154298642527834,18.86235642185295,18.087191089448055,20.671075530797765,8.010041768184152,10.077149321263903,0.2583884441349653,2.3254959972147446,5.193543450982837,5.684545770969393,5.942934215104373,13.952975983288496,14.469752871558441,10.864611898014816
149,19,552,0,18.418399999999767,3.6332397436011092,38.53457918679594,6.228410989030522,9.357022994005359,9.861650732631631,11.465841322876356,11.418753479889233,30.627418975542955,21.280404212520864,19.46378434072031,18.16619871800563,21.280404212520864,8.304547985374029,10.899719230803356,1.0380684981717252,2.595171245429384,5.732920661438195,5.732920661438195,5.968893864487555,14.013924725318617,14.013924725318617,11.949065754852699
150,19,553,0,18.45176666666644,6.181134264944717,39.42071919205009,6.181134264944717,8.771743631450812,9.800341664275518,11.378809908670078,10.829242174343294,31.952472000885393,23.184976059607763,20.0886863610703,18.028308272755396,22.664158971463934,9.529248658456453,11.589626746771302,1.8028308272755282,3.348114393511736,5.150945220787264,5.6660397428659905,5.6660397428659905,14.937741140283038,13.907552096125585,11.332079485731924
151,19,554,0,18.4851333333331,7.769378859551622,39.68694267392509,6.2017367294604355,8.846386098772047,9.833007382689926,11.475075181773363,10.865337342004409,33.65628806769587,24.82847138776351,20.930861461928913,18.088398794259575,23.77332412959828,10.07782218537318,12.661879155981723,2.8424626676693663,3.876085455912744,5.1938902305011885,5.1938902305011885,5.426519638277881,14.987530429529357,12.403473458920843,11.897891790558091
152,19,555,0,18.518499999999765,10.200908913494297,40.201382207700156,6.1340976378098775,7.708758219741352,9.732246842688351,11.310717175432705,9.678772554230676,33.68268935793616,25.999832324078852,20.8857723538662,17.829317863056502,23.942226844675872,11.206999799635526,12.735227045040347,3.5658635726112777,4.584681736214549,4.612895428578571,5.119497912375619,5.348795358916931,14.26345429044521,10.697590717833904,11.218571304834294
153,19,556,0,18.55186666666643,9.65155520880371,41.69845591754834,6.108393623446669,8.179555207252236,10.25899145325908,11.343002196244758,10.158163537611468,34.08189949200597,25.915719319774862,21.051890903178162,17.75460678581291,24.85644950013807,11.160038551082408,12.681861989866348,3.043646877567909,4.565470316351906,4.593565783477825,5.098045425695105,5.326382035743876,14.710959908244988,10.145489591893096,11.20605952385754
154,19,557,0,18.585233333333097,10.260575771932194,42.2049242479544,4.594275177971426,7.17505237695243,10.762578565428635,11.767960872058907,10.666482190138563,32.664224011660224,25.49416364046159,20.294112764446865,16.742643030668646,23.845582498225056,9.639703563112278,12.176467658668116,3.551469733778191,4.0588225528893815,4.090409197000145,4.677561871328318,4.81985178155611,15.220584573335145,10.147056382223425,11.265060734350552
155,19,558,0,18.618599999999763,9.276964935371685,43.87952672233565,4.6035273164318005,7.1895017896411,10.784252684461674,11.791659670926336,10.67586548449691,31.666470565490936,24.486560750863582,19.82660732835143,15.759610953304957,23.385229156517028,8.896554570414082,11.946801851698922,3.8128091016060353,3.8128091016060353,5.18442346951822,5.109100965095779,5.083745468808047,16.267985500185773,10.67586548449691,12.24328037543182
156,19,559,0,18.65196666666643,7.75861048450883,45.477905974366685,4.673439830208584,7.809935920591269,11.400913231035384,12.048361246925465,10.850277962151736,31.073039338074402,23.275831453526482,19.353565967583947,14.966757681598253,22.192088976162935,7.741426387033584,12.38628221925373,3.6126656472823413,2.5804754623445376,4.758161649207752,5.2631578947368345,5.160950924689047,16.51504295900496,10.83799694184701,12.42921573522973
157,19,560,0,18.68533333333309,5.69470172246746,42.21153236713191,5.093496065208939,7.70785819542791,10.300958298146957,11.81427601060216,10.744741720489674,29.193331707136934,21.489483440979313,18.5912606380127,15.789837802147758,21.902033080398525,8.149593704334336,10.186992130417906,1.0186992130417707,2.5467480326044836,5.11890019320188,5.11890019320188,5.093496065208967,17.317886621710457,11.205691343459705,12.266762921183993
158,19,561,0,18.71869999999976,5.589525696409289,42.01449820432601,4.582494663754437,7.657954521857232,10.171516882528705,11.236175175041293,11.179051392818574,29.004322716699473,21.350352162269917,18.470893581610852,15.68760824739553,22.266282673722685,7.843804123697765,9.868011639490732,1.265129697370611,2.78328533421535,5.1607368112947745,5.589525696409284,5.566570668430671,16.699712005292014,10.12103757896486,12.742060730297467
159,19,562,0,18.752066666666423,5.629716863888044,40.81137036805374,4.559723133120032,6.622997611586704,10.183409328795985,11.180339887498919,11.123499967244951,27.917947000198314,21.297896743094448,18.379107218526755,15.106115522076763,21.65209891497669,7.301289169003752,9.315437905280675,1.2588429601730695,2.2659173283115024,4.642383454426296,5.561749983622469,5.53890902476148,16.61672707428444,10.070743681384513,11.180339887498976
160,19,563,0,18.78543333333309,4.578685464956309,39.90324238550301,4.076529247927569,7.150705335669063,9.660070957584002,10.726058003503587,11.169758806082669,26.969631944010235,19.823065593880667,17.444277204258583,15.168936699355271,21.23651137909738,7.078837126365784,8.595730796301325,0.5056312233118376,2.5281561165592166,5.156446948697758,5.081530904439229,5.309127844774338,16.685830369290812,9.606993242925014,11.226835104160054
161,19,564,0,18.81879999999976,4.07304229861039,39.45081249180096,4.574768985229388,7.144588821945954,9.717691415873901,10.716883232918924,11.160204506217914,26.946562873736813,19.806109496957667,17.681955216756535,15.155961614362752,21.72354498058661,7.3253814469420035,8.335778887899522,0.2525993602393726,2.27339424215441,4.657702063221411,5.07718430476095,5.304586565026966,17.17675649627779,10.103974409575173,11.217231982823282
162,19,565,0,18.852166666666424,3.5691530512412615,38.421066408274555,4.570746081902045,7.1383061024824945,9.643320515945137,10.790418018738134,11.150390584687297,26.42137717785588,19.2866410318903,17.414029046814875,14.637879488626993,21.199687535252906,6.814185279188422,8.328448674563646,0.2523772325625373,1.7666406279377327,3.6746679732154974,3.674667973215513,3.533281255875494,16.656897349127277,9.590334837376318,11.707692500841773
163,19,566,0,18.88553333333309,2.607759196030472,38.9287139890366,5.139744121409406,7.823277588091399,9.332605935338785,10.848934033096862,11.29771780212363,26.833907433146436,19.03293210151898,17.644116093931075,14.831285992000034,21.479793505655238,6.90421934110347,8.438490305793124,0.25571182744829457,1.2785591372413876,2.754100667885021,3.7232204076243822,3.324253756827602,17.38840426648281,10.739896752827619,11.807131933787765
164,19,567,0,18.91889999999976,2.5922117347591156,37.60941016795814,5.109100965095779,7.2788157953635695,9.20705463286354,10.281238937295047,11.28774677243947,26.244143574840514,18.980829376064445,17.538921867387756,14.742861859543325,20.843356422113004,6.608869109450467,8.133992750092887,0.0,1.5251236406424198,3.0923216451238935,3.0923216451239077,3.0502472812848396,17.284734593947377,10.167490937616108,12.800544014490596
165,19,568,0,18.95226666666642,1.596458513044397,37.34825893817706,4.57156146494279,7.72263600997767,9.645040804026003,10.79234293946167,12.210559665982135,26.061910183290014,18.348858260106674,17.417135564591547,15.145335273557862,21.203469382981012,6.058134109423122,7.572667636778931,1.009689018237168,1.5145335273557805,3.6753235033832405,3.6753235033832405,3.7863338183894655,16.659868800913642,9.087201164134711,12.210559665982132
166,19,569,0,18.985633333333087,1.8254376440922886,36.95535973688735,5.088104391159575,7.661486969930748,9.238839934221806,10.238986729915032,11.743200175644745,26.13628955028202,18.477679868443648,17.46684318421714,15.18855929062363,21.263983006873076,6.581709025936902,7.594279645311815,1.0125706193749124,1.0125706193749124,4.174935617079846,3.685812689853086,3.7971398226559074,17.213700529373426,9.11313557437417,12.318453245629097
167,19,570,0,19.01899999999976,2.736973453859834,37.098273128806994,4.602338020319045,7.2769353530992245,8.77363813730297,10.278582835427502,11.733705686878347,26.237363543835876,18.975925782571434,17.534390782816075,15.247296332883565,21.346214866036973,6.6071617442495665,7.623648166441768,1.0164864221922585,1.5247296332883877,4.685770879817961,5.107781056795086,5.082432110961179,17.280269177268025,9.148377799730127,12.867690336723742
168,19,571,0,19.05236666666642,2.0978447694752616,37.3198617685979,4.607398905716817,7.783175393019778,9.284766908852598,10.37756719069302,11.746608463578058,26.192190791238723,18.42959562286728,17.299271141392126,14.75526067942269,21.878489972937103,6.61442720112052,7.632031385908277,1.0176041847877855,1.5264062771816498,5.188783595346541,4.607398905716817,4.83361987774191,16.790469048998247,8.649635570696063,11.878104445882617
169,19,572,0,19.085733333333085,2.2641767369413697,37.041959095772505,5.088104391159575,7.248902471070431,8.666208556107987,9.830282558584285,11.688504022809594,26.13628955028202,18.90282496979268,17.719985839060882,15.18855929062363,21.770268316560532,6.834851680780645,7.3411369904680726,1.2657132742186548,1.771998583906111,5.285773814095724,5.062853096874548,5.062853096874534,17.213700529373426,8.606850264686713,11.74320017564477
170,19,573,0,19.11909999999975,2.266589100278009,37.08142538945119,5.168618381869101,7.256625802145653,9.248683440855771,10.337236763738263,11.667981529027479,26.164136416491104,18.92296495320137,17.738865568486034,15.204741915845176,21.793463412711446,6.842133862130311,7.3489585926585335,0.7602370957922346,1.267061826320429,5.168618381869115,5.093525503516247,5.575072035809896,17.232040837957882,9.122845149507114,12.258454832190262
171,19,574,0,19.152466666666417,2.28262319132633,36.75306882772959,5.129557641705862,7.7239058030572005,9.243919384694252,10.322404688672467,11.783731331158606,26.780725203257663,19.056828008894414,17.864352179881166,15.822711930751893,21.94763267813974,7.1457408719524835,7.656150934234773,1.0208201245646649,1.531230186846983,5.205181735023313,5.129557641705876,5.3593056539643555,17.353942117598862,10.208201245646393,12.29230207787966
172,19,575,0,19.185833333333083,2.3126101226117464,37.15321703423748,4.682678600410874,7.403964963913926,8.926794896835839,10.54712491854972,12.453786644911792,26.69537531913052,19.3071784803135,18.09903703864896,16.030575662803386,21.718844446378768,6.4639417995174995,7.498172487440286,0.7756730159420897,1.2927883599035113,5.781525306529372,5.19694488858522,5.429711111594713,17.58192169468758,10.34230687922799,13.484718376481407
173,19,576,0,19.21919999999975,1.8329704959195303,36.60649758397855,5.109100965095779,7.776635204277335,8.701970536347766,9.778779656430412,11.703660980890543,26.17018153888312,18.414109265727145,17.538921867387756,15.251236406424141,21.35173096899382,6.608869109450467,7.6256182032120705,1.0167490937616037,1.5251236406424198,5.307586090764111,5.61518040224749,5.592120015688849,17.284734593947363,10.167490937616094,12.800544014490598
174,19,577,0,19.25256666666641,2.305194094420253,37.62483539060185,4.667662287815515,7.380222088984677,8.823203797924979,10.513302626166597,11.900250544216213,26.100661294691225,18.734577754658623,17.525540367946206,15.463712089364293,21.649196925110004,6.700941905391176,7.216398975036668,1.5463712089364208,1.5463712089364208,5.762985236050642,5.6934094230957175,5.670027766100233,18.040997437591656,10.309141392909524,12.978877380980014
175,19,578,0,19.28593333333308,1.5980681444529166,35.80885257761913,5.153614911969837,7.730422367954765,9.152341495679618,9.720669029941424,11.163624123132301,25.589058366075413,17.866945018368376,16.92934289531115,15.160605577890578,20.719494289783796,6.8222725100507375,7.327626029313791,1.2633837981575198,1.7687373174205447,5.6500241087043,5.078740013289061,5.306211952261691,16.676666135679653,9.601716865997389,12.222870978924675
176,19,579,0,19.319299999999743,1.8256248348681683,35.23321317088221,4.5850786008728885,8.242572880558706,9.170157201745784,10.240036693947845,11.242510931487232,25.72372518074941,17.481471503199884,16.455959879694262,15.696454039092998,20.25348908270064,6.8355525654114615,7.34188979247898,1.7721802947363017,1.7721802947363017,5.773132631152251,5.592677469402235,5.569709497742679,16.709128493228036,10.12674454135032,11.689702628603778
177,19,580,0,19.35266666666641,1.432137947306501,35.23321317088221,5.06337227067516,8.164442464354183,9.17015720174578,9.673559140397249,11.322044592617102,25.638869350791893,17.481471503199874,16.709128493228008,15.696454039092998,20.25348908270064,6.83555256541149,7.34188979247898,1.77218029473633,1.77218029473633,5.661022296308551,5.592677469402235,5.569709497742679,17.215465720295555,10.633081768417838,12.24666369653126
178,19,581,0,19.38603333333308,1.8020099461797496,34.77746323186162,4.525769525580272,8.058833471577358,9.120268504657215,10.10757939928663,10.60209678376028,24.81383953285932,16.763386905114057,15.743310514245252,15.493416696558796,19.99150541491457,7.246920712906501,6.747133077533675,2.249044359177873,2.249044359177873,5.587795635038015,5.497663989101511,5.497663989101511,16.49299196730452,10.995327978203008,12.088250207366045
179,19,582,0,19.419399999999744,1.5910138744572042,35.009536372365396,4.555970392733684,8.61207448048145,8.612074480481478,10.112642385059418,10.672845529294902,25.40147201261261,16.792546607554474,15.848367041474006,15.596805659863321,20.124910528855906,7.295280066710262,7.295280066710291,2.2640524344962785,2.2640524344962785,6.12075258452645,5.557172555745173,5.785911777046081,16.603051186306146,11.068700790870764,12.116800676147582
180,19,583,0,19.45276666666641,1.580467274167984,33.723631316736814,5.022803572471418,8.627672268957406,8.554986287433696,9.548429366766731,10.60209678376025,25.800855963646093,17.175542222502283,16.243098149618106,16.492991967304505,20.491293050287425,7.996602165965811,6.997026895220131,2.4989381768643,2.9987258122371543,5.587795635038026,5.520334864619639,5.747557806787938,16.992779602677388,11.495115613575877,11.538493562478696
181,19,584,0,19.48613333333308,1.1199956992247782,29.65768913514552,5.532370643519859,8.573638402925818,8.029674017473791,9.529840634492054,10.625212137429502,25.784237319134604,17.212989412528138,16.52895101862842,19.033337536602403,21.537724054576415,9.767107420098597,5.259211687745392,4.25745708055581,4.758334384150601,5.599978496123871,5.532370643519873,5.509650339542787,16.528951018628405,11.019300679085603,11.563650506897048
182,19,585,0,19.51949999999974,2.0815272356090477,25.151189283153585,5.644333202283481,8.218273192867658,7.085830349526984,8.140373110654737,10.709369275276563,26.642209364246426,18.425095582160324,17.164713310032226,20.193780364743816,24.737380946811157,11.86384596428698,3.786333818389494,5.300867345745218,6.310556363982414,4.654436395839086,5.073624524647713,4.796022836626662,17.16471331003224,10.096890182371908,12.210559665982132
183,19,586,0,19.552866666666407,1.8345120331895466,29.863692269678356,6.1267885174483885,8.783285924349164,7.195548196272457,8.282697981000215,10.377567190693066,26.942500108661207,18.16074258371287,17.044870095195208,16.281666956604354,23.404896250118767,9.66723975548382,6.614427201120549,3.0528125543632996,3.0528125543632996,5.188783595346515,5.688580328434295,5.342421970135803,17.29927114139214,10.176041847877727,11.377160656868611
184,19,587,0,19.58623333333308,1.6016922810454637,29.49898033736203,6.0990624989279,8.669876134098178,6.757547136665662,8.353404936788827,10.732533509191134,26.92082151593572,18.304196570971747,16.967735658027507,17.727485015849638,25.831478165952305,11.649490153272609,4.558496146932754,5.064995718814174,5.064995718814174,5.165302401299493,5.662837366506945,5.064995718814174,16.207986300205377,8.610492721984102,10.744478458363007
185,19,588,0,19.61959999999974,1.6544866816591843,33.13106998113437,6.300097587094973,9.031739597534349,8.003338841198095,8.770340110396557,11.581406771614214,28.431187468891856,19.414680398006823,18.050214639976346,16.74222807186213,25.636536735038888,10.202295231291004,6.53993284057114,3.923959704342707,3.4007650770969917,5.3355592274653745,5.849493759920151,5.75514089970261,16.742228071862144,8.371114035931072,11.803808815428516
186,19,589,0,19.652966666666405,0.7287727724267807,30.158339699574842,6.205276557311586,8.820860441940292,7.882882797440499,8.638340142249701,11.407098215081007,26.885690896153047,18.124331235779284,17.263225672457992,17.520885757121533,26.281328635682286,11.07938364053274,4.380221439280376,5.410861777934599,4.380221439280376,5.6918973096559276,5.6918973096559276,5.153201693271043,15.974925249140213,7.729802539906558,11.441964617986292
187,19,590,0,19.68633333333307,0.5140046620434191,32.058401133295014,5.654051282477695,8.28807613844238,7.778301968035468,8.87309620118638,11.226031269835937,25.10216903689141,16.837085569134324,16.448149185389667,16.448149185389667,23.13020979195423,8.995081585759976,4.883044289412538,4.369039627369148,3.341030303282281,5.677367056786979,5.677367056786979,5.397048951455972,15.934144523346248,8.738079254738267,11.999559657266408
188,19,591,0,19.719699999999737,0.7180321863705198,28.382714278017623,5.102577402013118,8.646252482797845,8.690859412468019,9.766293607241701,11.454807774860356,25.709162236279063,17.127739359233804,16.501076413016335,21.324467979898003,26.40172226082612,12.693135702320262,1.5231762842784349,7.615881421392146,7.108155993299334,5.1025774020130985,6.113823762437382,5.584979709020914,15.231762842784292,9.139057705670567,12.280239799948404
189,19,592,0,19.753066666666403,0.5086572639414726,30.78952460425068,5.1119422363913465,8.20185193488078,7.646795403844241,8.780785797626747,11.37392219422162,25.177250044296237,16.977269637568394,16.531361078097518,17.2943469740097,21.363605085541394,8.138516223063391,5.595229903356085,3.5606008475902513,3.5606008475902513,5.686961097110815,5.595229903356071,5.3409012713853485,15.259717918243851,11.190459806712155,12.250089103881631
190,19,593,0,19.78643333333307,0.5029763669028853,33.29156460169479,6.0357164028345665,8.565378884919104,8.063324562197986,9.609349997108561,11.111111111111121,25.730572002184548,17.167637807723786,17.101196474697957,16.598220107795072,19.11310194230947,6.790180953188866,7.796133686994665,1.2574409172571848,1.2574409172571848,5.02976366902881,5.532740035931681,5.281251852480253,14.08333827328066,12.071432805669133,12.081906935887552
191,19,594,0,19.81979999999973,0.5021069938304663,33.64491544510411,5.523176932135442,8.535818895118439,8.535818895118439,9.051862560124706,11.559371073910315,25.627139591170973,17.101147989946693,17.071637790236878,17.573744784067372,18.075851777897867,6.27633742288117,7.782658404372711,1.2552674845762226,1.2552674845762226,5.545953016112447,6.025283925965951,5.774230429050704,13.5568888334234,14.058995827253895,12.562712971993331
192,19,595,0,19.8531666666664,1.0049743719100377,34.675256851208204,5.550152375383565,8.557048433554938,8.542282161235164,9.044769347190197,11.054718091010216,26.12933366966047,17.594228432416546,17.084564322470328,17.587051508425333,17.0845643224703,6.2810898244376006,8.793525754212652,0.2512435929775165,1.2562179648875258,6.029846231460098,6.050746974308425,6.029846231460098,12.059692462920225,14.069641206740258,12.070156406288358
193,19,596,0,19.886533333333063,2.0098218811479,34.66942744980145,5.527010173156754,9.058144808785364,8.556508335190207,10.049109405739557,11.065433896433266,27.635050865783768,18.597641099913485,17.58594146004421,18.088396930331186,18.088396930331186,7.034376584017679,9.546653935452582,0.0,2.0098218811479,6.029465643443729,6.050365067092214,5.778237908300241,12.058931286887457,14.571208638322346,12.571431850148914
194,19,597,0,19.91989999999973,3.030264383161665,34.85169995379977,6.081535861431147,10.100881277205588,9.104811343084728,10.113499497337353,11.110969404926124,30.30685223991859,20.208074619103318,18.68663036283027,19.696718490550836,20.20176255441112,8.838271117554854,10.353403309135729,0.2525220319301411,3.282786415091806,6.060528766323344,6.060528766323344,6.060528766323344,12.626101596506956,14.64627785194807,12.63619844066069
195,19,598,0,19.9532666666664,5.582605677981178,34.570308734165685,6.617115702398656,11.165211355962299,8.642577183541462,10.705926889956087,10.657701748873109,34.006930849201254,22.843570618647682,20.046629480023228,20.807893890657027,22.837932319013817,11.165211355962327,12.18023057014068,0.5075096070891618,4.567586463802797,5.605626829991019,6.090115285070354,6.090115285070354,13.702759391408293,14.717778605586687,12.180230570140736
196,19,599,0,19.986633333333064,5.599572612866143,34.566446740713715,7.097460776351255,10.646191164526869,8.618345228426506,10.189799718302023,10.658254841104844,33.966419429681,23.320228265154128,20.531940103016126,20.785420845028682,23.320228265154128,11.406633390564537,11.913594874589592,0.7604422260376111,4.309172614213281,5.57657632427599,6.083537808301088,6.083537808301088,14.19492155270251,14.701883036727594,13.180998584652343
197,19,600,0,20.01999999999973,4.606623806413701,33.671498778244874,5.595881466944803,8.663129778048223,7.140176289141903,8.707823779466969,12.251515624714019,31.04838106605247,22.389305990759485,20.094301631301846,19.839943382804364,22.38352586777927,8.902538697412211,9.919971691402168,0.7630747454924744,3.3066572304674082,6.613314460934788,6.613314460934788,6.613314460934788,14.244061915859533,13.735345418864554,11.700479430884627
198,19,601,0,20.053366666666395,1.510822254587822,33.29907697258521,5.539681600155262,7.570879576086648,6.5662373839616865,7.6209631183068165,12.600253577622816,27.213446317086817,19.647144754124614,18.885278182347548,18.633474473249578,20.647904146033312,7.050503854743056,7.554111272939025,0.5036074181959123,1.5108222545877936,6.064236356787739,6.546896436547144,6.295092727449173,13.597400291290228,13.093792873094287,13.093792873094287
199,19,602,0,20.08673333333306,0.5156420582652856,34.5826332379385,5.156420582652885,7.218988815713999,7.7517998870563,8.78106783672111,13.416606043804252,26.302799800018672,19.08572301971617,18.82093512668294,19.078756155815597,20.625682330611454,6.445525728316085,6.445525728316085,1.2891051456632,1.2891051456632,6.209152613404562,6.187704699183428,6.187704699183428,14.437977631428012,13.40669351489744,12.375409398366855
200,19,603,0,20.120099999999727,0.5106495789835606,34.73918722947503,5.617145368819337,7.659743684753636,7.676746466351411,8.69604897810896,12.776448384237288,26.558687745369806,18.90093383267238,18.638709632900458,19.40468400137584,20.42598315934299,7.149094105770075,6.638444526786458,1.021299157967178,1.5319487369507385,6.658055927050868,6.127794947802883,6.127794947802897,13.787538632556519,13.276889053572944,13.276889053572916
201,19,604,0,20.1534666666664,1.6155531579169033,33.7801309803166,6.130593192114048,8.174124256152083,7.15235872413308,8.190073782062003,12.27182515966499,28.11712354836691,19.95060978826017,19.158103725356426,18.902662342351675,20.94619340638971,7.663241490142582,8.174124256152083,1.0217655320190318,2.043531064038035,6.130593192114063,6.661096313891507,6.130593192114077,13.79383468225663,12.772069150237627,13.292772954125844
202,19,605,0,20.18683333333306,2.025348908270047,32.946955227092815,5.569709497742679,8.607732860147763,7.595058406012754,8.622612271184499,11.150920721828061,27.34689816742597,18.741318547390332,17.721802947363045,18.734477401498083,20.25348908270064,8.35456424661399,7.848227019546499,0.759505840601264,2.784854748871311,5.569709497742679,6.0760467248101975,5.822878111276424,13.164767903755418,12.15209344962038,12.658430676687885
203,19,606,0,20.220199999999725,1.0126744541350092,34.9959251936049,6.0760467248101975,8.622612271184556,8.101395633080244,9.128124174340904,10.681195506305347,26.373317052024856,17.75071292244971,17.215465720295555,17.215465720295526,19.2408146285656,7.5950584060127255,8.101395633080273,1.0126744541350376,2.025348908270047,5.569709497742679,6.0760467248101975,6.076046724810183,13.164767903755418,12.15209344962038,12.658430676687885
204,19,607,0,20.25356666666639,1.0130251324269466,35.51371960754437,5.571638228348178,8.120014149689899,8.625598189246116,9.637058818075214,11.18922830713953,25.876794567738262,17.756859803772183,17.221427251258035,17.72793981747151,19.7539900823254,7.597688493202071,7.091175926988598,1.5195376986404199,2.026050264853893,6.099218971406305,5.571638228348178,5.824894511454914,13.675839287763736,12.662814155336804,12.166849358213238
205,19,608,0,20.286933333333057,1.0181710475037562,34.63278548203871,5.599940761270545,8.161261796859893,8.145368380029879,9.177669797419016,11.211445677942356,25.983318179865503,17.8252644980459,17.30890780756357,17.81799333131545,18.836164378819177,7.12719733252618,7.636282856278029,1.0181710475037562,2.036342095007484,5.623033398463255,5.59994076127056,5.599940761270574,12.727138093796725,12.727138093796725,12.228653919171693
206,19,609,0,20.32029999999972,1.0034932189864776,35.12584638604646,5.5419724410025,8.027945751891764,8.52969236138506,9.546380307212873,11.04982285681131,25.589077084155065,17.5611313322633,17.059384722770062,18.06287794175651,18.56462455124975,7.275325837651934,7.275325837651934,0.7526199142398298,2.257859742719546,5.5192127044256125,5.5192127044256125,5.268339399678993,13.045411846824152,13.54715845631739,12.041918627837674
207,19,610,0,20.35366666666639,2.5236758812561675,35.345880400760535,5.55208693876358,8.075762820019747,8.580497996270992,9.603241667719423,10.599438701275943,26.750964341315438,18.67520152129569,17.413363580667607,17.6657311687932,18.67520152129569,7.5710276437685025,8.580497996270992,0.0,2.5236758812561675,5.55208693876358,5.55208693876358,5.55208693876358,13.123114582532097,13.627849758783341,11.608909053778405
208,19,611,0,20.38703333333305,2.50999714764086,35.64549452844512,6.023993154338086,8.031990872450763,8.031990872450763,9.551190536434355,11.043987449619777,27.609968624049486,19.577977751598723,18.322979177778308,19.07597832207054,19.577977751598723,8.28299058721484,8.282990587214869,0.25099971476407745,2.7609968624049372,5.521993724809903,5.01999429528172,5.270994010045811,13.051985167732482,13.553984597260651,12.560021714008986
209,19,612,0,20.42039999999972,3.0119965771690147,36.64939654652491,6.0448736091632815,8.548742240909904,8.533990301978918,10.05253074234994,10.553933619414227,28.116449834084992,19.577977751598723,18.07197946301423,19.577977751598723,20.079977181126907,9.286989446271207,8.28299058721484,0.7529991442922608,3.2629962919331206,5.019994295281734,5.521993724809903,5.521993724809903,13.051985167732482,13.051985167732482,12.058440094858668
210,19,613,0,20.453766666666382,3.547884300100277,35.655795934135156,5.541972441002471,9.03143897087827,8.529692361385003,10.04746802509573,11.04982285681131,29.105628431013667,20.076135232680407,18.31375124650313,19.06637116074299,20.571610989222705,8.78056566613165,9.28231227562489,0.2508733047466194,3.261352961706052,5.0174660949323595,5.519212704425598,5.519212704425598,13.547158456317405,13.045411846824166,12.553696158755873
211,19,614,0,20.48713333333305,2.993682511508325,35.97958599234349,5.4884179377652345,8.981047534524947,8.496762690898668,10.028712296594492,10.98816973077016,28.444360251423717,19.46533203124618,17.962095069049866,18.461042154301254,20.456830495306804,8.48210044927356,8.981047534524947,0.49894708525138753,2.993682511508325,4.989470852513861,5.488417937765249,5.488417937765249,13.970518387038794,12.473677131284632,11.475782960781885
212,19,615,0,20.52049999999972,2.556871359514874,35.69067792606677,5.515881019809228,8.539279003164712,9.039905384673114,10.078894216360812,10.577967053035612,27.152147704529163,18.614304470022244,17.2998086530381,17.049086788501313,19.55630543386917,7.7723778006402995,8.775265258787442,0.7521655936103571,2.256496780831071,5.039447108180406,5.014437290735685,5.014437290735685,14.541868143133485,13.037536955912785,13.047176540930904
213,19,616,0,20.553866666666384,2.556871359514874,35.22976774088488,5.039447108180406,8.539279003164712,8.539279003164769,9.580068992493233,10.078894216360812,26.195335936819873,17.66477439604491,16.296921194890984,15.544755601280627,18.553417975722056,7.020212207029971,9.025987123324228,0.0,2.0057749162942855,5.538627017422208,6.038182089581667,5.766602884346028,14.040424414059927,12.034649497765656,12.5461180930769
214,19,617,0,20.58723333333305,1.7977266218300703,34.53320071355511,4.985996549442291,8.988633109150324,8.5346513380324,9.525733032545766,10.083553981974589,25.60395401409706,16.641580457525684,15.705889130743202,15.456589303271073,18.44818723293642,6.980395169219207,8.476194134051866,1.4957989648326873,1.9943986197769163,5.484596204386506,5.983195859330749,5.7338960318586345,14.459389993382615,12.963591028549928,12.474959381095195
215,19,618,0,20.620599999999715,1.8256248348681923,34.61288101061355,5.06337227067516,9.128124174340902,8.667097238506429,9.739591027365332,10.24003669394785,26.001291715519233,16.89983460543522,15.949622652626744,15.696454039092998,19.2408146285656,7.34188979247898,8.354564246614018,1.2658430676687829,2.2785175218038205,5.569709497742679,5.569709497742679,5.569709497742679,14.683779584957975,13.164767903755418,13.203659474168777
216,19,619,0,20.65396666666638,2.543286319707309,34.04877876308107,4.987794835708144,8.99187501582007,8.493908537124666,9.594214928566679,9.684545777069253,26.1086167127521,17.140896399722173,15.711553732480638,15.462163990695217,18.454840892120103,7.4816922535622155,8.97803070427463,0.9975589671416287,2.493897417854072,5.5091994640058495,5.486574319278944,5.486574319278944,14.464605023553588,12.968266572841145,12.479458691894878
217,19,620,0,20.687333333333047,2.556871359514846,33.7311770585924,5.014437290735685,9.039905384673116,8.583334045356287,9.645462714046758,10.637227836341712,27.19378857918501,18.16306436745998,16.798364923964556,16.54764305942777,19.55630543386917,7.521655936103542,9.0259871233242,1.0028874581471712,2.507218645367857,5.039447108180406,5.5158810198092425,5.265159155272471,15.043311872207056,13.538980684986342,12.536093226839228
218,19,621,0,20.72069999999972,3.543248871397033,34.20657672182302,5.010910608792813,8.533273280225274,8.577297338257926,9.638679005883375,10.629746614191047,27.673658349485194,19.146662552203768,17.287641600335235,17.037096069895597,20.043642435171307,8.017456974068523,9.019639095827102,0.5010910608792756,2.5054553043964063,5.5347316698970435,6.013092730551392,5.762547200111754,15.03273182637848,12.52727652198206,12.537294337674938
219,19,622,0,20.75406666666638,2.0728547718286765,34.42216773010863,6.032893532340154,9.565302306478927,8.605541932527187,10.253947281610028,11.606680227641977,29.228246751884658,19.664827013181664,18.601421724715408,17.093198341630398,21.11512736319048,7.541116915425192,10.054822553900237,0.5027411276950033,1.5082233830850384,5.552957253579256,6.03289353234014,5.781522968492624,15.58497495854536,13.0712693200703,12.608683336829314
220,19,623,0,20.787433333333045,0.7116311256812156,34.45353110474745,5.535191141398627,7.614785575437215,7.614785575437218,8.686564913514893,13.092852392984065,26.745404061102064,19.148035250221817,18.869969800222577,16.60557342419588,20.631166981576683,5.535191141398627,8.051187114761632,0.503199194672618,0.0,5.558016768716774,5.535191141398627,5.535191141398627,15.599175034850674,12.579979866815052,12.170764818560313
221,19,624,0,20.82079999999971,0.5057346719801785,36.081253754190655,5.586022030929703,6.593973379934963,7.602859212697059,8.656783156794756,13.654836143464507,25.83705338338594,19.244516741796865,19.21791753524633,17.19497884732567,20.735121551186836,5.310214055791732,6.827418071732268,0.25286733599006084,0.25286733599006084,5.586022030929718,6.068816063762014,5.563081391781836,15.677774831385179,12.643366799504179,11.730428229279305
222,19,625,0,20.854166666666377,0.5059482355424336,36.149638518699426,5.5883809175751615,7.656386112527806,7.656386112527779,8.734020716740664,14.16655059518834,27.868517975040888,20.24425278677045,19.984955303926398,17.202240008443,21.249825892782496,5.059482355424393,8.601120004221514,0.0,0.0,4.5815561327978696,5.059482355424393,5.059482355424407,15.178447066273208,12.142757653018563,12.184847060514763
223,19,626,0,20.88753333333304,1.5339299776947541,37.04087126122781,5.647603459574798,8.244625898677885,8.244625898677851,9.835244081556402,12.782749814122838,28.163852974674544,19.947643889242315,19.174124721184256,16.361919762077235,20.45239970259655,5.624409918214042,9.714889858733358,0.511309992564918,0.0,4.090479940519302,4.090479940519302,4.090479940519316,15.339299776947414,12.782749814122838,11.859746825764939
224,19,627,0,20.92089999999971,1.5556784782176578,39.1709831953676,5.704154420131346,9.907065198187171,9.391511847581492,11.000308012936634,12.445427825741092,29.5760805592943,19.705260724090095,18.927421484981267,16.075344274915608,20.742379709568496,5.963434166500946,11.149029093893091,0.25927974636960016,0.25927974636960016,3.6667693376455324,4.180760288290489,3.8891961955440877,16.07534427491558,12.445427825741092,13.005405913840509
225,19,628,0,20.95426666666637,2.615845077983568,38.7517419277431,5.130094268143807,9.801031337576369,10.311361863894149,11.471239514551613,11.799216816730791,29.28201006381514,19.50110717473773,18.21183465191055,15.39028280443145,20.007367645760894,5.899608408365367,11.542712103323623,0.7695141402215881,0.7695141402215597,2.762640311009069,3.0780565608862815,2.8215518474790997,15.390282804431465,11.799216816730791,11.843742321421288
226,19,629,0,20.98763333333304,3.058054893983095,37.97609443139661,5.027411276950119,10.06738323656634,9.670418674811314,11.241633366109525,11.573969931804202,29.70004644359033,19.63266864822457,18.098680597020433,15.584974958545388,20.109645107800475,6.2842640961876555,11.814416500832778,0.754111691542505,0.7541116915425334,3.058054893983081,3.5191878938650802,3.0164467661700627,15.584974958545374,10.557563681595255,12.65869814379889
227,19,630,0,21.020999999999702,4.046942848878925,38.47789334874178,5.04465046228534,9.04923931114997,9.655421893482435,10.73071086246326,11.556021143648236,29.68371199005555,20.63544055682844,18.57257483986055,15.560805946910193,20.580420768494122,6.525499268059093,11.545114089643079,1.0039229643168142,1.0039229643167573,3.549403679286496,4.015691857267143,3.7647111161879394,16.062767429068586,11.043152607484657,12.140828546636781
228,19,631,0,21.05436666666637,2.5708724836453127,38.148863778834155,5.54608532968183,9.63252831339061,10.134085044986493,10.778342056240156,11.103623600627678,28.80948234201874,19.185721808091383,17.898729927609565,15.12568726276865,20.16758301702484,6.554464480533085,11.09217065936366,0.5041895754256132,1.0083791508512547,4.06490631108658,4.5377061788305895,4.033516603404976,16.134066413619877,11.09217065936366,13.26315696030795
229,19,632,0,21.08773333333304,2.5881013803853423,38.34074029064415,5.606276661470279,9.657148188229876,9.697081431724062,10.850573932187778,11.166505681473382,28.971444564689566,19.314296376459694,18.018679622377505,15.73462164207615,20.30273760267889,6.852173940904123,10.91272146143993,0.2537842200335092,1.2689211001674323,5.176202760770696,4.596227708770055,4.314331740569273,16.242190082143125,11.166505681473396,12.780246763548067
230,19,633,0,21.121099999999704,3.0549678977196977,37.43915061454793,5.022336286354943,9.59516000243439,9.164903693159111,10.653984136442487,11.551373458616354,29.168490835339785,19.59354935147471,18.080410630877793,15.569242487700308,20.089345145419742,6.277920357943685,11.3002566442986,0.2511168143177258,0.7533504429532627,5.047385500530918,5.022336286354943,4.771219472037188,15.569242487700294,11.049139829980845,12.219871590878727
231,19,634,0,21.15446666666637,2.0842647770003824,37.18151324649404,5.583523442702947,9.113183371324167,9.155147599579253,10.723453809537974,11.63767871573538,28.326521904416527,19.215971772324703,18.19830457551606,15.165253812930047,19.71482995680907,5.813347294956543,10.868431899266511,0.7582626906464895,0.25275423021551546,5.155195008047856,5.080297152755883,4.802330374094524,15.67076227336105,11.12118612948204,12.887987520119667
232,19,635,0,21.187833333333035,0.5108827660095585,37.465510230830965,5.619710426104575,7.680252036023832,9.252480413306014,10.268616510739458,13.282951916247129,26.58554590825166,18.909564903232617,18.902662342351704,16.348248512304167,19.924427874370707,4.853386277090294,8.429565639156863,0.2554413830047224,0.25544138300477925,5.134308255369741,5.619710426104561,5.36426904309981,15.326482980285164,11.239420852209122,12.934518529428892
233,19,636,0,21.2211999999997,0.0,36.544080390161945,5.592677469402241,6.601829737084387,8.6226122711845,10.13939507038181,13.174501559727522,25.321924219410487,18.734477401498083,18.734477401498083,17.215465720295555,19.74715185563312,5.3165408842089334,6.8355525654114615,0.7595058406012924,0.2531686135337736,4.5850786008728885,5.088626154371784,5.06337227067516,14.68377958495796,11.645756222552862,13.252113433236941
234,19,637,0,21.254566666666367,0.5065125662134733,36.525140582990424,5.594614153569774,7.614553527257348,8.625598189246059,9.676908990077184,13.169326721550249,26.382449848589506,18.76832403738413,18.740964949898455,17.72793981747151,19.7539900823254,5.571638228348206,7.597688493202071,1.0130251324269466,0.5065125662134733,5.165434918004902,5.571638228348192,5.318381945241455,14.688864420190683,12.156301589123316,12.250904584695471
235,19,638,0,21.28793333333304,0.7131495823206788,35.86015076966551,5.5470019622522955,8.084109659646668,9.090909090909072,9.634120335269667,13.12078951929583,27.23540569893361,19.162370415053374,18.910233962223742,17.64955169807547,19.666643320712666,5.547001962252267,8.572639396208103,2.842170943040401e-14,0.5042729056592918,5.0678799809771995,5.042729056592989,5.042729056592989,14.623914264119676,12.60682264148248,12.64710013273098
236,19,639,0,21.3212999999997,0.5045295657627662,35.8358084514174,6.0543547891533365,7.584742493763623,9.095536096726342,9.599329661378254,12.150680967859,26.24038821704705,18.69484590967818,18.415329150341393,17.658534801697215,18.667593933222776,6.054354789153308,8.072473052204458,2.842170943040401e-14,0.5045295657627662,5.572711197694588,5.549825223390556,5.54982522339057,14.631357407120547,13.11776870983222,12.653537135378418
237,19,640,0,21.354666666666365,0.501601410826197,34.64319503719607,4.514412697435574,7.040311295854309,8.527223984044952,9.042748032894314,13.080164495644203,24.57846913048263,17.56321365155834,17.556049378916157,16.55284655726382,18.057650789742354,4.263611992022504,7.273220456979544,0.2508007054130985,0.2508007054130985,5.540368669305577,5.04103179018183,5.016014108261771,14.546440913959117,12.540035270654414,12.5800993831777
238,19,641,0,21.38803333333303,0.0,34.98327201847015,4.490523767262459,7.003056061072772,8.994896498085843,9.532370679243993,12.98221580691592,24.448407177317875,17.47027434523928,17.46314798379848,16.465253813295703,18.461042154301254,4.490523767262459,6.985259193519397,0.9978941705027751,0.49894708525138753,5.014356148297229,5.014356148297229,5.238944395139555,14.469465472290182,12.972624216536019,12.513529236432754
239,19,642,0,21.421399999999696,0.0,34.64594831003444,4.539225504811512,7.035710247361367,8.536381804231308,9.57681867526425,13.042749906557647,24.567520889263964,17.544575989297073,17.544575989297073,16.54202878990867,18.547123188685475,4.511462397247811,7.017830395718846,0.5012735996942013,0.5012735996942013,5.037737329078283,5.5367478770074605,5.263372796789113,15.038207990826066,12.53183999235506,12.62174673291069
240,19,643,0,21.45476666666636,0.49877948357078594,36.44163601031065,4.987794835708144,7.000703659385946,9.489926886424488,10.025343544507189,12.479458691894877,24.44528375170277,17.457281924978474,17.457281924978474,16.95850244140766,18.454840892120103,5.237184577493537,6.73352302820598,1.2469487089270217,0.7481692253562073,5.509199464005855,5.486574319278944,5.486574319278944,14.963384507124402,11.97070760569953,12.063866268333387
241,19,644,0,21.488133333333028,0.5090855237518781,36.710679189676114,5.090855237518696,7.653233560501071,8.669414077270563,9.726065274827533,13.246010105848672,25.968352266261483,18.3270788550673,18.3270788550673,16.290736760059815,18.3270788550673,4.0726841900149395,8.654453903781814,2.842170943040401e-14,0.5090855237518781,5.623033398463269,5.59994076127056,5.59994076127056,15.272565712556087,12.72713809379674,12.767799980440898
242,19,645,0,21.52149999999969,0.7207780529653324,36.2437422548758,5.606337538804439,8.170584355496807,9.18815339259908,10.24418090091014,12.751865491457398,27.01716134791497,18.85768081234218,18.602847287851063,16.30934556743108,18.348013763359972,4.587003440839993,9.683673930662195,0.5096670489822088,0.5096670489822088,5.122090450455043,5.629456554573089,5.351504014313321,14.780344420484411,13.251343273537742,12.242622634555374
243,19,646,0,21.55486666666636,2.588201400405869,37.564945607368166,5.583468611675215,9.15067380651757,9.136585000923048,10.20239365123061,11.718580247870904,28.932519169589654,19.802440638577274,18.52696402964952,17.76558194623925,18.273170001846097,6.344850695085455,10.91314319554698,0.7613820834102683,1.2689701390170853,5.606493322189618,5.6064933221896265,5.583468611675201,14.212465556991418,14.212465556991418,13.20704714725552
244,19,647,0,21.588233333333022,3.030303030303031,36.37766283912952,5.050505050505052,9.090909090909093,9.090909090909065,10.15138951628373,11.659996344055745,28.805594407271105,19.72285271693599,18.18181818181816,17.171717171717148,18.18181818181816,6.060606060606034,11.111111111111143,1.0101010101010388,1.5151515151515014,6.060606060606062,5.646636306817647,5.555555555555557,13.63636363636364,14.141414141414145,12.636359599188708
245,19,648,0,21.62159999999969,2.5752295368477798,35.35669174378335,5.075630024981244,9.090793149484995,8.585749085624741,10.113499497337353,11.156788029848306,27.79578268385854,18.71391012970871,17.424020203179623,17.171498171249482,17.676542235109764,6.313050798253499,10.3534033091357,0.7575660957904233,1.7676542235109878,6.081535861431162,5.578394014924153,5.808006734393203,14.141233788087803,15.151321915808353,12.63619844066069
246,19,649,0,21.65496666666636,2.0929470180800447,35.0400910769996,5.101459706152717,9.137055837563452,8.644358561383962,9.697955926163859,11.179043424134635,27.415867241402594,18.281160513065082,17.25888324873094,17.25888324873094,18.274111675126903,6.598984771573612,9.64467005076142,2.842170943040401e-14,2.0304568527919002,5.606782242227035,6.112484557762584,5.837563451776646,13.705583756345177,14.21319796954316,12.690355329949227
247,19,650,0,21.688333333333023,1.5226660929111517,34.04028187831281,5.075553643037182,8.628441193163184,8.120885828859457,8.687948389303928,11.684801981708706,26.90522214017338,18.27904113568385,17.510660068478245,17.256882386326396,18.779548479237548,6.3444420537964845,8.882218875315033,0.7613330464555759,1.7764437750630293,6.090664371644607,6.111775923236588,6.090664371644607,14.211550200504092,14.211550200504092,12.181328743289214
248,19,651,0,21.72169999999969,0.5099651909640386,34.201902037540854,5.099651909640585,8.15944305542493,8.17536393506226,8.684394270100366,11.740280357698156,25.503358690249254,17.346314359719827,17.083833897295904,17.848781683741976,19.37867725663415,6.8845300780147625,6.884530078014791,1.7848781683741777,2.2948433593382447,6.119582291568676,6.140794078885559,5.864599696086657,14.279025346993592,14.279025346993592,12.249784250717212
249,19,652,0,21.755066666666355,1.0199303819281056,34.737577080401465,5.099651909640585,8.159443055424902,7.666457858416187,9.235862422446615,11.230818338731078,25.503358690249257,17.346314359719855,16.82885130181387,16.82885130181387,18.86871206567011,6.629547482532757,7.6494778644608346,1.5298955728921726,1.5298955728921726,6.119582291568676,6.140794078885574,5.864599696086657,14.279025346993578,14.279025346993578,12.759325001459661
250,19,653,0,21.78843333333302,1.1464603509017885,35.39203135437375,5.639839211874374,8.731181907337291,8.219409144224471,9.243058847175234,10.779166299820561,26.15337154848729,17.432230291248032,16.919517635623095,17.94494294687297,18.970368258122846,7.690689834374126,7.690689834374126,1.5381379668748139,2.050850622499752,5.63983921187436,6.173877934451494,6.152551867499298,14.355954357498376,15.381379668748252,13.330529046248444
251,19,654,0,21.821799999999687,1.010049483536335,35.35173192377147,5.050247417681618,9.090445351826958,8.585420610058748,10.113112572744287,11.1105443188996,26.26128657194451,17.170841220117552,16.6658164783494,18.180890703653887,18.180890703653887,7.070346384754288,8.080395868290623,1.010049483536335,2.525123708840823,6.060296901217967,6.584717022443712,6.312809272102044,13.130643285972255,14.645717511276757,12.13111058862484
252,19,655,0,21.85516666666636,1.5075186547165629,35.18978966837104,5.025062182388581,8.542605710060599,8.557372541670029,9.547618146538298,10.552630583016025,25.627817130181768,17.08521142012117,16.331452092762902,18.090223856598897,17.08521142012117,7.0350870553440075,8.040099491821735,1.0050124364777275,2.5125310911942904,6.532580837105158,6.0509761533544495,6.030074618866294,12.562655455971452,15.075186547165742,12.070613577434717
253,19,656,0,21.88853333333302,1.1180200135870737,36.51323964787651,5.499931251289013,8.999887502109345,8.558514403550427,9.499881252226544,10.01236704344457,25.519281321326847,16.530068630250046,15.999800003749925,17.999775004218662,16.999787503984294,7.49990625175775,7.999900001874977,0.9999875002343686,2.9999625007031057,6.499918751523396,6.519120916700494,6.49991875152341,11.999850002812451,14.999812503515557,12.509839631178727
254,19,657,0,21.921899999999685,3.5521793444574308,36.200872986247674,5.048595423707852,8.540018348352561,8.554780707423348,10.047080409826549,10.059631420853561,27.168947689754518,18.648095782235718,16.82885968645948,18.58709875817911,17.080036696705122,7.786487317615553,9.29354937908957,0.2511770102456694,3.265301133193617,6.549895077300557,6.0491434497828775,6.028248245895924,12.558850512283172,16.07532865572246,12.150322782285388
255,19,658,0,21.95526666666635,4.563767779317118,37.0727568864627,5.600940302351596,9.141610409799052,8.635351644261885,9.647955989216745,10.192288565736902,29.480807743331596,20.340379452117077,18.001528462861927,19.776327043707482,17.74798580845541,8.620450249821204,10.648791485073275,1.0141706176260357,3.549597161691082,6.592109014569161,6.66966590629695,6.592109014569161,11.662962102699282,16.2267298820164,12.21223141117599
256,19,659,0,21.988633333333016,5.090388290980138,36.01941882520477,5.090388290980166,9.131285145747603,8.120014149689872,9.637058818075158,10.14290623404332,29.44750976729084,20.31740540494874,17.727939817471537,19.7539900823254,17.72793981747151,8.610713625629018,10.63676389048291,1.5195376986404199,4.052100529707758,6.078150794561665,6.662132653562459,6.331407077668402,11.649789022909857,16.714914685044576,11.748471351452483
257,19,660,0,22.02199999999968,3.59572678853303,35.65394749345365,5.616704796957807,7.695191369355649,7.644620012972436,8.659656840723503,10.220975941328424,27.1233181919054,19.43023760078613,17.543683288714277,19.323477245540346,17.289427009167667,8.136200945490657,8.644713504583876,0.5085125590931909,3.051075354558975,6.123302074824079,6.688438452785409,6.356406988664602,11.695788859142851,17.28942700916768,12.246604149648158
258,19,661,0,22.055366666666348,2.115192053693284,35.96924174282897,5.231690155967147,7.712222758199821,8.224166748316087,9.290995878598656,9.760670021271734,24.757688242018506,17.053223524028105,15.903292231245842,18.468339365317775,16.416301658060235,7.695141402215739,7.182131975401347,1.0260188536287842,3.078056560886324,5.6663743243851545,6.24102903823259,6.1561131217725915,11.286207389916413,17.955329938503382,12.354903065594826
259,19,662,0,22.08873333333301,2.615845077983568,36.55349665553405,4.729713217525546,7.712222758199821,8.272028452568888,9.80103133757631,9.234169682658887,24.198606265670282,16.48828578647383,15.133778091024283,17.955329938503382,14.877273377617087,7.182131975401347,7.695141402215739,0.0,3.0780565608862958,6.1774515327974,6.747585513061162,6.412617835179788,10.773197963102035,17.955329938503382,11.976325656904518
260,19,663,0,22.12209999999968,1.6279435156376758,36.84335063688843,5.17368542821061,8.811972687209677,8.30091575326344,9.90239381836293,9.280705949897937,24.844146211650624,16.033384194871637,15.186627763975252,18.532833881461357,13.899625411095997,6.949812705548027,8.4942155290031,0.2574004705758455,2.8314051763343855,6.199024222129529,6.868301216742109,6.435011764396307,9.781217881882384,18.018032940309652,12.620500204643957
261,19,664,0,22.155466666666342,2.2603560228099306,36.39453975460351,4.576872112523767,9.153744225047529,8.72509136415266,9.722158863764914,9.656245162319538,25.51800798727791,16.37003452653036,15.16292916106218,19.711807909380838,13.646636244955971,7.076033608495692,8.592326524601901,0.5054309720354127,3.53801680424786,6.1488331566983465,6.743290236501211,6.317887150442587,9.603188468672712,18.700945965310027,12.390792588171491
262,19,665,0,22.18883333333301,3.1896669061238105,36.89894579294626,5.143183345677659,8.632749658715815,9.299397145094051,10.199455578064958,9.635222966786875,26.533734529159155,17.909063654836338,16.13857984098206,20.173224801227576,13.616926740828603,7.312793990444959,9.33011647056776,1.2608265500767288,3.2781490301994722,6.135446796809492,6.238225249859326,5.79980213035293,9.077951160552402,19.16456356116619,11.987801987011835
263,19,666,0,22.22219999999968,4.676538775961253,38.20174382278553,5.172872170671527,8.179029052110623,9.353077551922501,10.345744341343048,9.690841915055191,27.6900161389169,19.51398354910176,16.992601936072475,21.304157651195368,14.20277176746356,8.115869581407736,9.637595127921713,2.028967395351941,4.057934790703854,6.170863423821784,6.274235161477785,6.340523110474805,10.144836976759692,19.78243210468139,11.566893812538439
264,19,667,0,22.255566666666343,4.1131826768904824,36.65475489948444,4.703604341918002,7.804215414793466,8.909867372499079,10.405620553057897,10.762206609166444,27.345705524258623,19.55384722187605,17.34603573593148,20.407100865801738,14.795148127706256,6.88739654220808,9.438284150433333,1.7856213257576599,3.8263314123378223,6.206577424925763,6.310547428675071,6.12213025974053,9.693372911255835,19.38674582251167,11.63383745235325
265,19,668,0,22.28893333333301,1.1438922500587918,35.23856575227789,5.216951329913597,7.7413705616190445,8.436932363015913,9.335170022607468,10.755020688470172,24.746172967157264,17.00518082889896,16.37005331242665,19.95100247451998,14.323796648373332,6.394552075166672,7.417680407193302,0.2557820830066362,2.813602913073339,6.669980682979208,6.825117250194834,6.394552075166658,10.742847486279985,19.439438308506638,11.172730031985596
266,19,669,0,22.322299999999675,1.6196588709793565,34.55989220184503,5.726358854392195,7.24333467174074,7.750706564954804,8.841616751397549,10.24362212958303,24.717713739500063,17.481814865649742,16.6458859605724,18.95070093972859,14.853252087895385,6.658354384228943,7.682716597187294,0.5121811064791757,2.048724425916589,6.230952086436136,6.736690660058401,6.402263830989398,12.292346555499634,19.9750631526869,10.446485825722926
267,19,670,0,22.35566666666634,1.1423685933303647,34.97961732836267,6.151843145578456,8.237737077464656,7.7310591084705065,8.744904332090668,10.740695073766936,26.17993798293079,17.9464615327706,17.37001404432317,19.413545108361205,15.326482980285164,6.64147595812355,8.685007022161585,1.0217655320190033,1.532648298028505,6.661096313891507,6.816026240250472,6.896917341128315,13.282951916247129,20.435310640380195,11.028443203017064
268,19,671,0,22.389033333333007,1.607372241838889,34.1920984956312,5.682919060476452,8.14860049103752,8.196022426743758,8.700621463340381,10.686305823504592,26.047366749037057,17.90615563173221,17.02790706200514,19.31523786137899,16.26546346221386,7.116140264718581,8.13273173110693,0.0,2.5414786659709137,6.627365532787537,7.188387195795918,6.861992398121487,14.232280529437162,20.840125060961554,10.367239448932358
269,19,672,0,22.42239999999968,3.0828944802852805,35.062602264736924,5.093525503516233,8.125018524352022,7.669649888473687,8.616020418978906,10.691479403073968,26.980980067151425,18.86178042637578,17.232040837957868,19.766164490598726,17.232040837957868,7.855783323186671,8.362608053714865,0.25341236526409716,3.294360748433121,6.608186004550894,6.761885294098233,6.588721496866242,15.711566646373356,21.286638682183266,12.258454832190262
270,19,673,0,22.45576666666634,3.5308532235222287,36.40481288204901,5.069233676118901,8.589751963533867,8.634067401058264,9.59700916841429,10.138467352237797,27.312635407825866,18.724327699321364,16.897654712570727,19.671896531052482,17.149858514250894,8.322725455445294,8.8271330588056,0.2522038016801389,3.7830570252024245,7.061706447044472,7.133400736362735,6.809502645364333,16.14104330753024,21.185119341133444,12.199992325477334
271,19,674,0,22.489133333333005,3.570108239825422,35.9040018862686,5.074077171764377,8.078232787041713,9.143938640273971,9.592901434612031,10.148154343528738,26.835247636083484,18.78976151473785,16.913799897868557,19.185802869224034,17.16624467246362,8.078232787041685,8.583122336231838,0.5048895491901249,4.039116393520828,6.5635641394713815,7.086462517055576,7.068453688661492,16.66135512327351,20.70047151679435,12.662565473804815
272,19,675,0,22.52249999999967,3.0149231157300562,37.214595868942034,5.049933720054872,8.557048433554963,9.100429991602939,10.062298057185638,9.600004208221948,26.206525370091242,17.651538774521775,16.079589950560262,18.592025880335314,17.0845643224703,8.291038568257648,8.291038568257648,0.2512435929775165,3.7686538946625774,6.0298462314601124,6.609187042630445,6.532333417415117,16.58207713651531,20.09948743820037,12.65230405416565
273,19,676,0,22.555866666666336,2.061527043881823,36.51323964787646,5.0248750000155304,8.499893751992147,9.05527194794546,10.511766624552733,10.049750000031004,25.577991401963057,17.117028807100855,15.999800003749925,17.999775004218662,16.999787503984294,7.499906251757778,7.999900001874977,0.49999375011717007,3.4999562508202757,6.519120916700494,6.576391014609052,6.49991875152341,16.499793753867095,19.499756254570215,13.536817161523937
274,19,677,0,22.589233333333,3.01473282172185,36.68269064533802,5.549802064380274,8.556508335190207,9.099855596425042,10.0491094057395,10.061662951428284,27.17443442635606,18.617992345579456,17.083485989757236,18.59085240061816,18.088396930331186,8.290515259735116,8.79297073002212,0.2512277351434875,3.768416027152341,6.531921113730718,6.551217820804179,6.280693378587216,16.078575049183286,18.590852400618175,12.601519085483403
275,19,678,0,22.622599999999668,2.5110098047591407,36.67449952638372,5.5470019622522875,7.533029414277365,8.050909890382071,9.555043959572185,11.094003924504575,26.659309619855375,19.143053422203753,17.82816961378981,19.58587647712119,18.581472555217516,8.035231375229188,7.533029414277394,0.5022019609518225,3.0132117657109347,6.547912463469258,6.547912463469248,6.277524511897809,15.568260789506596,16.57266471141024,11.5942325967783
