,video_id,frame_seq,time_seconds,m1,m3,m4,m5,m6,m7,m8,m9,m10,m11,m12,m13,m14,m15,m16,m17,e1,e2,e3,b1,b2,b3,label_measures
0,11,0,0.0,2.5770114821321783,36.651590536515904,4.123218371411468,8.246436742822937,8.822266231437409,9.846747047324758,12.926223833149118,27.85080643916784,19.61239494121146,18.296781523138407,14.431264299940151,16.492873485645873,2.5770114821321783,12.369655114234403,3.0924137785586083,1.54620688927929,2.061609185705734,2.577011482132164,2.319310333918949,14.946666596366583,14.431264299940151,13.953987724284538,"{'happy': ['m3', 'm12', 'e1', 'e2']}"
1,11,1,0.0333666666666666,4.639113626809291,37.17013789814352,3.644831893568631,7.731856044682132,9.292534474535838,10.360558875928955,11.866712899669215,27.853766220938663,20.12924205571188,17.783268902768953,14.432797950073336,16.49462622865525,3.608199487518334,12.370969671491425,3.09274241787287,0.0,2.577285348227377,3.135402949216824,2.577285348227392,14.432797950073336,13.40188381078238,13.44147587284596,"{'happy': ['m3', 'm12', 'e1', 'e2']}"
2,11,2,0.0667333333333332,5.5552721594498,39.47278033881048,4.040197934145311,8.080395868290623,10.113112572744289,11.156361190882272,10.653508598584333,28.2994163891364,20.22622514548854,17.42335359100167,13.130643285972267,15.655766994813064,3.787685563261221,13.888180398624511,4.292710305029402,0.2525123708840908,3.535173192377144,4.071639637402856,3.787685563261221,14.140692769508576,13.635668027740408,13.140351711169934,"{'happy': ['m3', 'm12', 'e1', 'e2']}"
3,11,3,0.1000999999999998,7.034820603370122,41.231515543402125,4.0198974876400655,7.554038792796248,10.062298057185696,11.100304750767128,9.169530680046377,27.65506145240637,20.155937974374076,16.582077136515295,11.55720527696522,13.064666834830234,3.2661667087075443,15.325859171627798,6.281089824437629,0.7537307789325212,4.051181208386494,4.550214995801467,4.0198974876400655,14.069641206740258,13.56715402078524,13.10326268504562,"{'happy': ['m3', 'm12', 'e1', 'e2']}"
4,11,4,0.1334666666666664,7.537593273582871,44.24623608405213,4.522555964149717,8.055787505747677,10.552630583016024,12.101952306708924,8.775893818150921,28.682498547777968,20.70057273190083,16.833958311001766,11.05513680125489,12.562655455971452,3.266290418552586,16.83395831100171,7.788846382702275,0.7537593273582672,4.550387340461802,5.050124992140354,4.773809073269163,14.070174110688017,13.567667892449164,14.106021746139136,"{'happy': ['m3', 'm12', 'e1', 'e2']}"
5,11,5,0.166833333333333,10.45908226999167,45.27412416077129,4.477390298285712,7.975336316278626,11.442219651174526,12.437195273015789,8.339415344381354,30.94438168835333,23.07828742726429,17.66081728768245,11.939707462095186,12.437195273015815,4.228646392825397,18.655792909523683,9.701012312952315,0.2487439054603157,3.979902487365053,4.504943729415204,4.228646392825368,13.432170894857052,12.93468308393642,12.944246621719072,"{'happy': ['m3', 'm12', 'e1', 'e2']}"
6,11,6,0.2001999999999996,11.509569679458195,46.50551986850485,4.499493835413659,8.49904391133694,12.009061206064889,13.507736551213275,8.076838617462789,32.18721634746246,23.75653628101924,17.74800346190949,11.998650227769788,12.9985377467506,4.999437594904066,19.497806620125917,9.99887518980816,0.4999437594904066,5.024372600434177,5.024372600434177,4.4994938354136735,14.498369025221834,12.9985377467506,13.507736551213332,"{'happy': ['m3', 'm12', 'e1', 'e2']}"
7,11,7,0.2335666666666662,12.571431850148914,47.23348676684261,4.522099232582804,8.039287524591629,11.56739360440774,13.575599239943497,7.653173715011519,32.348924494182484,24.37297496427009,17.8371691951877,12.561386757174432,13.063842227461407,5.778237908300241,19.344535606048623,10.300337140883045,1.2561386757174375,5.04961498153593,5.04961498153593,4.773326967726291,14.068753168035355,12.561386757174432,13.575599239943497,"{'happy': ['m3', 'm12', 'e1', 'e2']}"
8,11,8,0.2669333333333328,12.570321166471256,47.25068684607779,4.549525812933534,7.55289464595378,12.068328241022188,13.574399838262824,7.468877631490912,31.795119930773534,24.370821616442147,17.835593284590033,12.560276960978882,14.067510196296354,6.280138480489455,18.33800436302917,9.797016029563537,1.758438774537041,4.549525812933526,5.04916884898672,4.772905245171984,14.067510196296354,12.560276960978882,14.076478963669894,"{'happy': ['m3', 'm12', 'e1', 'e2']}"
9,11,9,0.3002999999999994,11.621801018752215,47.47712577618174,4.543368996115362,7.572281660192289,12.12616315343189,13.639452280488523,7.504670648965192,30.94254977115606,23.41836842336888,17.416247818442258,11.610831878961504,13.125288210999967,5.300597162134608,18.425885373134548,9.84396615824997,0.7572281660192459,5.073365923535148,5.073365923535148,4.7957783847884485,15.144563320384565,13.125288210999956,13.164063149865967,"{'happy': ['m3', 'm12', 'e1', 'e2']}"
10,11,10,0.333666666666666,10.951696636731151,47.75028813074308,3.978327418916877,6.96207298310452,12.432273184115218,13.436060974131529,8.033980802853517,29.54594524685591,22.64722068146115,16.90789153039671,11.9349822567506,12.929564111479834,4.972909273646081,16.907891530396682,8.951236692562958,1.4918727820938216,4.475618346281479,4.997711967526178,4.475618346281465,14.421436893573656,12.92956411147982,12.939123864439422,"{'happy': ['m3', 'm12', 'e1', 'e2']}"
11,11,11,0.3670333333333326,9.99887518980816,48.50485169399536,3.9995500759232527,6.518469118671854,12.009061206064889,13.507736551213275,7.43219829837728,27.56952996024776,21.14590720179529,15.998200303693068,10.998762708788972,11.998650227769788,4.499493835413659,15.998200303693068,8.49904391133694,0.4999437594904066,5.024372600434177,5.098445970681056,4.749465715158877,13.998425265731411,12.498593987260191,13.53546371665725,"{'happy': ['m3', 'm12', 'e1', 'e2']}"
12,11,12,0.4003999999999992,8.510864155430715,48.50136962427055,4.497976365850633,6.516270742844038,12.494378794029616,13.50318102122896,7.42969176428331,26.60569343897972,20.214653867729417,15.742917280477286,10.495278186984876,11.994603642268402,4.248088789970041,15.243142128716102,8.246290004059546,0.2498875758805638,5.022678113726708,5.022678113726722,4.747863941731254,14.49347940107431,12.99415394579077,13.50318102122896,"{'happy': ['m3', 'm12', 'e1', 'e2']}"
13,11,13,0.4337666666666658,9.05631589658485,48.75163950073879,4.018832163930625,6.549895077300543,12.066957662082554,13.07086161692769,7.468029404115893,26.74298035813082,20.31896265252285,15.572974635231162,10.549434430317888,12.056496491791847,4.270009174176295,15.321797624985464,8.288841338106891,0.2511770102456694,4.050107594095127,5.048595423707852,4.772363194667605,14.568266594248485,13.06120453277451,13.070861616927692,"{'happy': ['m3', 'm12', 'e1', 'e2']}"
14,11,14,0.4671333333333324,8.593688505109316,49.47776573604379,4.541748885370168,6.57968450162922,12.121839109481286,13.634588615834096,7.225327539451642,26.41532085588444,19.995415589482224,15.391482333754425,9.588136535781445,11.102052830904825,3.784790737808464,15.896121098795533,8.326539623178633,0.252319382520568,5.071556822259383,5.642032913567526,5.046387650411276,14.63452418619272,12.615969126028205,14.165885187576562,"{'happy': ['m3', 'm12', 'e1', 'e2']}"
15,11,15,0.5004999999999991,8.035231375229188,48.754991337583775,4.547632173546629,6.547912463469272,12.0633050666012,13.596602201468126,7.190437814534744,25.690956009478494,19.24816363393372,15.06605882855476,9.541837258084684,11.550645101892002,4.017615687614608,15.06605882855476,7.533029414277365,0.0,4.547632173546629,5.547001962252288,5.273120589994164,14.563856867602937,13.057250984747457,14.572512949714891,"{'happy': ['m3', 'm12', 'e1', 'e2']}"
16,11,16,0.5338666666666656,8.59533032885621,49.00092205785588,4.570571413720607,6.580941550014884,12.628470075151588,13.665186403432347,6.771732988398599,25.86490774639896,19.417549929255745,14.88968769941144,8.580497996270992,10.599438701275943,3.533146233758629,16.151525640039523,8.075762820019776,1.0094703525024895,5.072525742929442,5.072525742929423,5.047351762512335,15.142055287537032,12.618379406280866,14.168591579213016,"{'happy': ['m3', 'm12', 'e1', 'e2']}"
17,11,17,0.5672333333333321,8.540018348352561,49.25375588299066,4.521186184421936,7.032956286878573,12.568893577072702,13.572858217404889,6.739786431533583,26.29572588114679,19.32594503815078,14.819443604494126,8.540018348352561,10.04708040982652,3.265301133193617,16.828859686459452,8.79119535859823,0.7535310307369798,5.048595423707857,5.048595423707857,5.0235402049132745,15.572974635231134,13.061204532774497,13.09979015460114,"{'happy': ['m3', 'm12', 'e1', 'e2']}"
18,11,18,0.6005999999999987,9.38322238059261,50.51143092594855,4.684387766165713,7.2868254140355475,13.022593829368237,14.062798653279147,6.766337884461586,27.762045650807583,20.537833794346792,15.614625887219034,9.368775532331426,10.93023812105332,3.9036564718047657,17.43633224072792,8.588044237970479,0.2602437647869919,4.713215039889972,5.204875295739683,4.944631530952705,15.094138357645065,13.0121882393492,14.61078120883019,"{'happy': ['m3', 'm12', 'e1', 'e2']}"
19,11,19,0.6339666666666652,9.540032882779428,48.74577169780184,5.021069938304976,7.029497913626926,12.562712971993331,13.566183924562324,6.066981890117246,27.229758081895188,20.24058000742405,15.314263311830132,9.540032882779428,11.548460858101407,5.021069938304976,16.569530796406355,8.033711901287944,0.5021069938304947,4.546772209687535,5.046112836491398,4.518962944474467,14.56110282108439,13.054781839592906,13.594031064214,"{'happy': ['m3', 'm12', 'e1', 'e2']}"
20,11,20,0.6673333333333318,10.007989614776957,50.03994807388481,4.497976365850661,7.014678528388088,12.504370302058993,13.50318102122896,6.70518727681967,27.650712365057316,20.787282169874704,15.493029704596694,8.49617757994011,10.995053338746033,3.748313638208885,17.742017887521996,9.745615459343073,0.2498875758805923,5.022678113726708,5.022678113726708,4.747863941731239,14.49347940107431,12.494378794029572,13.032541485688132,"{'happy': ['m3', 'm12', 'e1', 'e2']}"
21,11,21,0.7006999999999983,10.507170857301116,49.56852494478043,4.029316089693694,7.513267978972158,12.504370302058993,14.002625961567473,6.497076972895374,28.147592112868587,20.787282169874704,15.243142128716071,8.49617757994011,11.494828490507215,3.9982012140894767,17.99190546340259,9.49572788346248,0.0,4.525656481668589,5.022678113726708,4.747863941731239,14.99325455283551,12.99415394579077,13.032541485688132,"{'happy': ['m3', 'm12', 'e1', 'e2']}"
22,11,22,0.7340666666666649,11.002559243383024,49.52348815051554,4.496404314248053,7.510642077009499,12.999216614391006,14.024453768841674,5.847673686170943,28.547260573686927,21.13138762909313,15.487614860187731,8.992808628496107,11.49081102530056,4.746204553928493,18.235417496672653,9.742209347537454,0.2498002396804395,4.524074755810974,5.02092267782937,4.746204553928493,14.98801438082684,12.989612463383269,13.52616975978811,"{'happy': ['m3', 'm12', 'e1', 'e2']}"
23,11,23,0.7674333333333314,11.446657065397096,50.27981038656839,4.972110101636304,7.474720478380009,13.433901730264154,14.427689351546258,5.669077748772861,29.37334799289136,21.967500435910537,16.15935783031793,8.949798182945301,11.435853233763453,4.723504596554477,19.14262389129968,10.192825708354375,0.2486055050818265,4.996908809596348,4.502437191954025,4.474899091472665,14.41911929474523,12.92748626425434,13.461477335875008,"{'happy': ['m3', 'm12', 'e1', 'e2']}"
24,11,24,0.800799999999998,10.252461205047236,48.33985905896569,4.876598490941717,7.314897736412576,11.713991552733146,13.175843568650205,5.707912192154071,27.90334941261229,20.62633990170782,15.361285246466366,9.265537132789234,11.703836378260092,5.120428415488789,17.31192464284308,9.021707208242162,0.7314897736412433,4.415947749953701,4.900920828811006,4.632768566394631,14.142135623730953,12.679156076448436,13.175843568650205,"{'happy': ['m3', 'm12', 'e1', 'e2']}"
25,11,25,0.8341666666666645,10.191173274827236,48.59002042620682,4.367645689211656,7.764703447487392,12.617643102167053,14.081889650125802,6.308821551083528,28.251445615483,20.52627113465087,15.28675991224084,9.2205853438913,11.647055171231116,4.610292671945643,17.71322973958064,8.9779383611573,0.7279409482019616,4.877143992633566,4.949046799499938,4.610292671945658,13.588231033102955,12.132349136699062,13.588231033102945,"{'happy': ['m3', 'm12', 'e1', 'e2']}"
26,11,26,0.867533333333331,10.929440597505929,49.49751177282527,4.452772762451644,7.437761404831316,12.873076713842885,13.861902867663089,6.431782879096829,28.848781973925536,21.55440937677537,15.832080933161407,9.89505058322588,11.379308170709765,4.700149027032268,18.058467314387254,9.647674318645272,0.7421287937419265,3.988822411720952,3.958020233290341,3.958020233290341,13.853070816516237,12.863565758193658,13.367477231377412,"{'happy': ['m3', 'm12', 'e1', 'e2']}"
27,11,27,0.9008999999999976,11.32126137949021,51.250918548339776,3.937830045040073,6.908759811297989,14.283118094651302,14.775064203922415,6.398973823190095,28.126038963787696,21.30844581631029,15.505205802345287,8.86011760134015,11.321261379490196,4.183944422855063,17.966349580495347,9.598460734785192,0.7383431334449995,3.48058291000995,3.968475099013391,3.691715667225069,14.27463391327025,12.305718890750214,13.81751962259598,"{'happy': ['m3', 'm12', 'e1', 'e2']}"
28,11,28,0.934266666666664,10.837982061746706,49.27421897756344,4.456403275353288,6.907337420787483,13.296550539007342,14.305594581435882,6.166338829518367,27.6687670206448,20.87919792013875,15.25594984956838,9.3504208755419,11.81105794805292,5.167337852273164,16.978395800326098,9.104357168290818,1.2303185362555098,3.967658060720554,3.9676580607205327,3.93701931601764,14.763822435066174,13.287440191559554,13.78835279509964,"{'happy': ['m3', 'm12', 'e1', 'e2']}"
29,11,29,0.9676333333333308,11.162452173996927,49.00984996936004,4.363793446999111,7.2891333580820925,12.61583530160985,14.094511581595077,6.303257201220919,28.709632428327005,21.53154191757128,15.758143003052282,9.69731877110911,11.636782525330917,4.848659385554569,17.940039726551817,9.697318771109082,0.9697318771109168,4.390647813984119,4.390647813984119,4.363793446999097,15.030844095219097,13.576246279552734,12.64375677132622,"{'happy': ['m3', 'm12', 'e1', 'e2']}"
30,11,30,1.0009999999999972,11.433733454962976,51.24183774996828,3.9769507669436734,6.977395498512798,13.422208838434813,14.92184838993809,6.46254499628342,28.405459592907413,21.520136461524224,15.659243644840627,9.94237691735914,11.93085230083095,4.971188458679563,17.399159605378486,9.445258071491168,1.4913565376038491,3.5151610696886086,3.9769507669436592,3.72839134400968,14.416446530170733,12.427971146698908,13.998993803314956,"{'happy': ['m3', 'm12', 'e1', 'e2']}"
31,11,31,1.0343666666666638,11.385600306429897,50.99954798889437,3.956470992246281,6.941464581547019,13.36224495787654,14.869700259718368,6.726727939963128,28.75254879142334,21.90063946668621,16.073163406000518,9.396618606584909,11.869412976738843,4.203750429261689,18.051398902123623,10.13845691763106,0.7418383110461946,3.956470992246267,3.956470992246281,3.956470992246281,15.331325094954323,12.858530724800405,13.882929163094042,"{'happy': ['m3', 'm12', 'e1', 'e2']}"
32,11,32,1.0677333333333303,11.271626914745102,50.956899620632,3.947347393261892,6.871978367353135,13.228484739935915,14.207076413958111,6.819452921842532,28.464726856949667,21.681407270499395,15.912266053275829,9.302555538838192,11.26098828385676,3.9168654900371394,18.115502891421727,9.79216372509282,0.4896081862546566,3.947347393261878,3.9168654900371394,3.9168654900371394,15.667461960148527,13.219421028875315,13.743956734706211,"{'happy': ['m3', 'm12', 'e1', 'e2']}"
33,11,33,1.1010999999999969,11.708563156372811,49.29110911909467,3.8994708959742175,6.841460272102398,12.6826506759778,14.143983533268122,5.889685763593801,27.89041868445613,21.16271452608953,15.110449721900096,8.286375653945214,10.7235449639291,4.143187826972621,18.27876982487913,10.479828032930698,0.7311507929951802,3.9298174306666,4.386904757970996,4.143187826972607,15.597883583896872,12.67328041191621,14.211017006109328,"{'happy': ['m3', 'm12', 'e1', 'e2']}"
34,11,34,1.1344666666666634,11.102967266471836,51.714493655062434,4.367249973158582,7.298252182279607,14.019401676981438,15.020589997754108,6.100439380905621,28.47098652913645,21.30791871134465,15.674167576802546,7.234231189293496,10.610205744297105,3.1348335153605262,19.532424211092376,10.851346783940215,0.7234231189293325,4.446421070935071,3.8582566342898583,3.617115594646748,16.397590695731893,12.057051982155798,14.01940167698144,"{'happy': ['m3', 'm12', 'e1', 'e2']}"
35,11,35,1.16783333333333,11.08429132647682,50.35227563981251,3.851766786336782,7.28597602973824,12.555223648883173,14.094848361586983,5.635471795018602,27.448061456214205,20.273296159229098,14.684860872908956,5.777650179505173,11.07382951071824,3.129560513898639,19.01809850753781,10.35162323828007,0.7222062724381431,4.43894189071951,4.814708482920963,4.333237634628873,16.8514796902234,11.555300359010332,13.618052070839244,"{'happy': ['m3', 'm12', 'e1', 'e2']}"
