,frame_seq,video_id,gap,time_seconds,m1,m3,m4,m5,m6,m7,m8,m9,m10,m11,m12,m13,m14,m15,m16,m17,e1,e2,e3,b1,b2,b3,label_measures,label_inf
0,0,2,0,0.0,4.0,67.02984409947557,5.0,9.055385138137416,19.026297590440446,20.024984394500787,27.16615541441225,45.17742799230607,36.12478373637688,34.0,31.0,33.0,5.0,13.0,3.0,1.0,6.082762530298219,6.0,6.5,22.0,17.0,22.09072203437452,{},{}
1,1,2,0,0.0417083333333333,4.0,68.00735254367721,5.0,9.055385138137416,19.026297590440446,20.0,27.16615541441225,45.17742799230607,36.12478373637688,34.0,32.0,33.0,5.5,12.5,2.5,1.5,8.06225774829855,7.071067811865476,7.5,23.0,17.0,21.095023109728988,{},{}
2,2,2,0,0.0834166666666666,4.0,68.0294054067798,5.0990195135927845,9.0,19.0,20.024984394500787,26.0768096208106,44.10215414239989,35.12833614050059,33.0,31.0,33.0,6.0,12.0,2.0,2.0,7.071067811865476,7.071067811865476,7.5,22.0,17.0,22.20360331117452,{},{}
3,3,2,0,0.1251249999999999,4.0,68.0294054067798,5.0,10.04987562112089,19.0,20.0,26.1725046566048,45.17742799230607,35.12833614050059,33.0,31.0,33.0,6.0,13.0,2.0,2.0,7.071067811865476,7.0,7.0,21.0,16.0,21.02379604162864,{},{}
4,4,2,0,0.1668333333333332,4.0,68.0294054067798,5.0990195135927845,11.0,19.0,19.026297590440446,26.0768096208106,46.09772228646444,35.12833614050059,33.0,31.0,33.0,6.0,14.0,2.0,2.0,7.071067811865476,7.071067811865476,7.0,22.0,17.0,22.09072203437452,{},{}
5,5,2,0,0.2085416666666665,3.0,69.00724599634447,7.071067811865476,13.038404810405298,20.0,20.0,25.019992006393608,48.0936586256442,35.05709628591621,33.5,32.0,33.0,7.5,15.5,1.5,1.5,7.071067811865476,6.082762530298219,6.5,21.0,16.0,21.213203435596427,{},{}
6,6,2,0,0.2502499999999998,6.0,72.00694410957877,6.082762530298219,13.038404810405298,21.0,22.02271554554524,26.019223662515376,51.0881590977792,38.05259518088089,35.0,33.0,34.0,7.5,17.5,3.5,2.5,6.082762530298219,6.0,6.5,21.0,16.0,20.024984394500787,{},{}
7,7,2,0,0.2919583333333331,7.071067811865476,72.0,6.082762530298219,12.0,20.024984394500787,21.0,25.019992006393608,50.08991914547278,38.11823710509184,34.5,32.0,32.0,7.0,18.0,6.0,2.0,7.0,7.0,6.5,22.0,17.0,23.021728866442675,{},{}
8,8,2,0,0.3336666666666664,9.055385138137416,74.02702209328699,7.0,13.038404810405298,21.0,22.02271554554524,25.079872407968907,54.147945482723536,41.10960958218893,36.5,31.0,33.0,7.0,22.0,8.0,1.0,6.082762530298219,6.0,6.0,21.0,16.0,22.02271554554524,{},{}
9,9,2,0,0.3753749999999997,8.06225774829855,73.00684899377592,6.0,13.038404810405298,22.0,23.021728866442675,26.0768096208106,53.150729063673246,40.11234224026316,36.0,32.0,33.0,6.5,20.5,6.5,1.5,6.082762530298219,6.0,6.0,22.0,17.0,21.095023109728988,{},{}
10,10,2,0,0.417083333333333,3.0,76.00657866263946,7.071067811865476,12.041594578792296,21.0,23.0,25.079872407968907,47.16990566028302,35.12833614050059,33.5,29.0,30.0,4.5,17.5,4.5,0.5,6.082762530298219,6.0,6.0,22.0,16.0,20.09975124224178,{},{}
11,11,2,0,0.4587916666666662,2.0,76.00657866263946,7.071067811865476,12.041594578792296,21.02379604162864,21.0,25.079872407968907,46.17358552246078,34.132096331752024,33.0,29.0,30.0,4.5,16.5,4.5,0.5,7.071067811865476,6.082762530298219,6.5,22.0,17.0,20.024984394500787,{},{}
12,12,2,0,0.5004999999999996,3.1622776601683795,77.05841939723393,5.0990195135927845,12.0,21.0,22.02271554554524,25.079872407968907,45.17742799230607,33.24154027718932,31.5,26.0,29.0,2.5,17.5,4.5,1.5,7.071067811865476,7.0,7.0,22.0,16.0,22.09072203437452,{},{}
13,13,2,0,0.542208333333333,3.0,77.05841939723393,5.0990195135927845,12.041594578792296,20.0,21.0,25.079872407968907,45.17742799230607,33.13608305156178,31.5,25.0,28.0,1.5,18.5,5.5,2.5,7.071067811865476,7.0,7.0,22.0,16.0,21.095023109728988,{},{}
14,14,2,0,0.5839166666666663,11.04536101718726,79.1012010022604,4.0,10.04987562112089,22.0,23.021728866442675,24.08318915758459,49.16299421312742,39.11521443121589,33.5,24.0,28.0,2.0,23.0,11.0,1.0,6.082762530298219,6.082762530298219,6.0,22.0,16.0,20.024984394500787,{},{}
15,15,2,0,0.6256249999999997,11.0,78.10249675906654,5.0990195135927845,10.04987562112089,22.02271554554524,22.02271554554524,24.020824298928627,50.08991914547278,40.049968789001575,34.5,25.0,29.0,3.0,23.0,11.0,1.0,6.082762530298219,7.071067811865476,6.5,22.0,16.0,20.09975124224178,{},{}
16,16,2,0,0.667333333333333,11.0,77.05841939723393,4.0,10.04987562112089,21.0,21.0,24.08318915758459,49.09175083453431,39.05124837953327,33.5,26.0,29.0,3.5,21.5,10.5,0.5,6.082762530298219,7.071067811865476,7.0,21.0,16.0,20.09975124224178,{},{}
17,17,2,0,0.7090416666666663,10.0,78.10249675906654,4.0,11.04536101718726,21.02379604162864,22.0,24.186773244895647,49.16299421312742,38.11823710509184,33.0,26.0,30.0,4.0,21.0,9.0,1.0,6.0,6.0,6.0,21.0,15.0,19.1049731745428,{},{}
18,18,2,0,0.7507499999999997,10.0,74.02702209328699,5.0,10.04987562112089,20.024984394500787,21.0,23.194827009486403,48.16637831516918,38.11823710509184,33.0,27.0,29.0,5.0,20.0,9.0,2.0,6.082762530298219,7.071067811865476,7.0,20.0,15.0,17.11724276862369,{},{}
19,19,2,0,0.792458333333333,10.0,75.02666192761077,4.0,10.04987562112089,20.0,22.0,24.08318915758459,48.0936586256442,38.05259518088089,33.0,27.0,29.0,4.0,20.0,8.0,1.0,6.082762530298219,6.0,6.0,21.0,16.0,20.09975124224178,{},{}
20,20,2,0,0.8341666666666664,11.0,77.02596964660685,6.0,13.038404810405298,21.02379604162864,23.0,24.08318915758459,54.08326913195984,41.04875150354759,35.5,27.0,29.0,4.0,26.0,12.0,0.0,6.082762530298219,7.0,7.0,23.0,16.0,20.09975124224178,{},{}
21,21,2,0,0.8758749999999997,11.0,76.02631123499285,6.0,14.0356688476182,21.0,23.0,24.08318915758459,55.08175741568164,41.04875150354759,35.5,27.0,29.0,4.0,27.0,12.0,1.0,7.071067811865476,6.082762530298219,6.5,23.0,17.0,20.09975124224178,{},{}
22,22,2,0,0.9175833333333332,13.0,77.00649323271382,5.0990195135927845,12.0,22.0,23.0,24.020824298928627,54.037024344425184,42.04759208325728,35.5,28.0,29.0,4.5,25.5,11.5,0.5,6.082762530298219,5.0,5.5,24.0,17.0,20.223748416156685,{},{}
23,23,2,0,0.9592916666666664,12.041594578792296,76.00657866263946,4.0,11.0,21.0,21.0,24.08318915758459,51.0881590977792,40.11234224026316,34.0,28.0,29.0,4.5,22.5,10.5,1.5,7.071067811865476,6.082762530298219,6.0,22.0,16.0,20.09975124224178,{},{}
24,24,2,0,1.0009999999999997,10.0,73.00684899377592,4.123105625617661,10.0,20.0,21.0,23.08679276123039,47.09564735726647,37.12142238654117,32.0,27.0,28.0,4.5,19.5,8.5,1.5,7.071067811865476,6.0,6.0,22.0,15.0,20.223748416156685,{},{}
25,25,2,0,1.042708333333333,9.055385138137416,73.00684899377592,4.0,11.0,20.0,21.0,23.08679276123039,47.09564735726647,36.12478373637688,31.5,27.0,28.0,4.5,19.5,7.5,1.5,7.071067811865476,6.0,6.5,22.0,15.0,21.095023109728988,{},{}
26,26,2,0,1.084416666666666,7.071067811865476,72.02777242147643,4.0,10.04987562112089,20.0,20.0,24.08318915758459,45.17742799230607,35.12833614050059,31.5,28.0,30.0,5.0,16.0,5.0,2.0,6.082762530298219,6.0,6.5,22.0,16.0,18.110770276274835,{},{}
27,27,2,0,1.1261249999999994,7.071067811865476,72.02777242147643,5.0,11.04536101718726,20.0,21.0,23.08679276123039,46.17358552246078,35.12833614050059,31.5,29.0,31.0,7.0,16.0,4.0,3.0,6.082762530298219,6.082762530298219,6.5,23.0,16.0,19.235384061671343,{},{}
28,28,2,0,1.1678333333333326,8.06225774829855,70.02856560004639,4.0,11.0,20.024984394500787,21.0,23.08679276123039,46.09772228646444,35.12833614050059,31.0,29.0,31.0,7.0,16.0,4.0,3.0,6.082762530298219,6.0,6.0,21.0,15.0,20.09975124224178,{},{}
29,29,2,0,1.2095416666666658,7.0,71.02816342831905,5.0,11.04536101718726,20.0,20.0,23.194827009486403,46.17358552246078,35.12833614050059,31.5,29.0,31.0,7.0,16.0,4.0,3.0,6.082762530298219,6.0,6.0,20.0,15.0,20.024984394500787,{},{}
30,30,2,0,1.251249999999999,10.0,70.02856560004639,4.0,11.04536101718726,19.0,21.0,24.08318915758459,49.09175083453431,38.05259518088089,33.0,30.0,32.0,7.0,18.0,5.0,4.0,6.082762530298219,5.0990195135927845,5.5,21.0,16.0,20.09975124224178,{},{}
31,31,2,0,1.2929583333333323,11.0,71.00704190430693,7.071067811865476,13.0,20.0,21.0,24.020824298928627,55.03635162326805,42.04759208325728,36.5,31.0,32.0,7.5,23.5,8.5,1.5,5.0990195135927845,5.0,5.5,22.0,16.0,19.026297590440446,{},{}
32,32,2,0,1.3346666666666656,6.082762530298219,70.02856560004639,6.0,14.0,20.0,21.0,25.079872407968907,51.0881590977792,37.12142238654117,34.0,30.0,32.0,6.0,20.0,4.0,1.0,6.082762530298219,6.0,6.0,23.0,17.0,20.223748416156685,{},{}
33,33,2,0,1.3763749999999988,6.0,69.02897942168927,6.0,12.041594578792296,18.0,20.0,24.08318915758459,48.0936586256442,36.05551275463989,33.0,29.0,31.0,6.0,18.0,4.0,1.0,6.0,5.0,5.5,22.0,17.0,19.026297590440446,{},{}
34,34,2,0,1.418083333333332,2.0,71.00704190430693,6.0,13.038404810405298,20.0,21.0,25.079872407968907,46.09772228646444,33.06055050963308,32.0,30.0,31.0,5.5,15.5,1.5,1.5,6.0,6.082762530298219,6.0,21.0,16.0,19.1049731745428,{},{}
35,35,2,0,1.4597916666666653,2.0,71.00704190430693,6.082762530298219,12.0,20.0,21.02379604162864,25.019992006393608,45.044422518220834,33.06055050963308,32.0,30.0,31.0,5.5,14.5,1.5,0.5,6.082762530298219,5.0990195135927845,5.5,21.0,16.0,19.1049731745428,{},{}
36,36,2,0,1.5014999999999985,1.0,71.00704190430693,4.0,11.04536101718726,19.0,20.0,25.079872407968907,41.10960958218893,30.066592756745816,29.5,29.0,30.0,4.5,11.5,0.5,1.5,6.0,6.0,6.0,21.0,16.0,21.02379604162864,{},{}
37,37,2,0,1.5432083333333315,1.0,72.02777242147643,5.0,11.0,19.0,20.024984394500787,24.186773244895647,41.10960958218893,30.14962686336267,29.5,29.0,31.0,6.0,11.0,1.0,2.0,6.0,6.0,6.0,21.0,16.0,22.09072203437452,{},{}
38,38,2,0,1.584916666666665,4.0,72.00694410957877,6.0,11.04536101718726,20.0,21.0,24.020824298928627,45.044422518220834,34.0147027033899,32.0,30.0,31.0,6.5,14.5,2.5,1.5,7.071067811865476,6.082762530298219,6.0,21.0,17.0,20.223748416156685,{},{}
39,39,2,0,1.6266249999999982,5.0,71.00704190430693,6.082762530298219,13.0,19.0,20.0,24.020824298928627,48.04164859785725,35.05709628591621,32.5,30.0,31.0,6.5,17.5,3.5,1.5,7.071067811865476,7.0,7.0,22.0,17.0,19.026297590440446,{},{}
40,40,2,0,1.6683333333333314,5.0,70.00714249274856,6.082762530298219,13.0,20.024984394500787,21.0,25.079872407968907,49.09175083453431,36.12478373637688,33.5,31.0,32.0,6.5,17.5,3.5,2.5,7.071067811865476,6.082762530298219,6.0,21.0,18.0,18.027756377319943,{},{}
41,41,2,0,1.710041666666665,4.0,69.0,6.082762530298219,12.0,18.0,19.0,26.0768096208106,48.0936586256442,36.12478373637688,34.0,32.0,32.0,6.0,16.0,3.0,1.0,7.0,6.0,6.0,21.0,18.0,20.024984394500787,{},{}
42,42,2,0,1.751749999999998,5.0,70.00714249274856,6.082762530298219,13.0,19.026297590440446,20.024984394500787,25.019992006393608,49.04079934095692,36.05551275463989,33.5,31.0,32.0,6.5,17.5,3.5,1.5,6.082762530298219,6.082762530298219,6.0,21.0,18.0,18.027756377319943,{},{}
43,43,2,0,1.7934583333333312,5.0,73.00684899377592,6.0,13.038404810405298,20.024984394500787,21.0,25.019992006393608,49.04079934095692,36.013886210738214,33.5,30.0,31.0,5.5,18.5,4.5,0.5,7.0,6.082762530298219,6.5,21.0,18.0,20.09975124224178,{},{}
44,44,2,0,1.8351666666666644,4.0,75.0,7.0,13.0,19.026297590440446,21.0,25.019992006393608,49.01020301937138,36.013886210738214,34.0,31.0,31.0,6.0,18.0,4.0,1.0,7.0,6.0,6.5,22.0,20.0,21.02379604162864,{},{}
45,45,2,0,1.8768749999999976,8.0,76.0,6.0,11.0,20.024984394500787,21.0,26.019223662515376,51.0098029794274,40.01249804748511,36.0,32.0,32.0,6.0,19.0,7.0,2.0,6.0,6.0,6.0,20.0,19.0,21.02379604162864,{},{}
46,46,2,0,1.9185833333333309,2.23606797749979,74.00675644831355,6.0,10.0,20.024984394500787,21.02379604162864,25.0,43.01162633521314,33.015148038438355,32.0,31.0,30.0,5.5,12.5,1.5,1.5,6.0,7.0,6.5,20.0,18.0,20.0,{},{}
47,47,2,0,1.960291666666664,1.0,74.02702209328699,5.0,10.0,19.026297590440446,20.0,25.019992006393608,41.01219330881976,31.016124838541646,30.5,30.0,28.0,4.0,12.0,1.0,0.0,6.082762530298219,5.0,5.5,20.0,18.0,19.026297590440446,{},{}
48,48,2,0,2.0019999999999976,1.0,73.02739212103907,5.0990195135927845,10.0,19.026297590440446,20.024984394500787,26.019223662515376,40.0,30.0,30.5,31.0,29.0,4.0,10.0,0.0,1.0,7.0,6.0,6.5,18.0,17.0,18.0,{},{}
49,49,2,0,2.043708333333331,1.4142135623730951,74.00675644831355,5.0990195135927845,10.0,19.026297590440446,20.024984394500787,25.0,39.0,29.0,29.5,29.0,28.0,3.5,10.5,0.5,0.5,7.0,6.0,6.5,19.0,19.0,20.0,{},{}
50,50,2,0,2.085416666666664,0.0,74.00675644831355,5.0,10.0,19.026297590440446,20.024984394500787,25.0,40.0,30.0,30.0,29.0,28.0,3.5,11.5,0.5,0.5,6.0,6.0,6.0,19.0,19.0,20.0,{},{}
51,51,2,0,2.1271249999999973,0.0,76.00657866263946,5.0,11.0,20.024984394500787,20.0,25.0,41.0,30.0,30.0,29.0,28.0,3.5,12.5,0.5,0.5,6.0,6.0,6.5,19.0,19.0,19.0,{},{}
52,52,2,0,2.1688333333333305,1.0,76.00657866263946,5.0,11.04536101718726,21.0,21.0,26.0,41.01219330881976,30.0,30.5,30.0,29.0,3.5,11.5,0.5,0.5,7.0,7.0,7.0,19.0,19.0,20.0,{},{}
53,53,2,0,2.210541666666664,0.0,76.02631123499285,5.0,10.04987562112089,19.0,20.024984394500787,26.0,41.01219330881976,31.0,31.0,30.0,28.0,3.0,12.0,1.0,1.0,6.0,6.0,6.5,18.0,20.0,20.0,{},{}
54,54,2,0,2.252249999999997,2.0,76.02631123499285,5.0,11.04536101718726,19.026297590440446,19.026297590440446,27.018512172212592,41.04875150354759,30.01666203960727,31.0,31.0,29.0,3.0,11.0,0.0,0.0,6.0,5.0,5.0,17.0,18.0,19.026297590440446,{},{}
55,55,2,0,2.29395833333333,0.0,74.06078584514209,5.0990195135927845,10.0,19.026297590440446,20.024984394500787,26.019223662515376,41.0,31.0,31.0,31.0,28.0,3.5,11.5,0.5,0.5,7.0,6.0,6.5,18.0,20.0,19.026297590440446,{},{}
56,56,2,0,2.3356666666666634,0.0,73.06161783043132,5.0,11.04536101718726,20.024984394500787,19.026297590440446,26.0,42.01190307520001,31.0,31.0,32.0,29.0,4.5,11.5,0.5,0.5,7.0,7.0,7.0,18.0,19.0,18.0,{},{}
57,57,2,0,2.3773749999999967,0.0,73.02739212103907,5.0,9.055385138137416,20.024984394500787,20.024984394500787,27.0,41.01219330881976,32.0,32.0,32.0,30.0,4.0,10.0,0.0,1.0,7.0,7.071067811865476,7.0,18.0,20.0,20.0,{},{}
58,58,2,0,2.41908333333333,1.0,73.06161783043132,5.0,10.0,20.0,20.024984394500787,27.0,42.01190307520001,32.01562118716424,32.0,33.0,30.0,4.5,10.5,0.5,0.5,6.0,6.0,6.0,19.0,21.0,22.0,{},{}
59,59,2,0,2.460791666666663,0.0,74.06078584514209,6.0,10.04987562112089,19.026297590440446,21.02379604162864,26.019223662515376,42.04759208325728,32.01562118716424,32.0,33.0,30.0,5.5,10.5,0.5,1.5,7.0,7.071067811865476,7.0,20.0,22.0,21.0,{},{}
60,60,2,0,2.5024999999999964,0.0,73.06161783043132,5.0990195135927845,11.04536101718726,20.024984394500787,21.02379604162864,27.0,43.04648650006177,32.01562118716424,32.0,33.0,30.0,4.5,11.5,0.5,0.5,7.0,6.082762530298219,6.0,18.0,21.0,21.0,{},{}
61,61,2,0,2.5442083333333296,1.4142135623730951,72.11102550927978,6.0,11.0,19.026297590440446,20.024984394500787,26.0,44.01136216933077,33.015148038438355,32.5,34.0,30.0,6.0,12.0,0.0,1.0,7.0,6.082762530298219,6.5,18.0,20.0,21.0,{},{}
62,62,2,0,2.585916666666663,7.0,73.06161783043132,5.0990195135927845,11.04536101718726,20.024984394500787,21.02379604162864,26.0,49.04079934095692,38.01315561749642,34.5,34.0,31.0,6.5,16.5,5.5,2.5,7.0,7.0,7.0,18.0,20.0,21.0,{},{}
63,63,2,0,2.627624999999996,7.0,73.06161783043132,6.0,11.04536101718726,19.0,21.02379604162864,25.019992006393608,49.04079934095692,38.01315561749642,34.5,34.0,31.0,7.5,16.5,5.5,2.5,7.0,7.0,7.0,18.0,20.0,21.02379604162864,{},{}
64,64,2,0,2.6693333333333293,7.0,73.06161783043132,5.0990195135927845,10.04987562112089,20.024984394500787,21.02379604162864,26.0,48.04164859785725,38.01315561749642,34.5,34.0,31.0,6.5,15.5,4.5,2.5,7.0,7.0,7.0,19.0,21.0,21.0,{},{}
65,65,2,0,2.7110416666666626,7.0,72.02777242147643,5.0990195135927845,10.04987562112089,19.026297590440446,19.026297590440446,26.0,48.04164859785725,38.01315561749642,34.5,33.0,31.0,6.0,16.0,6.0,3.0,7.0,6.082762530298219,6.0,19.0,21.0,21.0,{},{}
66,66,2,0,2.752749999999996,7.0,72.06247289678588,5.0990195135927845,10.04987562112089,19.026297590440446,20.024984394500787,26.0,48.04164859785725,38.01315561749642,34.5,34.0,31.0,6.5,15.5,4.5,3.5,7.0,6.0,6.0,18.0,20.0,20.024984394500787,{},{}
67,67,2,0,2.794458333333329,4.0,72.06247289678588,5.0990195135927845,11.04536101718726,19.026297590440446,19.1049731745428,26.019223662515376,46.09772228646444,35.05709628591621,33.0,33.0,30.0,5.5,14.5,3.5,1.5,7.0,6.082762530298219,6.0,17.0,20.0,19.0,{},{}
68,68,2,0,2.8361666666666623,5.0,72.11102550927978,6.082762530298219,10.04987562112089,19.1049731745428,20.024984394500787,25.0,46.04345773288535,36.013886210738214,33.5,33.0,29.0,6.0,15.0,5.0,2.0,8.06225774829855,7.071067811865476,7.0,19.0,21.0,21.02379604162864,{},{}
69,69,2,0,2.8778749999999955,1.0,72.11102550927978,6.082762530298219,11.04536101718726,20.024984394500787,20.09975124224178,26.0,44.04543109109048,33.015148038438355,32.5,32.0,28.0,4.0,14.0,3.0,0.0,8.0,7.071067811865476,7.0,18.0,20.0,21.0,{},{}
70,70,2,0,2.9195833333333288,2.23606797749979,75.1065909225016,6.0,11.04536101718726,20.024984394500787,21.095023109728988,25.019992006393608,44.10215414239989,33.06055050963308,32.0,31.0,27.0,4.0,15.0,3.0,0.0,7.0,7.071067811865476,7.0,18.0,22.0,21.02379604162864,{},{}
71,71,2,0,2.961291666666662,6.0,76.16429609731846,5.0990195135927845,12.041594578792296,21.095023109728988,22.02271554554524,26.0,49.04079934095692,37.01351104664349,34.0,32.0,27.0,3.5,19.5,6.5,0.5,7.0,6.0,6.0,18.0,20.0,21.02379604162864,{},{}
72,72,2,0,3.0029999999999952,9.0,76.16429609731846,6.0,11.04536101718726,20.09975124224178,22.09072203437452,26.019223662515376,52.03844732503075,41.01219330881976,36.5,32.0,27.0,3.5,22.5,10.5,0.5,7.071067811865476,6.082762530298219,6.0,18.0,21.0,22.02271554554524,{},{}
73,73,2,0,3.0447083333333285,10.0,75.16648189186454,7.071067811865476,12.041594578792296,19.026297590440446,21.095023109728988,24.020824298928627,53.08483775994799,41.04875150354759,36.0,32.0,27.0,5.5,23.5,10.5,0.5,7.0,6.082762530298219,6.0,18.0,21.0,21.02379604162864,{},{}
74,74,2,0,3.0864166666666617,10.0,75.16648189186454,7.0,14.0356688476182,22.02271554554524,24.020824298928627,25.079872407968907,56.08029957123981,42.04759208325728,37.0,34.0,29.0,6.5,24.5,9.5,1.5,7.0,7.071067811865476,7.0,18.0,21.0,21.02379604162864,{},{}
75,75,2,0,3.128124999999995,3.1622776601683795,71.17583859709698,7.0,13.038404810405298,20.09975124224178,21.095023109728988,27.018512172212592,50.08991914547278,37.05401462729781,35.5,35.0,30.0,5.5,17.5,4.5,0.5,7.071067811865476,7.071067811865476,7.0,18.0,21.0,20.024984394500787,{},{}
76,76,2,0,3.169833333333328,1.0,71.11258679024411,7.0,11.0,19.1049731745428,20.09975124224178,26.019223662515376,44.04543109109048,33.06055050963308,33.0,33.0,29.0,5.0,13.0,1.0,1.0,7.0,6.082762530298219,6.5,18.0,21.0,18.027756377319943,{},{}
77,77,2,0,3.2115416666666614,1.4142135623730951,71.17583859709698,7.0,13.038404810405298,19.1049731745428,20.09975124224178,27.018512172212592,48.0936586256442,35.05709628591621,34.5,35.0,30.0,5.5,15.5,2.5,0.5,7.071067811865476,7.0,7.0,19.0,22.0,20.024984394500787,{},{}
78,78,2,0,3.253249999999994,8.06225774829855,74.16872656315464,6.0,12.041594578792296,20.09975124224178,21.095023109728988,26.019223662515376,52.08646657242167,40.049968789001575,36.0,34.0,29.0,5.5,20.5,7.5,1.5,6.0,7.071067811865476,7.0,18.0,21.0,20.0,{},{}
79,79,2,0,3.294958333333328,7.071067811865476,76.10519036176179,7.071067811865476,12.0,20.024984394500787,21.02379604162864,26.0,52.03844732503075,40.049968789001575,36.5,33.0,29.0,5.0,21.0,8.0,0.0,7.071067811865476,6.0,6.5,17.0,21.0,20.024984394500787,{},{}
80,80,2,0,3.336666666666661,2.23606797749979,74.10802925459562,7.0,13.0,20.024984394500787,20.09975124224178,27.018512172212592,49.04079934095692,36.05551275463989,35.0,33.0,29.0,4.0,18.0,5.0,1.0,7.0,6.0,6.0,17.0,21.0,21.02379604162864,{},{}
81,81,2,0,3.3783749999999944,4.123105625617661,75.16648189186454,7.0,14.0356688476182,21.095023109728988,21.095023109728988,26.0,51.03920062069938,37.01351104664349,35.0,34.0,29.0,5.5,19.5,5.5,0.5,7.0,7.0,7.0,18.0,21.0,23.0,{},{}
82,82,2,0,3.420083333333328,5.0990195135927845,75.16648189186454,7.0,13.038404810405298,20.09975124224178,21.095023109728988,26.0,51.03920062069938,38.01315561749642,35.5,34.0,29.0,5.5,19.5,5.5,0.5,7.0,6.0,6.5,18.0,21.0,21.0,{},{}
83,83,2,0,3.461791666666661,11.04536101718726,73.24616030891995,6.0,12.041594578792296,20.09975124224178,21.095023109728988,26.019223662515376,55.08175741568164,43.04648650006177,37.5,34.0,28.0,5.0,24.0,11.0,2.0,7.071067811865476,6.082762530298219,6.5,19.0,22.0,21.02379604162864,{},{}
84,84,2,0,3.503499999999994,9.055385138137416,71.25307010929424,6.0,13.038404810405298,20.09975124224178,21.095023109728988,25.019992006393608,53.08483775994799,40.049968789001575,35.5,35.0,29.0,7.0,21.0,8.0,3.0,6.082762530298219,6.0,6.5,18.0,21.0,21.0,{},{}
85,85,2,0,3.545208333333328,7.071067811865476,64.19501538281614,5.0,13.0,18.110770276274835,18.027756377319943,27.018512172212592,52.03844732503075,39.05124837953327,35.5,37.0,32.0,7.5,17.5,4.5,4.5,7.071067811865476,6.082762530298219,6.5,18.0,22.0,21.02379604162864,{},{}
86,86,2,0,3.5869166666666605,1.0,60.20797289396148,6.082762530298219,13.038404810405298,17.11724276862369,17.11724276862369,29.017236257093817,49.09175083453431,36.05551275463989,35.5,40.0,35.0,8.5,11.5,1.5,5.5,7.071067811865476,6.0,6.0,17.0,22.0,19.026297590440446,{},{}
87,87,2,0,3.6286249999999938,1.0,59.30430001273095,5.0990195135927845,14.0356688476182,16.1245154965971,17.11724276862369,29.017236257093817,49.09175083453431,35.05709628591621,34.5,40.0,34.0,8.0,12.0,1.0,5.0,7.0,6.0,6.5,18.0,22.0,20.024984394500787,{},{}
88,88,2,0,3.670333333333327,1.4142135623730951,58.215118311311535,7.0,14.0356688476182,16.1245154965971,17.11724276862369,29.017236257093817,51.0881590977792,37.05401462729781,36.5,41.0,36.0,9.5,12.5,1.5,5.5,7.0,7.0,7.0,17.0,21.0,19.0,{},{}
89,89,2,0,3.71204166666666,3.0,58.215118311311535,6.082762530298219,13.038404810405298,16.1245154965971,17.11724276862369,28.0178514522438,50.08991914547278,37.05401462729781,35.5,40.0,35.0,9.5,12.5,0.5,5.5,6.0,6.0,6.5,17.0,21.0,19.026297590440446,{},{}
90,90,2,0,3.7537499999999935,3.0,57.21887800367987,6.0,14.0356688476182,16.1245154965971,16.1245154965971,29.017236257093817,52.03844732503075,38.01315561749642,36.5,41.0,36.0,9.5,13.5,0.5,5.5,7.0,7.0,7.0,17.0,22.0,19.0,{},{}
91,91,2,0,3.795458333333327,5.0990195135927845,60.13318551349163,7.0,14.0356688476182,16.1245154965971,18.110770276274835,28.0,54.037024344425184,40.01249804748511,37.5,40.0,36.0,10.0,16.0,1.0,6.0,8.0,7.071067811865476,7.0,18.0,22.0,20.0,{},{}
92,92,2,0,3.83716666666666,9.055385138137416,67.1863081289633,6.0,14.0356688476182,18.027756377319943,19.1049731745428,27.018512172212592,56.08029957123981,42.04759208325728,37.5,38.0,33.0,8.5,20.5,5.5,3.5,8.0,7.0,7.0,18.0,23.0,19.0,{},{}
93,93,2,0,3.878874999999993,6.0,67.1863081289633,7.071067811865476,15.033296378372908,18.110770276274835,19.1049731745428,27.018512172212592,55.08175741568164,40.049968789001575,37.0,38.0,33.0,8.5,19.5,4.5,3.5,7.0,7.071067811865476,7.0,18.0,22.0,20.0,{},{}
94,94,2,0,3.9205833333333264,1.0,68.26419266350405,6.0,11.04536101718726,19.1049731745428,20.09975124224178,28.0178514522438,46.04345773288535,35.0142828000232,34.5,37.0,31.0,6.0,12.0,1.0,2.0,8.0,7.0,7.5,17.0,21.0,20.024984394500787,{},{}
95,95,2,0,3.96229166666666,1.0,68.18357573492314,6.0,11.04536101718726,19.1049731745428,19.1049731745428,27.018512172212592,45.044422518220834,34.0147027033899,33.5,37.0,32.0,7.5,10.5,0.5,3.5,7.0,7.0,7.0,17.0,22.0,20.0,{},{}
96,96,2,0,4.003999999999993,3.1622776601683795,67.1863081289633,6.0,13.038404810405298,18.027756377319943,19.1049731745428,28.0178514522438,50.08991914547278,37.05401462729781,35.5,38.0,33.0,7.5,14.5,1.5,3.5,7.071067811865476,7.071067811865476,7.0,17.0,21.0,20.024984394500787,{},{}
97,97,2,0,4.045708333333327,7.071067811865476,66.12110101926616,6.0,13.038404810405298,18.027756377319943,19.026297590440446,28.0178514522438,54.08326913195984,41.04875150354759,37.5,38.0,34.0,8.0,18.0,4.0,4.0,7.071067811865476,6.0,6.5,17.0,23.0,19.026297590440446,{},{}
98,98,2,0,4.08741666666666,6.082762530298219,66.18912297349165,6.0,14.0356688476182,18.110770276274835,19.1049731745428,28.0178514522438,54.08326913195984,40.049968789001575,37.0,39.0,34.0,8.5,17.5,3.5,4.5,8.0,7.071067811865476,7.0,17.0,23.0,20.024984394500787,{},{}
99,99,2,0,4.129124999999993,5.0,66.27216610312357,6.0,14.0356688476182,18.110770276274835,19.1049731745428,28.0713376952364,53.08483775994799,39.05124837953327,36.5,39.0,33.0,8.0,17.0,3.0,4.0,7.071067811865476,6.0,6.5,18.0,22.0,19.026297590440446,{},{}
100,100,2,0,4.170833333333326,6.082762530298219,67.26812023536856,6.0,13.038404810405298,18.110770276274835,19.1049731745428,28.0178514522438,53.08483775994799,40.049968789001575,37.0,39.0,33.0,8.0,17.0,4.0,4.0,7.0,6.0,6.5,17.0,23.0,19.026297590440446,{},{}
101,101,2,0,4.21254166666666,5.0990195135927845,65.27633568147036,6.0,13.038404810405298,19.1049731745428,19.1049731745428,28.0178514522438,52.08646657242167,39.05124837953327,36.5,39.0,33.0,8.0,16.0,3.0,4.0,8.0,7.071067811865476,7.5,16.0,22.0,20.09975124224178,{},{}
102,102,2,0,4.254249999999993,10.0,67.26812023536856,6.082762530298219,12.041594578792296,18.110770276274835,20.09975124224178,27.018512172212592,55.08175741568164,43.04648650006177,38.0,39.0,33.0,9.0,19.0,7.0,5.0,7.0,7.0,7.0,18.0,23.0,19.026297590440446,{},{}
103,103,2,0,4.295958333333326,4.123105625617661,66.18912297349165,7.0,14.0356688476182,17.029386365926403,19.1049731745428,27.073972741361768,52.15361924162119,38.11823710509184,36.0,38.0,33.0,8.5,16.5,2.5,3.5,7.0,7.071067811865476,7.0,16.0,21.0,19.026297590440446,{},{}
104,104,2,0,4.337666666666659,2.0,66.27216610312357,6.0,12.041594578792296,18.110770276274835,19.1049731745428,28.0713376952364,48.0936586256442,36.05551275463989,35.0,39.0,33.0,8.0,12.0,0.0,4.0,7.0,6.082762530298219,6.5,16.0,21.0,18.027756377319943,{},{}
105,105,2,0,4.3793749999999925,1.4142135623730951,67.1863081289633,5.0,10.04987562112089,19.1049731745428,19.1049731745428,28.0178514522438,44.10215414239989,34.058772731852805,33.5,37.0,32.0,6.5,9.5,0.5,3.5,7.071067811865476,7.071067811865476,7.0,15.0,21.0,19.026297590440446,{},{}
106,106,2,0,4.421083333333326,1.0,70.178344238091,6.0,10.04987562112089,19.1049731745428,18.027756377319943,28.0,44.04543109109048,34.0147027033899,34.0,37.0,32.0,6.5,9.5,0.5,2.5,6.0,6.082762530298219,6.5,15.0,21.0,18.027756377319943,{},{}
107,107,2,0,4.462791666666659,3.1622776601683795,69.26037828369117,6.0,12.041594578792296,18.110770276274835,20.09975124224178,29.017236257093817,50.08991914547278,38.05259518088089,36.5,38.0,32.0,6.0,15.0,3.0,2.0,6.082762530298219,6.082762530298219,6.0,16.0,21.0,18.027756377319943,{},{}
108,108,2,0,4.504499999999992,6.082762530298219,71.17583859709698,6.082762530298219,12.041594578792296,20.09975124224178,21.213203435596427,28.0178514522438,52.15361924162119,40.11234224026316,37.0,38.0,33.0,7.5,16.5,4.5,3.5,7.071067811865476,7.0,7.0,16.0,21.0,20.024984394500787,{},{}
109,109,2,0,4.546208333333325,4.123105625617661,69.26037828369117,6.0,12.041594578792296,18.110770276274835,19.1049731745428,28.0178514522438,50.08991914547278,38.05259518088089,36.0,37.0,31.0,6.0,16.0,4.0,2.0,7.071067811865476,6.082762530298219,6.5,17.0,22.0,19.026297590440446,{},{}
110,110,2,0,4.587916666666659,1.4142135623730951,68.18357573492314,5.0,9.055385138137416,19.1049731745428,19.1049731745428,30.0,45.044422518220834,36.013886210738214,35.5,37.0,32.0,4.5,10.5,1.5,1.5,7.0,7.071067811865476,7.0,16.0,21.0,17.029386365926403,{},{}
111,111,2,0,4.629624999999992,1.0,69.18092222571191,5.0,9.055385138137416,18.027756377319943,19.026297590440446,28.0,42.04759208325728,33.015148038438355,33.0,35.0,30.0,4.5,9.5,0.5,1.5,7.0,6.082762530298219,6.5,15.0,21.0,20.09975124224178,{},{}
112,112,2,0,4.671333333333325,0.0,71.17583859709698,5.0990195135927845,10.198039027185567,19.1049731745428,19.1049731745428,29.0,44.10215414239989,34.0147027033899,34.0,36.0,31.0,4.5,10.5,0.5,1.5,7.071067811865476,7.071067811865476,7.5,16.0,21.0,20.09975124224178,{},{}
113,113,2,0,4.713041666666658,3.1622776601683795,67.26812023536856,6.082762530298219,11.04536101718726,18.110770276274835,19.1049731745428,30.0,50.08991914547278,39.05124837953327,37.5,37.0,31.0,4.0,16.0,5.0,0.0,6.0,5.0990195135927845,5.5,16.0,21.0,21.02379604162864,{},{}
114,114,2,0,4.754749999999992,5.0990195135927845,74.33034373659252,6.0,13.038404810405298,20.09975124224178,21.095023109728988,28.0178514522438,52.08646657242167,39.05124837953327,36.5,37.0,30.0,5.5,18.5,5.5,1.5,7.071067811865476,6.082762530298219,6.0,16.0,20.0,21.02379604162864,{},{}
115,115,2,0,4.796458333333325,5.0990195135927845,74.24284477308234,7.071067811865476,12.041594578792296,19.1049731745428,20.223748416156685,27.018512172212592,51.15662224971465,39.11521443121589,36.5,36.0,30.0,6.0,18.0,6.0,1.0,7.0,7.071067811865476,6.5,17.0,22.0,19.026297590440446,{},{}
116,116,2,0,4.838166666666658,3.1622776601683795,76.23647421018367,7.071067811865476,13.038404810405298,21.213203435596427,22.09072203437452,27.018512172212592,50.15974481593781,37.12142238654117,35.5,35.0,29.0,5.0,18.0,5.0,1.0,6.0,6.082762530298219,6.0,17.0,22.0,19.1049731745428,{},{}
117,117,2,0,4.879874999999991,2.0,76.16429609731846,7.071067811865476,13.038404810405298,21.213203435596427,22.09072203437452,26.0768096208106,48.16637831516918,35.12833614050059,34.0,35.0,30.0,6.5,15.5,3.5,1.5,7.071067811865476,6.082762530298219,6.0,16.0,21.0,19.026297590440446,{},{}
118,118,2,0,4.9215833333333245,8.06225774829855,73.24616030891995,6.0,12.041594578792296,20.223748416156685,21.213203435596427,25.079872407968907,51.15662224971465,39.11521443121589,35.0,37.0,31.0,9.0,17.0,5.0,5.0,7.071067811865476,6.082762530298219,6.5,16.0,21.0,18.027756377319943,{},{}
119,119,2,0,4.963291666666658,9.055385138137416,73.24616030891995,4.0,11.04536101718726,18.110770276274835,20.223748416156685,25.079872407968907,49.16299421312742,38.11823710509184,33.5,35.0,29.0,7.0,17.0,6.0,5.0,7.071067811865476,6.082762530298219,6.0,15.0,21.0,19.026297590440446,{},{}
120,120,2,0,5.004999999999991,7.0,72.3394774656273,5.0990195135927845,12.041594578792296,20.09975124224178,21.213203435596427,24.020824298928627,48.0936586256442,36.05551275463989,32.5,35.0,28.0,7.5,16.5,4.5,4.5,7.071067811865476,7.071067811865476,6.5,16.0,23.0,21.095023109728988,{},{}
121,121,2,0,5.046708333333324,7.0,73.33484846919642,5.0990195135927845,12.041594578792296,19.1049731745428,21.213203435596427,24.020824298928627,48.0936586256442,36.05551275463989,32.5,35.0,28.0,7.5,16.5,4.5,4.5,6.0,5.0990195135927845,5.0,15.0,21.0,19.0,{},{}
122,122,2,0,5.0884166666666575,10.0,71.34423592694787,4.0,12.16552506059644,19.1049731745428,20.223748416156685,25.079872407968907,51.15662224971465,39.05124837953327,34.0,36.0,29.0,7.5,18.5,7.5,5.5,7.071067811865476,6.082762530298219,6.0,15.0,22.0,18.110770276274835,{},{}
123,123,2,0,5.130124999999991,11.0,69.46221994724903,5.0990195135927845,12.041594578792296,18.110770276274835,20.223748416156685,25.019992006393608,53.08483775994799,41.04875150354759,35.5,37.0,29.0,8.0,20.0,8.0,5.0,7.071067811865476,6.082762530298219,6.0,16.0,22.0,20.09975124224178,{},{}
124,124,2,0,5.171833333333324,5.0990195135927845,67.36467917239716,8.06225774829855,14.0356688476182,20.09975124224178,21.095023109728988,26.019223662515376,53.150729063673246,39.11521443121589,36.5,39.0,32.0,9.5,17.5,2.5,3.5,6.082762530298219,6.082762530298219,6.0,16.0,21.0,18.110770276274835,{},{}
125,125,2,0,5.213541666666657,5.0,66.37017402418047,9.055385138137416,16.0312195418814,19.235384061671343,21.213203435596427,25.079872407968907,55.14526271584895,39.11521443121589,36.5,38.0,31.0,9.5,20.5,4.5,3.5,7.071067811865476,6.082762530298219,6.0,16.0,22.0,19.026297590440446,{},{}
126,126,2,0,5.25524999999999,9.0,68.3593446428504,7.071067811865476,14.0356688476182,21.095023109728988,21.095023109728988,26.019223662515376,56.08029957123981,42.04759208325728,37.5,40.0,33.0,10.5,19.5,5.5,5.5,6.082762530298219,5.0990195135927845,5.0,16.0,21.0,20.024984394500787,{},{}
127,127,2,0,5.296958333333324,11.0,70.25667228100119,8.06225774829855,14.0356688476182,21.095023109728988,22.09072203437452,26.019223662515376,59.07622195096772,45.044422518220834,39.5,41.0,35.0,12.0,21.0,7.0,6.0,6.0,6.082762530298219,6.0,15.0,21.0,20.09975124224178,{},{}
128,128,2,0,5.338666666666657,11.0,69.46221994724903,8.06225774829855,15.033296378372908,21.095023109728988,23.194827009486403,26.019223662515376,60.07495318350236,45.044422518220834,39.5,41.0,33.0,11.0,23.0,8.0,5.0,6.0,5.385164807134504,5.5,16.0,22.0,22.09072203437452,{},{}
129,129,2,0,5.38037499999999,11.0,71.34423592694787,8.06225774829855,14.0356688476182,21.213203435596427,22.20360331117452,26.019223662515376,59.07622195096772,45.044422518220834,39.5,40.0,33.0,10.5,22.5,8.5,5.5,7.0,6.082762530298219,6.0,16.0,22.0,21.02379604162864,{},{}
130,130,2,0,5.422083333333323,7.071067811865476,74.43117626371358,7.0,13.038404810405298,21.095023109728988,22.20360331117452,26.0768096208106,53.150729063673246,40.11234224026316,36.5,38.0,30.0,8.0,19.0,6.0,3.0,5.0990195135927845,6.082762530298219,6.0,16.0,22.0,19.026297590440446,{},{}
131,131,2,0,5.463791666666657,5.0990195135927845,74.43117626371358,7.0,11.04536101718726,22.20360331117452,22.20360331117452,26.0768096208106,49.16299421312742,38.11823710509184,35.5,37.0,29.0,7.0,16.0,5.0,2.0,6.082762530298219,6.0,6.0,16.0,21.0,22.02271554554524,{},{}
132,132,2,0,5.50549999999999,6.0,75.32595834106593,7.0,12.16552506059644,20.09975124224178,21.213203435596427,24.186773244895647,49.25444142409901,37.12142238654117,34.0,35.0,28.0,7.5,17.5,5.5,2.5,7.071067811865476,6.082762530298219,6.0,16.0,22.0,17.029386365926403,{},{}
133,133,2,0,5.547208333333323,7.071067811865476,73.43704787094863,4.0,10.04987562112089,20.09975124224178,20.223748416156685,25.079872407968907,46.17358552246078,36.12478373637688,32.5,37.0,29.0,8.0,13.0,3.0,6.0,6.082762530298219,5.0990195135927845,5.5,14.0,21.0,20.09975124224178,{},{}
134,134,2,0,5.588916666666656,9.0,69.35416353759881,5.0990195135927845,10.04987562112089,19.1049731745428,20.09975124224178,24.08318915758459,48.16637831516918,38.11823710509184,33.5,37.0,30.0,9.5,14.5,4.5,6.5,6.0,6.082762530298219,6.0,15.0,21.0,20.024984394500787,{},{}
135,135,2,0,5.6306249999999896,10.0,69.35416353759881,3.1622776601683795,10.04987562112089,19.1049731745428,20.223748416156685,25.079872407968907,48.16637831516918,38.11823710509184,33.0,38.0,31.0,9.5,13.5,4.5,8.5,6.082762530298219,6.082762530298219,6.0,14.0,21.0,18.027756377319943,{},{}
136,136,2,0,5.672333333333323,1.0,67.26812023536856,5.0990195135927845,11.180339887498947,19.1049731745428,19.235384061671343,26.019223662515376,43.18564576337837,32.0624390837628,31.5,36.0,30.0,7.0,10.0,1.0,4.0,5.0990195135927845,5.0,5.0,15.0,20.0,19.026297590440446,{},{}
137,137,2,0,5.714041666666656,1.0,67.26812023536856,4.0,9.055385138137416,19.1049731745428,19.026297590440446,26.019223662515376,39.11521443121589,30.066592756745816,30.0,33.0,27.0,4.0,9.0,1.0,2.0,5.0,5.0,5.0,15.0,22.0,23.021728866442675,{},{}
138,138,2,0,5.755749999999989,0.0,67.26812023536856,5.0990195135927845,11.04536101718726,19.026297590440446,20.09975124224178,25.019992006393608,41.10960958218893,30.066592756745816,30.0,33.0,27.0,5.0,11.0,1.0,2.0,6.0,6.082762530298219,6.0,16.0,22.0,23.08679276123039,{},{}
139,139,2,0,5.7974583333333225,1.0,68.3593446428504,5.0,12.041594578792296,19.1049731745428,19.1049731745428,27.018512172212592,44.10215414239989,32.0624390837628,32.0,34.0,27.0,3.5,13.5,1.5,0.5,6.082762530298219,6.0,6.0,16.0,21.0,23.0,{},{}
140,140,2,0,5.839166666666656,2.0,68.3593446428504,7.071067811865476,12.041594578792296,18.110770276274835,19.1049731745428,27.018512172212592,48.0936586256442,36.05551275463989,35.0,36.0,29.0,5.5,15.5,3.5,1.5,6.0,6.0,6.0,16.0,22.0,22.02271554554524,{},{}
141,141,2,0,5.880874999999989,3.0,70.25667228100119,7.071067811865476,15.033296378372908,18.110770276274835,20.09975124224178,27.018512172212592,52.08646657242167,37.05401462729781,35.5,36.0,30.0,6.0,19.0,5.0,1.0,6.0,6.0,6.0,17.0,23.0,23.021728866442675,{},{}
142,142,2,0,5.922583333333322,3.1622776601683795,69.26037828369117,7.071067811865476,13.038404810405298,19.235384061671343,20.09975124224178,28.0713376952364,51.24451190127583,38.2099463490856,36.5,37.0,31.0,6.0,17.0,4.0,2.0,6.0,6.082762530298219,6.5,17.0,23.0,22.09072203437452,{},{}
143,143,2,0,5.964291666666656,3.1622776601683795,72.24956747275377,7.071067811865476,14.0,20.09975124224178,20.09975124224178,26.0768096208106,50.15974481593781,36.22154055254967,34.5,36.0,30.0,7.0,17.0,3.0,2.0,6.082762530298219,6.082762530298219,6.0,16.0,22.0,22.09072203437452,{},{}
144,144,2,0,6.005999999999989,5.0990195135927845,73.33484846919642,7.071067811865476,13.038404810405298,20.09975124224178,21.095023109728988,26.0768096208106,51.24451190127583,38.2099463490856,35.5,36.0,29.0,6.5,18.5,5.5,1.5,6.082762530298219,6.082762530298219,6.5,15.0,22.0,23.08679276123039,{},{}
145,145,2,0,6.047708333333322,8.06225774829855,73.33484846919642,7.0,10.04987562112089,21.213203435596427,21.095023109728988,26.0768096208106,51.15662224971465,41.10960958218893,37.0,37.0,30.0,7.5,17.5,6.5,3.5,6.0,5.0990195135927845,5.5,16.0,22.0,22.02271554554524,{},{}
146,146,2,0,6.089416666666655,10.0,74.33034373659252,5.0,10.04987562112089,21.095023109728988,22.20360331117452,25.079872407968907,50.08991914547278,40.049968789001575,35.0,36.0,29.0,7.5,17.5,8.5,4.5,7.071067811865476,6.082762530298219,6.5,16.0,23.0,22.02271554554524,{},{}
147,147,2,0,6.131124999999988,7.0,72.3394774656273,5.0990195135927845,10.04987562112089,20.024984394500787,21.095023109728988,26.0768096208106,48.16637831516918,38.11823710509184,34.5,37.0,30.0,7.5,14.5,4.5,4.5,6.0,6.082762530298219,6.5,16.0,23.0,23.021728866442675,{},{}
148,148,2,0,6.172833333333322,8.06225774829855,72.3394774656273,5.0,10.04987562112089,21.095023109728988,21.095023109728988,26.0768096208106,49.16299421312742,39.11521443121589,35.0,37.0,30.0,7.5,15.5,5.5,4.5,6.0,5.0990195135927845,5.5,16.0,22.0,21.095023109728988,{},{}
149,149,2,0,6.214541666666655,8.06225774829855,72.3394774656273,5.0,10.04987562112089,21.095023109728988,21.213203435596427,25.079872407968907,48.16637831516918,38.11823710509184,34.0,36.0,29.0,7.5,15.5,5.5,4.5,6.0,6.082762530298219,6.5,16.0,22.0,23.021728866442675,{},{}
150,150,2,0,6.256249999999988,8.06225774829855,72.3394774656273,5.0,10.04987562112089,20.09975124224178,21.095023109728988,26.0768096208106,49.16299421312742,39.11521443121589,35.0,37.0,30.0,7.5,15.5,5.5,4.5,6.0,5.0990195135927845,5.5,16.0,22.0,23.021728866442675,{},{}
151,151,2,0,6.297958333333321,8.06225774829855,72.24956747275377,5.0,10.04987562112089,20.09975124224178,21.213203435596427,25.079872407968907,48.16637831516918,38.11823710509184,34.0,36.0,30.0,8.0,15.0,5.0,5.0,6.082762530298219,6.0,6.0,16.0,22.0,23.021728866442675,{},{}
152,152,2,0,6.339666666666655,8.06225774829855,74.33034373659252,5.0,10.04987562112089,20.223748416156685,21.213203435596427,25.079872407968907,48.16637831516918,38.11823710509184,34.0,37.0,30.0,8.5,14.5,5.5,5.5,6.0,6.082762530298219,6.0,16.0,22.0,21.095023109728988,{},{}
153,153,2,0,6.381374999999988,7.0,72.3394774656273,5.0990195135927845,10.04987562112089,20.09975124224178,21.095023109728988,26.019223662515376,48.0936586256442,38.05259518088089,34.5,37.0,30.0,7.5,14.5,5.5,4.5,6.0,5.0990195135927845,5.5,15.0,22.0,24.186773244895647,{},{}
154,154,2,0,6.423083333333321,7.0,72.3394774656273,5.0990195135927845,10.198039027185567,20.09975124224178,21.213203435596427,26.019223662515376,48.16637831516918,38.05259518088089,34.5,37.0,30.0,7.5,14.5,5.5,4.5,7.071067811865476,6.082762530298219,6.0,16.0,22.0,22.09072203437452,{},{}
155,155,2,0,6.464791666666654,8.0,72.3394774656273,5.0990195135927845,10.04987562112089,19.235384061671343,21.213203435596427,25.019992006393608,48.0936586256442,38.05259518088089,34.0,37.0,30.0,8.5,14.5,4.5,5.5,7.071067811865476,6.082762530298219,6.0,15.0,22.0,22.02271554554524,{},{}
156,156,2,0,6.506499999999988,6.082762530298219,72.3394774656273,5.0,9.055385138137416,19.1049731745428,20.223748416156685,26.0768096208106,46.17358552246078,37.12142238654117,34.0,37.0,30.0,7.5,12.5,3.5,4.5,7.0,6.082762530298219,6.5,16.0,22.0,20.024984394500787,{},{}
157,157,2,0,6.548208333333321,7.071067811865476,72.44308110509934,5.0,9.055385138137416,20.09975124224178,20.223748416156685,26.0768096208106,47.16990566028302,38.11823710509184,34.5,38.0,30.0,8.0,13.0,4.0,5.0,6.082762530298219,6.082762530298219,6.5,15.0,21.0,21.02379604162864,{},{}
158,158,2,0,6.589916666666654,2.23606797749979,74.43117626371358,7.071067811865476,12.041594578792296,19.1049731745428,20.223748416156685,26.019223662515376,47.16990566028302,35.12833614050059,34.0,37.0,29.0,7.0,14.0,2.0,2.0,6.082762530298219,5.0990195135927845,5.5,16.0,22.0,20.09975124224178,{},{}
159,159,2,0,6.631624999999987,2.23606797749979,76.4198926981712,7.071067811865476,12.041594578792296,21.213203435596427,22.09072203437452,27.073972741361768,48.25971404805462,36.22154055254967,35.0,36.0,28.0,5.0,16.0,4.0,1.0,6.082762530298219,5.0990195135927845,5.5,16.0,23.0,21.02379604162864,{},{}
160,160,2,0,6.6733333333333205,2.8284271247461903,77.64663547121665,6.0,11.04536101718726,22.20360331117452,22.20360331117452,26.019223662515376,45.17742799230607,34.132096331752024,33.0,36.0,26.0,5.0,14.0,3.0,2.0,6.082762530298219,5.0990195135927845,5.5,14.0,22.0,21.095023109728988,{},{}
161,161,2,0,6.715041666666654,11.04536101718726,76.53103945458993,5.0,10.198039027185567,20.223748416156685,22.20360331117452,24.08318915758459,50.24937810560445,40.11234224026316,34.5,36.0,27.0,7.5,18.5,8.5,4.5,6.082762530298219,6.082762530298219,6.0,15.0,23.0,24.186773244895647,{},{}
162,162,2,0,6.756749999999987,8.0,72.56031973468694,6.082762530298219,12.16552506059644,21.213203435596427,21.213203435596427,23.021728866442675,49.16299421312742,37.05401462729781,33.0,36.0,27.0,8.5,17.5,5.5,5.5,7.0,6.082762530298219,6.0,14.0,23.0,23.194827009486403,{},{}
163,163,2,0,6.79845833333332,9.055385138137416,70.57619995437555,5.0,11.04536101718726,20.223748416156685,21.213203435596427,23.08679276123039,48.16637831516918,37.12142238654117,32.5,36.0,27.0,8.5,16.5,5.5,5.5,6.082762530298219,6.082762530298219,6.0,15.0,24.0,23.194827009486403,{},{}
164,164,2,0,6.840166666666653,9.055385138137416,68.46897107449476,5.0,11.04536101718726,19.235384061671343,21.213203435596427,23.08679276123039,48.16637831516918,37.12142238654117,32.5,36.0,28.0,9.0,16.0,5.0,6.0,7.071067811865476,7.071067811865476,6.5,15.0,24.0,23.08679276123039,{},{}
165,165,2,0,6.881874999999987,8.06225774829855,69.35416353759881,5.0,12.041594578792296,19.1049731745428,20.223748416156685,24.186773244895647,49.25444142409901,37.21558813185679,33.0,36.0,29.0,8.5,16.5,4.5,5.5,7.071067811865476,5.0990195135927845,5.5,15.0,23.0,23.08679276123039,{},{}
166,166,2,0,6.92358333333332,5.0990195135927845,66.48308055437865,8.06225774829855,16.0312195418814,18.24828759089466,20.223748416156685,26.019223662515376,55.14526271584895,39.11521443121589,36.5,41.0,33.0,11.0,18.0,2.0,5.0,6.082762530298219,5.0990195135927845,5.5,15.0,23.0,24.08318915758459,{},{}
167,167,2,0,6.965291666666653,1.0,65.37583651472461,6.0,11.04536101718726,18.24828759089466,18.24828759089466,28.0178514522438,45.09988913511872,34.058772731852805,34.0,38.0,31.0,6.5,10.5,0.5,3.5,7.071067811865476,5.0990195135927845,5.5,15.0,22.0,23.08679276123039,{},{}
168,168,2,0,7.006999999999986,1.0,65.37583651472461,7.071067811865476,11.04536101718726,18.110770276274835,18.24828759089466,27.0,45.09988913511872,34.058772731852805,34.0,38.0,31.0,7.5,10.5,0.5,2.5,6.0,5.0990195135927845,5.5,15.0,23.0,23.194827009486403,{},{}
169,169,2,0,7.04870833333332,3.1622776601683795,66.27216610312357,5.0990195135927845,12.041594578792296,17.26267650163207,18.110770276274835,27.018512172212592,47.16990566028302,35.12833614050059,33.5,38.0,32.0,8.0,12.0,0.0,5.0,6.0,6.082762530298219,6.5,16.0,23.0,22.09072203437452,{},{}
170,170,2,0,7.090416666666653,8.06225774829855,69.26037828369117,5.0,11.04536101718726,20.223748416156685,20.223748416156685,26.019223662515376,50.08991914547278,39.05124837953327,35.0,38.0,32.0,9.0,15.0,4.0,6.0,6.0,5.0990195135927845,5.5,15.0,23.0,25.179356624028344,{},{}
171,171,2,0,7.132124999999986,8.06225774829855,69.35416353759881,5.0,11.04536101718726,20.09975124224178,20.223748416156685,25.019992006393608,49.09175083453431,38.05259518088089,34.0,38.0,31.0,9.5,14.5,3.5,6.5,6.082762530298219,6.082762530298219,6.5,15.0,22.0,22.20360331117452,{},{}
172,172,2,0,7.173833333333319,7.0,68.3593446428504,5.0990195135927845,11.180339887498947,19.235384061671343,20.223748416156685,27.018512172212592,50.15974481593781,39.05124837953327,35.5,39.0,32.0,8.5,14.5,3.5,6.5,6.0,5.0990195135927845,5.5,15.0,22.0,23.194827009486403,{},{}
173,173,2,0,7.2155416666666525,7.071067811865476,68.3593446428504,5.0,11.04536101718726,20.09975124224178,20.223748416156685,26.019223662515376,49.09175083453431,38.05259518088089,34.5,38.0,31.0,8.5,14.5,3.5,5.5,6.0,6.324555320336759,6.0,15.0,22.0,22.09072203437452,{},{}
174,174,2,0,7.257249999999986,8.0,68.26419266350405,5.0990195135927845,10.04987562112089,20.09975124224178,21.213203435596427,26.019223662515376,49.09175083453431,39.05124837953327,35.0,37.0,31.0,8.0,15.0,5.0,5.0,6.082762530298219,5.0990195135927845,5.5,15.0,23.0,22.20360331117452,{},{}
175,175,2,0,7.298958333333319,7.071067811865476,69.35416353759881,6.0,11.04536101718726,20.09975124224178,21.213203435596427,25.079872407968907,49.16299421312742,38.11823710509184,34.5,38.0,31.0,9.5,14.5,4.5,5.5,7.0,5.0990195135927845,5.5,15.0,22.0,22.09072203437452,{},{}
176,176,2,0,7.340666666666652,9.0,69.35416353759881,4.123105625617661,11.04536101718726,19.235384061671343,20.09975124224178,26.019223662515376,50.08991914547278,39.05124837953327,34.5,38.0,31.0,8.5,15.5,5.5,6.5,6.0,6.082762530298219,6.0,15.0,22.0,21.095023109728988,{},{}
177,177,2,0,7.3823749999999855,9.0,69.35416353759881,5.0990195135927845,11.04536101718726,20.09975124224178,21.095023109728988,26.019223662515376,51.0881590977792,40.049968789001575,35.5,38.0,31.0,8.5,16.5,5.5,5.5,7.0,6.082762530298219,6.0,15.0,23.0,21.095023109728988,{},{}
178,178,2,0,7.424083333333319,9.055385138137416,70.34912934784623,5.0,11.04536101718726,19.235384061671343,20.09975124224178,26.0768096208106,51.15662224971465,40.11234224026316,35.5,38.0,31.0,8.5,16.5,5.5,5.5,6.0,6.324555320336759,6.5,16.0,23.0,22.09072203437452,{},{}
179,179,2,0,7.465791666666652,8.06225774829855,68.3593446428504,6.082762530298219,11.04536101718726,19.1049731745428,20.09975124224178,26.0768096208106,51.24451190127583,40.19950248448356,36.0,38.0,31.0,8.5,16.5,5.5,4.5,6.082762530298219,6.082762530298219,6.5,16.0,23.0,21.095023109728988,{},{}
180,180,2,0,7.507499999999985,9.055385138137416,67.36467917239716,5.0990195135927845,10.04987562112089,19.1049731745428,21.213203435596427,26.019223662515376,50.15974481593781,40.11234224026316,35.5,38.0,31.0,8.5,15.5,5.5,5.5,6.082762530298219,6.082762530298219,6.5,16.0,23.0,20.09975124224178,{},{}
181,181,2,0,7.549208333333318,9.055385138137416,67.36467917239716,5.0990195135927845,10.04987562112089,19.1049731745428,20.223748416156685,26.0768096208106,50.24937810560445,40.19950248448356,35.5,37.0,30.0,7.5,16.5,6.5,4.5,6.0,6.0,6.5,17.0,23.0,22.09072203437452,{},{}
182,182,2,0,7.590916666666652,9.055385138137416,68.3593446428504,5.0,11.04536101718726,20.09975124224178,20.223748416156685,26.0768096208106,51.15662224971465,40.11234224026316,35.5,37.0,30.0,7.5,17.5,6.5,4.5,6.082762530298219,6.082762530298219,6.0,17.0,23.0,20.024984394500787,{},{}
183,183,2,0,7.632624999999985,9.055385138137416,69.35416353759881,5.0,11.04536101718726,19.1049731745428,20.09975124224178,25.079872407968907,50.15974481593781,39.11521443121589,34.5,36.0,29.0,7.5,17.5,6.5,4.5,6.0,6.082762530298219,6.0,17.0,25.0,19.1049731745428,{},{}
184,184,2,0,7.674333333333318,9.055385138137416,70.34912934784623,5.0,11.04536101718726,20.09975124224178,21.095023109728988,26.0768096208106,51.15662224971465,40.11234224026316,35.5,37.0,30.0,7.5,17.5,6.5,4.5,7.0,6.082762530298219,6.0,18.0,26.0,20.09975124224178,{},{}
185,185,2,0,7.716041666666651,9.055385138137416,69.35416353759881,5.0,11.04536101718726,20.09975124224178,21.095023109728988,26.0768096208106,51.15662224971465,40.11234224026316,35.5,37.0,30.0,7.5,17.5,6.5,4.5,7.071067811865476,6.082762530298219,6.5,17.0,25.0,20.223748416156685,{},{}
186,186,2,0,7.757749999999985,8.06225774829855,71.34423592694787,5.0,10.04987562112089,20.09975124224178,21.213203435596427,26.0768096208106,49.16299421312742,39.11521443121589,35.0,37.0,30.0,7.5,15.5,5.5,4.5,6.082762530298219,5.0990195135927845,5.5,17.0,25.0,21.095023109728988,{},{}
187,187,2,0,7.799458333333318,7.071067811865476,70.25667228100119,5.0,11.04536101718726,20.09975124224178,21.095023109728988,26.0768096208106,49.16299421312742,38.11823710509184,34.5,36.0,30.0,7.0,16.0,6.0,4.0,6.0,5.0990195135927845,5.5,18.0,26.0,23.194827009486403,{},{}
188,188,2,0,7.841166666666651,8.0,70.25667228100119,5.0990195135927845,11.04536101718726,20.09975124224178,22.09072203437452,26.019223662515376,50.08991914547278,39.05124837953327,35.0,36.0,30.0,7.0,17.0,6.0,4.0,7.0,6.082762530298219,6.0,17.0,24.0,22.02271554554524,{},{}
189,189,2,0,7.882874999999984,11.04536101718726,73.24616030891995,6.082762530298219,12.041594578792296,21.095023109728988,21.095023109728988,26.019223662515376,55.14526271584895,43.10452412450461,37.5,35.0,29.0,6.0,23.0,11.0,2.0,6.0,6.0,6.0,17.0,24.0,22.09072203437452,{},{}
190,190,2,0,7.924583333333317,11.04536101718726,77.41446893184762,6.082762530298219,12.041594578792296,21.213203435596427,23.194827009486403,25.079872407968907,54.230987451824994,42.190046219457976,36.5,34.0,26.0,5.0,24.0,12.0,2.0,7.0,6.082762530298219,6.0,19.0,25.0,24.08318915758459,{},{}
191,191,2,0,7.966291666666651,11.04536101718726,76.4198926981712,7.071067811865476,12.041594578792296,21.213203435596427,23.08679276123039,25.079872407968907,55.22680508593631,43.18564576337837,37.5,35.0,27.0,6.0,24.0,12.0,2.0,7.0,6.082762530298219,6.0,18.0,26.0,25.179356624028344,{},{}
192,192,2,0,8.007999999999985,12.041594578792296,76.4198926981712,7.0,12.16552506059644,21.213203435596427,23.194827009486403,25.179356624028344,56.32051136131489,44.181444068749045,38.0,35.0,27.0,6.0,25.0,12.0,2.0,6.0,5.0990195135927845,5.5,18.0,25.0,23.08679276123039,{},{}
193,193,2,0,8.049708333333319,12.041594578792296,75.4254598925323,7.071067811865476,12.041594578792296,21.213203435596427,23.194827009486403,25.079872407968907,56.22277118748239,44.181444068749045,38.0,35.0,27.0,6.0,25.0,12.0,2.0,6.0,5.0990195135927845,5.5,18.0,25.0,23.08679276123039,{},{}
194,194,2,0,8.091416666666653,10.04987562112089,75.4254598925323,5.0990195135927845,11.04536101718726,20.223748416156685,21.213203435596427,25.019992006393608,51.15662224971465,40.11234224026316,35.0,35.0,27.0,6.0,20.0,9.0,4.0,6.082762530298219,5.0990195135927845,5.5,16.0,23.0,21.095023109728988,{},{}
195,195,2,0,8.133124999999987,8.06225774829855,74.43117626371358,5.0,11.04536101718726,20.223748416156685,21.213203435596427,24.08318915758459,48.16637831516918,37.12142238654117,33.0,33.0,25.0,5.0,19.0,9.0,3.0,6.082762530298219,5.0990195135927845,5.5,17.0,26.0,22.20360331117452,{},{}
196,196,2,0,8.174833333333321,8.06225774829855,75.4254598925323,5.0990195135927845,10.04987562112089,21.213203435596427,21.213203435596427,24.08318915758459,47.265209192385896,37.21558813185679,33.0,33.0,25.0,5.0,18.0,8.0,3.0,6.082762530298219,5.0990195135927845,5.5,18.0,26.0,22.09072203437452,{},{}
197,197,2,0,8.216541666666656,9.055385138137416,75.4254598925323,4.0,11.04536101718726,20.09975124224178,22.20360331117452,25.079872407968907,49.16299421312742,38.11823710509184,33.5,34.0,26.0,5.0,19.0,8.0,3.0,6.0,5.0990195135927845,5.0,18.0,26.0,21.213203435596427,{},{}
198,198,2,0,8.25824999999999,10.04987562112089,74.33034373659252,5.0990195135927845,11.04536101718726,19.1049731745428,21.213203435596427,25.019992006393608,51.15662224971465,40.11234224026316,35.0,34.0,27.0,5.5,20.5,9.5,2.5,6.0,5.0990195135927845,5.5,17.0,23.0,22.09072203437452,{},{}
199,199,2,0,8.299958333333324,9.055385138137416,75.32595834106593,6.0,11.04536101718726,19.235384061671343,21.213203435596427,25.079872407968907,51.15662224971465,40.11234224026316,35.5,34.0,27.0,5.5,20.5,9.5,2.5,6.0,5.0990195135927845,5.5,17.0,25.0,21.095023109728988,{},{}
200,200,2,0,8.341666666666658,9.055385138137416,76.4198926981712,5.0990195135927845,11.04536101718726,20.223748416156685,22.20360331117452,25.019992006393608,50.15974481593781,39.11521443121589,34.5,34.0,26.0,5.0,20.0,9.0,3.0,6.082762530298219,5.0990195135927845,5.5,17.0,26.0,21.095023109728988,{},{}
201,201,2,0,8.383374999999992,10.04987562112089,74.43117626371358,5.0990195135927845,10.04987562112089,19.1049731745428,21.213203435596427,25.019992006393608,50.15974481593781,40.11234224026316,35.0,34.0,26.0,5.0,20.0,10.0,2.0,6.082762530298219,5.0990195135927845,5.5,17.0,24.0,20.024984394500787,{},{}
202,202,2,0,8.425083333333326,9.055385138137416,74.43117626371358,4.123105625617661,10.04987562112089,20.09975124224178,21.213203435596427,25.019992006393608,48.16637831516918,38.11823710509184,33.5,34.0,26.0,5.0,18.0,8.0,3.0,6.0,6.082762530298219,6.0,17.0,25.0,23.08679276123039,{},{}
203,203,2,0,8.46679166666666,9.055385138137416,74.33034373659252,5.0,11.04536101718726,20.09975124224178,22.20360331117452,25.019992006393608,50.08991914547278,39.05124837953327,34.5,34.0,27.0,5.5,19.5,8.5,2.5,6.0,5.0990195135927845,5.5,17.0,23.0,22.09072203437452,{},{}
204,204,2,0,8.508499999999994,7.071067811865476,71.34423592694787,7.071067811865476,15.033296378372908,20.223748416156685,21.095023109728988,25.019992006393608,54.147945482723536,39.11521443121589,35.5,35.0,28.0,6.5,22.5,7.5,2.5,6.082762530298219,6.082762530298219,6.0,17.0,24.0,21.02379604162864,{},{}
205,205,2,0,8.550208333333329,3.1622776601683795,69.26037828369117,5.0,14.0356688476182,19.1049731745428,20.09975124224178,26.019223662515376,48.0936586256442,34.058772731852805,32.5,34.0,28.0,5.0,17.0,3.0,2.0,6.082762530298219,5.0990195135927845,5.5,17.0,23.0,21.095023109728988,{},{}
206,206,2,0,8.591916666666663,2.23606797749979,70.25667228100119,6.0,13.038404810405298,20.09975124224178,21.095023109728988,25.019992006393608,46.09772228646444,33.06055050963308,32.0,34.0,28.0,6.0,15.0,2.0,3.0,7.0,5.0990195135927845,5.5,15.0,22.0,22.09072203437452,{},{}
207,207,2,0,8.633624999999997,4.0,69.18092222571191,5.0990195135927845,12.041594578792296,19.1049731745428,20.09975124224178,26.0,47.042533945356304,35.0142828000232,33.0,34.0,29.0,5.5,15.5,2.5,2.5,7.071067811865476,6.082762530298219,6.5,16.0,22.0,21.095023109728988,{},{}
208,208,2,0,8.675333333333331,6.0,71.25307010929424,5.0,13.038404810405298,20.09975124224178,22.20360331117452,26.019223662515376,50.039984012787215,37.01351104664349,34.0,35.0,29.0,6.0,18.0,5.0,4.0,6.0,6.082762530298219,6.5,16.0,22.0,23.021728866442675,{},{}
209,209,2,0,8.717041666666665,8.0,71.25307010929424,4.123105625617661,12.041594578792296,21.095023109728988,22.09072203437452,26.0,50.039984012787215,38.01315561749642,34.0,36.0,30.0,7.0,17.0,5.0,5.0,6.0,6.082762530298219,6.0,15.0,22.0,21.095023109728988,{},{}
210,210,2,0,8.75875,8.06225774829855,69.18092222571191,5.0,12.041594578792296,20.223748416156685,21.213203435596427,27.018512172212592,52.08646657242167,40.049968789001575,36.0,36.0,31.0,6.5,18.5,6.5,4.5,6.082762530298219,5.0,5.5,16.0,24.0,21.095023109728988,{},{}
211,211,2,0,8.800458333333333,9.055385138137416,68.26419266350405,5.0,13.038404810405298,20.223748416156685,20.09975124224178,26.019223662515376,53.08483775994799,40.049968789001575,35.5,36.0,30.0,7.0,20.0,7.0,4.0,6.082762530298219,6.082762530298219,6.0,17.0,23.0,21.095023109728988,{},{}
212,212,2,0,8.842166666666667,9.055385138137416,69.35416353759881,4.123105625617661,12.041594578792296,19.235384061671343,21.213203435596427,26.019223662515376,51.03920062069938,39.01281840626232,34.5,36.0,29.0,6.5,18.5,6.5,4.5,6.0,6.082762530298219,6.0,16.0,23.0,21.095023109728988,{},{}
213,213,2,0,8.883875000000002,3.1622776601683795,71.25307010929424,4.0,11.04536101718726,19.235384061671343,20.09975124224178,26.0,44.04543109109048,33.015148038438355,31.5,33.0,27.0,4.0,14.0,3.0,3.0,6.082762530298219,6.082762530298219,6.0,15.0,23.0,20.024984394500787,{},{}
214,214,2,0,8.925583333333336,1.0,70.11419257183242,4.123105625617661,10.04987562112089,19.1049731745428,19.1049731745428,27.018512172212592,41.04875150354759,31.016124838541646,31.0,33.0,29.0,4.0,10.0,0.0,2.0,5.0,5.0,5.0,17.0,22.0,21.02379604162864,{},{}
215,215,2,0,8.96729166666667,1.4142135623730951,70.178344238091,4.0,9.055385138137416,18.110770276274835,19.1049731745428,27.0,41.04875150354759,32.01562118716424,31.5,34.0,29.0,4.5,9.5,0.5,2.5,5.0990195135927845,6.082762530298219,6.0,16.0,22.0,20.024984394500787,{},{}
216,216,2,0,9.009000000000004,1.4142135623730951,70.178344238091,4.0,11.04536101718726,18.110770276274835,19.1049731745428,27.018512172212592,43.10452412450461,32.0624390837628,31.5,35.0,30.0,5.5,10.5,0.5,3.5,6.082762530298219,6.082762530298219,6.0,16.0,23.0,22.02271554554524,{},{}
217,217,2,0,9.050708333333338,1.4142135623730951,70.25667228100119,4.0,11.04536101718726,18.110770276274835,19.1049731745428,28.0,44.04543109109048,33.015148038438355,32.5,36.0,30.0,5.0,11.0,0.0,3.0,4.123105625617661,4.123105625617661,4.0,17.0,22.0,20.024984394500787,{},{}
218,218,2,0,9.092416666666672,2.0,69.26037828369117,6.082762530298219,11.04536101718726,19.1049731745428,19.1049731745428,27.0,46.04345773288535,35.0142828000232,34.0,36.0,30.0,6.0,13.0,1.0,2.0,2.23606797749979,2.0,2.0,17.0,23.0,15.033296378372908,{},{}
219,219,2,0,9.134125000000006,2.23606797749979,67.26812023536856,6.0,11.04536101718726,18.027756377319943,18.110770276274835,27.018512172212592,46.09772228646444,35.05709628591621,34.0,36.0,30.0,6.0,13.0,1.0,2.0,3.1622776601683795,3.0,3.0,18.0,22.0,20.0,{},{}
220,220,2,0,9.17583333333334,1.4142135623730951,69.18092222571191,5.0,11.0,18.110770276274835,19.1049731745428,25.019992006393608,42.04759208325728,31.064449134018133,30.5,34.0,29.0,6.5,10.5,0.5,3.5,4.0,4.0,4.0,17.0,22.0,21.02379604162864,{},{}
221,221,2,0,9.217541666666676,1.4142135623730951,72.17340230306452,4.0,10.04987562112089,19.1049731745428,19.026297590440446,26.019223662515376,41.10960958218893,31.064449134018133,30.5,34.0,29.0,5.5,9.5,1.5,3.5,4.0,3.1622776601683795,4.0,16.0,20.0,22.0,{},{}
222,222,2,0,9.259250000000009,2.23606797749979,66.27216610312357,6.082762530298219,12.041594578792296,19.026297590440446,19.1049731745428,25.019992006393608,45.044422518220834,33.015148038438355,32.0,36.0,30.0,8.0,12.0,1.0,4.0,5.0990195135927845,5.0990195135927845,5.5,17.0,21.0,21.0,{},{}
223,223,2,0,9.300958333333345,3.1622776601683795,60.20797289396148,5.0,12.041594578792296,17.11724276862369,17.11724276862369,27.0,47.042533945356304,35.0142828000232,33.5,38.0,33.0,8.5,11.5,0.5,5.5,5.0,5.0990195135927845,5.5,17.0,21.0,21.0,"{'smile': ['m3', 'm12']}","{'smile': [223, 261]}"
224,224,2,0,9.342666666666675,4.123105625617661,59.21148537234985,6.0,13.0,16.0312195418814,18.027756377319943,27.0,50.00999900019995,37.01351104664349,35.0,39.0,34.0,9.5,13.5,0.5,5.5,6.0,6.0,6.0,18.0,22.0,20.0,"{'smile': ['m3', 'm12']}","{'smile': [223, 261]}"
225,225,2,0,9.384375000000013,5.0990195135927845,59.13543776789008,6.0,13.0,17.11724276862369,17.11724276862369,27.0,51.0098029794274,38.01315561749642,35.5,38.0,34.0,9.0,15.0,2.0,5.0,6.082762530298219,6.0,6.0,18.0,22.0,20.0,"{'smile': ['m3', 'm12']}","{'smile': [223, 261]}"
226,226,2,0,9.426083333333343,5.0990195135927845,60.13318551349163,6.0,13.0,17.11724276862369,18.027756377319943,27.0,51.0098029794274,38.01315561749642,35.5,39.0,35.0,10.0,14.0,1.0,6.0,6.0,5.0990195135927845,6.0,19.0,22.0,18.0,"{'smile': ['m3', 'm12']}","{'smile': [223, 261]}"
227,227,2,0,9.46779166666668,6.0,61.1310068623117,5.0,14.0356688476182,17.029386365926403,18.110770276274835,27.0,52.009614495783374,38.0,35.0,38.0,34.0,9.0,16.0,1.0,5.0,5.0,5.0,5.5,18.0,21.0,20.0,"{'smile': ['m3', 'm12']}","{'smile': [223, 261]}"
228,228,2,0,9.509500000000012,8.0,65.12296062065974,6.082762530298219,12.041594578792296,18.110770276274835,19.1049731745428,26.0,52.03844732503075,40.01249804748511,36.0,37.0,33.0,9.0,17.0,5.0,5.0,5.0,6.082762530298219,6.0,16.0,19.0,20.0,"{'smile': ['m3', 'm12']}","{'smile': [223, 261]}"
229,229,2,0,9.551208333333348,8.0,68.18357573492314,5.0990195135927845,12.041594578792296,19.026297590440446,20.09975124224178,26.0,51.03920062069938,39.01281840626232,35.0,37.0,32.0,8.5,16.5,4.5,5.5,5.0,5.0,5.0,18.0,22.0,21.0,"{'smile': ['m3', 'm12']}","{'smile': [223, 261]}"
230,230,2,0,9.592916666666682,9.055385138137416,69.1158447825099,5.0,11.04536101718726,19.1049731745428,20.09975124224178,25.0,50.039984012787215,39.01281840626232,34.5,36.0,32.0,9.0,16.0,4.0,6.0,5.0,5.0990195135927845,5.0,18.0,23.0,20.024984394500787,"{'smile': ['m3', 'm12']}","{'smile': [223, 261]}"
231,231,2,0,9.634625000000016,8.06225774829855,70.178344238091,5.0,12.041594578792296,19.1049731745428,20.09975124224178,25.019992006393608,50.08991914547278,38.05259518088089,34.0,36.0,31.0,8.5,16.5,4.5,5.5,6.0,5.0,5.0,17.0,21.0,21.0,"{'smile': ['m3', 'm12']}","{'smile': [223, 261]}"
232,232,2,0,9.67633333333335,9.0,70.11419257183242,5.0990195135927845,11.04536101718726,20.09975124224178,21.095023109728988,25.019992006393608,50.08991914547278,39.05124837953327,34.5,36.0,32.0,9.0,16.0,4.0,6.0,6.082762530298219,5.0,5.5,16.0,21.0,20.024984394500787,"{'smile': ['m3', 'm12']}","{'smile': [223, 261]}"
233,233,2,0,9.718041666666684,8.0,69.18092222571191,4.123105625617661,11.04536101718726,19.1049731745428,20.09975124224178,26.019223662515376,49.09175083453431,38.05259518088089,34.0,36.0,31.0,7.5,15.5,3.5,5.5,6.0,6.0,6.5,17.0,20.0,19.0,"{'smile': ['m3', 'm12']}","{'smile': [223, 261]}"
234,234,2,0,9.759750000000018,6.0,69.1158447825099,4.123105625617661,11.04536101718726,19.1049731745428,20.09975124224178,27.018512172212592,48.0936586256442,37.05401462729781,34.0,37.0,33.0,8.0,13.0,2.0,5.0,6.0,5.0990195135927845,5.0,16.0,19.0,20.024984394500787,"{'smile': ['m3', 'm12']}","{'smile': [223, 261]}"
235,235,2,0,9.801458333333352,1.4142135623730951,67.1863081289633,4.0,9.0,17.11724276862369,18.110770276274835,29.017236257093817,43.04648650006177,34.058772731852805,33.5,36.0,31.0,4.5,9.5,0.5,2.5,6.082762530298219,6.082762530298219,6.0,18.0,20.0,20.024984394500787,"{'smile': ['m3', 'm12']}","{'smile': [223, 261]}"
236,236,2,0,9.843166666666686,0.0,69.1158447825099,5.0,8.06225774829855,18.027756377319943,18.027756377319943,29.017236257093817,42.04759208325728,34.0147027033899,34.0,35.0,31.0,4.0,9.0,0.0,1.0,6.0,7.071067811865476,7.0,18.0,20.0,20.024984394500787,"{'smile': ['m3', 'm12']}","{'smile': [223, 261]}"
237,237,2,0,9.88487500000002,1.0,68.18357573492314,5.0,9.055385138137416,19.026297590440446,19.026297590440446,28.0178514522438,41.04875150354759,32.01562118716424,32.5,35.0,30.0,4.5,8.5,0.5,1.5,7.0,7.0,7.5,18.0,20.0,20.024984394500787,"{'smile': ['m3', 'm12']}","{'smile': [223, 261]}"
238,238,2,0,9.926583333333356,0.0,70.11419257183242,4.0,10.0,18.0,19.026297590440446,28.0713376952364,42.04759208325728,32.0624390837628,32.0,34.0,30.0,4.0,10.0,0.0,1.0,7.0,6.082762530298219,6.5,18.0,21.0,20.0,"{'smile': ['m3', 'm12']}","{'smile': [223, 261]}"
239,239,2,0,9.968291666666689,0.0,70.11419257183242,4.0,10.04987562112089,19.026297590440446,19.026297590440446,27.0,41.01219330881976,31.0,31.0,33.0,29.0,4.0,10.0,0.0,1.0,7.0,7.071067811865476,7.5,17.0,21.0,18.0,"{'smile': ['m3', 'm12']}","{'smile': [223, 261]}"
240,240,2,0,10.010000000000025,1.0,70.11419257183242,5.0,10.0,18.027756377319943,18.110770276274835,26.0,41.01219330881976,31.016124838541646,31.0,32.0,28.0,4.0,11.0,0.0,1.0,7.0,6.082762530298219,6.5,18.0,21.0,21.0,"{'smile': ['m3', 'm12']}","{'smile': [223, 261]}"
241,241,2,0,10.051708333333355,0.0,70.178344238091,5.0990195135927845,10.04987562112089,19.026297590440446,19.026297590440446,26.0,41.04875150354759,31.016124838541646,31.0,33.0,28.0,4.5,10.5,0.5,1.5,7.0,6.0,7.0,18.0,21.0,21.0,"{'smile': ['m3', 'm12']}","{'smile': [223, 261]}"
242,242,2,0,10.093416666666691,1.0,70.11419257183242,4.0,11.0,18.027756377319943,19.1049731745428,27.0,42.01190307520001,31.016124838541646,31.0,33.0,29.0,4.0,11.0,1.0,1.0,7.071067811865476,6.082762530298219,6.5,18.0,21.0,19.0,"{'smile': ['m3', 'm12']}","{'smile': [223, 261]}"
243,243,2,0,10.135125000000023,0.0,72.11102550927978,5.0,10.04987562112089,19.026297590440446,19.026297590440446,27.0,42.01190307520001,32.0,32.0,34.0,30.0,5.0,10.0,1.0,2.0,7.0,7.0,7.0,18.0,21.0,20.0,"{'smile': ['m3', 'm12']}","{'smile': [223, 261]}"
244,244,2,0,10.17683333333336,1.0,72.11102550927978,4.123105625617661,9.055385138137416,20.09975124224178,20.024984394500787,28.0,42.04759208325728,33.015148038438355,32.5,35.0,31.0,5.0,9.0,1.0,3.0,6.0,6.082762530298219,6.5,18.0,21.0,20.0,"{'smile': ['m3', 'm12']}","{'smile': [223, 261]}"
245,245,2,0,10.218541666666694,1.0,72.11102550927978,6.0,12.041594578792296,19.1049731745428,20.09975124224178,27.0,45.044422518220834,33.015148038438355,33.0,35.0,31.0,6.0,12.0,0.0,2.0,7.0,7.071067811865476,7.0,19.0,21.0,20.0,"{'smile': ['m3', 'm12']}","{'smile': [223, 261]}"
246,246,2,0,10.260250000000028,5.0990195135927845,70.06425622241343,6.0,12.041594578792296,20.09975124224178,20.024984394500787,28.0,51.03920062069938,39.01281840626232,36.5,37.0,34.0,7.5,15.5,3.5,3.5,6.0,6.082762530298219,6.0,17.0,20.0,19.026297590440446,"{'smile': ['m3', 'm12']}","{'smile': [223, 261]}"
247,247,2,0,10.301958333333362,7.071067811865476,71.02816342831905,6.0,12.041594578792296,20.024984394500787,21.02379604162864,28.0178514522438,53.08483775994799,41.04875150354759,37.5,37.0,35.0,8.0,17.0,4.0,4.0,6.0,7.0,7.0,17.0,20.0,19.0,"{'smile': ['m3', 'm12']}","{'smile': [223, 261]}"
248,248,2,0,10.343666666666696,8.06225774829855,71.06335201775947,6.0,11.04536101718726,18.027756377319943,20.024984394500787,27.0,52.03844732503075,41.01219330881976,37.0,37.0,34.0,8.5,16.5,5.5,3.5,7.0,6.082762530298219,6.5,18.0,21.0,20.024984394500787,"{'smile': ['m3', 'm12']}","{'smile': [223, 261]}"
249,249,2,0,10.38537500000003,7.071067811865476,71.06335201775947,6.0,10.04987562112089,19.1049731745428,21.02379604162864,27.018512172212592,50.08991914547278,40.049968789001575,36.5,36.0,33.0,7.5,15.5,4.5,3.5,6.0,7.071067811865476,7.0,18.0,20.0,20.024984394500787,"{'smile': ['m3', 'm12']}","{'smile': [223, 261]}"
250,250,2,0,10.427083333333364,8.06225774829855,73.06161783043132,6.0,11.04536101718726,19.1049731745428,21.02379604162864,27.018512172212592,52.08646657242167,41.04875150354759,37.0,36.0,33.0,7.5,17.5,5.5,3.5,7.0,6.082762530298219,6.5,18.0,20.0,20.0,"{'smile': ['m3', 'm12']}","{'smile': [223, 261]}"
251,251,2,0,10.468791666666698,6.082762530298219,71.11258679024411,5.0,11.04536101718726,20.09975124224178,20.024984394500787,28.0178514522438,50.08991914547278,39.05124837953327,36.0,37.0,33.0,7.0,15.0,4.0,4.0,6.0,6.082762530298219,6.5,18.0,21.0,20.024984394500787,"{'smile': ['m3', 'm12']}","{'smile': [223, 261]}"
252,252,2,0,10.510500000000032,9.055385138137416,72.17340230306452,5.0,10.04987562112089,20.09975124224178,20.09975124224178,28.0178514522438,52.08646657242167,42.04759208325728,37.5,37.0,32.0,6.5,17.5,6.5,3.5,6.0,6.082762530298219,6.5,18.0,20.0,20.024984394500787,"{'smile': ['m3', 'm12']}","{'smile': [223, 261]}"
253,253,2,0,10.552208333333366,9.055385138137416,73.17103251970687,6.082762530298219,11.04536101718726,21.095023109728988,22.09072203437452,27.0,53.08483775994799,42.04759208325728,37.5,37.0,32.0,7.5,18.5,7.5,3.5,6.0,7.071067811865476,7.0,20.0,21.0,19.026297590440446,"{'smile': ['m3', 'm12']}","{'smile': [223, 261]}"
254,254,2,0,10.5939166666667,9.055385138137416,73.17103251970687,6.0,11.04536101718726,20.09975124224178,21.095023109728988,28.0178514522438,54.08326913195984,43.04648650006177,38.5,37.0,32.0,6.5,19.5,7.5,3.5,6.0,6.0,6.5,18.0,20.0,21.02379604162864,"{'smile': ['m3', 'm12']}","{'smile': [223, 261]}"
255,255,2,0,10.635625000000037,9.0,71.11258679024411,5.0990195135927845,11.04536101718726,19.1049731745428,21.095023109728988,28.0,53.03772242470448,42.01190307520001,37.5,37.0,33.0,7.0,18.0,7.0,3.0,7.0,6.082762530298219,6.0,19.0,19.0,21.02379604162864,"{'smile': ['m3', 'm12']}","{'smile': [223, 261]}"
256,256,2,0,10.677333333333369,1.0,65.27633568147036,5.0,10.04987562112089,18.110770276274835,19.1049731745428,29.0,45.0111097397076,35.0,34.5,39.0,33.0,7.0,9.0,1.0,4.0,7.0,6.0,6.0,19.0,19.0,19.026297590440446,"{'smile': ['m3', 'm12']}","{'smile': [223, 261]}"
257,257,2,0,10.719041666666705,0.0,65.12296062065974,4.123105625617661,9.0,19.026297590440446,18.110770276274835,29.017236257093817,42.0,33.0,33.0,37.0,33.0,6.0,7.0,2.0,4.0,7.0,7.071067811865476,7.0,18.0,18.0,21.095023109728988,"{'smile': ['m3', 'm12']}","{'smile': [223, 261]}"
258,258,2,0,10.760750000000035,1.0,65.12296062065974,5.0,10.04987562112089,17.11724276862369,17.11724276862369,29.017236257093817,45.0,35.0142828000232,34.5,38.0,34.0,7.0,9.0,1.0,4.0,7.0,6.0,6.5,19.0,19.0,18.027756377319943,"{'smile': ['m3', 'm12']}","{'smile': [223, 261]}"
259,259,2,0,10.802458333333371,3.0,61.032778078668514,7.0,13.0,16.0312195418814,18.027756377319943,28.0,51.0,38.0,36.5,38.0,36.0,9.0,14.0,1.0,4.0,8.06225774829855,7.0,7.0,21.0,20.0,21.02379604162864,"{'smile': ['m3', 'm12']}","{'smile': [223, 261]}"
260,260,2,0,10.844166666666704,7.071067811865476,64.03124237432849,7.0,14.0,18.027756377319943,19.026297590440446,28.0178514522438,56.0,42.0,38.5,39.0,37.0,10.0,18.0,4.0,5.0,8.0,7.0,7.0,21.0,19.0,20.09975124224178,"{'smile': ['m3', 'm12']}","{'smile': [223, 261]}"
261,261,2,0,10.88587500000004,7.0,67.00746227100382,6.0,14.0,18.027756377319943,20.024984394500787,27.018512172212592,54.00925846556311,40.01249804748511,36.5,38.0,37.0,10.5,16.5,1.5,5.5,7.0,7.0,7.0,21.0,19.0,21.02379604162864,"{'smile': ['m3', 'm12']}","{'smile': [223, 261]}"
262,262,2,0,10.927583333333374,2.0,68.00735254367721,8.0,12.0,18.027756377319943,19.026297590440446,27.073972741361768,49.04079934095692,37.05401462729781,36.0,36.0,35.0,8.5,13.5,0.5,2.5,7.071067811865476,6.0,7.0,22.0,18.0,20.09975124224178,{},{}
263,263,2,0,10.969291666666708,2.23606797749979,70.0,6.0,10.0,19.0,18.0,27.073972741361768,45.09988913511872,35.12833614050059,34.0,34.0,34.0,7.0,11.0,0.0,2.0,7.0,7.0,7.5,21.0,16.0,20.223748416156685,{},{}
264,264,2,0,11.011000000000042,4.0,71.02816342831905,5.0990195135927845,9.055385138137416,18.0,19.0,26.0768096208106,44.181444068749045,35.12833614050059,33.0,32.0,34.0,7.0,11.0,1.0,3.0,7.0,7.071067811865476,7.0,21.0,16.0,20.09975124224178,{},{}
265,265,2,0,11.052708333333376,6.0,72.06247289678588,6.082762530298219,11.04536101718726,18.0,20.024984394500787,27.073972741361768,50.15974481593781,39.11521443121589,36.0,33.0,36.0,7.5,15.5,3.5,2.5,7.071067811865476,7.0,7.0,23.0,17.0,19.235384061671343,{},{}
266,266,2,0,11.09441666666671,10.04987562112089,76.05918747922567,7.0,12.0,21.0,21.0,27.16615541441225,56.1426753904728,44.181444068749045,39.0,33.0,36.0,7.5,21.5,8.5,1.5,8.0,6.0,6.5,23.0,16.0,20.223748416156685,{},{}
267,267,2,0,11.136125000000044,14.0356688476182,78.10249675906654,6.0,12.041594578792296,21.0,23.0,26.1725046566048,58.215118311311535,46.17358552246078,39.0,33.0,37.0,9.0,23.0,9.0,4.0,7.0,7.071067811865476,7.0,24.0,16.0,21.213203435596427,{},{}
268,268,2,0,11.177833333333378,10.0,78.16009211867653,5.0990195135927845,13.038404810405298,21.02379604162864,22.02271554554524,26.1725046566048,54.230987451824994,41.19465984809196,36.0,32.0,37.0,8.5,19.5,5.5,3.5,6.0,6.082762530298219,6.0,23.0,15.0,22.36067977499789,{},{}
269,269,2,0,11.219541666666712,16.0,76.10519036176179,4.123105625617661,9.055385138137416,22.02271554554524,22.02271554554524,25.079872407968907,54.147945482723536,45.09988913511872,37.0,32.0,36.0,9.0,20.0,9.0,5.0,7.071067811865476,6.082762530298219,6.0,24.0,15.0,21.37755832643195,{},{}
270,270,2,0,11.261250000000048,12.041594578792296,75.05997601918082,4.0,10.0,21.0,22.0,24.08318915758459,50.08991914547278,40.11234224026316,34.0,31.0,34.0,8.5,17.5,6.5,5.5,7.071067811865476,7.071067811865476,7.0,24.0,15.0,21.213203435596427,{},{}
271,271,2,0,11.30295833333338,12.0,75.1065909225016,4.123105625617661,10.04987562112089,21.02379604162864,22.0,24.08318915758459,50.15974481593781,40.11234224026316,34.0,30.0,34.0,8.0,18.0,6.0,4.0,6.082762530298219,6.0,6.5,24.0,15.0,19.235384061671343,{},{}
272,272,2,0,11.344666666666717,12.0,74.10802925459562,4.123105625617661,10.04987562112089,21.0,22.02271554554524,24.08318915758459,50.15974481593781,40.11234224026316,34.0,30.0,34.0,8.0,18.0,7.0,5.0,6.082762530298219,6.082762530298219,6.0,24.0,15.0,20.39607805437113,{},{}
273,273,2,0,11.386375000000047,6.082762530298219,74.06078584514209,4.0,10.04987562112089,21.0,22.02271554554524,26.1725046566048,46.2709412050371,36.22154055254967,33.0,32.0,35.0,7.5,12.5,1.5,4.5,6.082762530298219,6.0,6.0,23.0,14.0,21.37755832643195,{},{}
274,274,2,0,11.428083333333385,12.0,75.05997601918082,4.0,10.04987562112089,21.02379604162864,21.0,25.179356624028344,51.15662224971465,41.10960958218893,35.0,31.0,34.0,7.5,18.5,6.5,4.5,6.082762530298219,5.0,5.5,23.0,14.0,22.56102834535696,{},{}
275,275,2,0,11.469791666666715,10.0,74.06078584514209,4.0,11.04536101718726,21.02379604162864,22.0,26.1725046566048,51.15662224971465,40.11234224026316,35.0,32.0,35.0,7.5,17.5,5.5,4.5,6.082762530298219,6.082762530298219,6.0,24.0,16.0,21.37755832643195,{},{}
276,276,2,0,11.511500000000051,9.0,76.10519036176179,4.123105625617661,11.04536101718726,21.02379604162864,23.0,25.179356624028344,49.25444142409901,38.2099463490856,33.5,31.0,35.0,8.0,16.0,4.0,4.0,7.071067811865476,7.071067811865476,7.0,23.0,15.0,18.43908891458577,{},{}
277,277,2,0,11.553208333333384,13.0,74.06078584514209,4.123105625617661,9.0,20.0,21.02379604162864,25.079872407968907,51.0881590977792,42.1070065428546,35.5,32.0,35.0,8.5,17.5,6.5,5.5,6.324555320336759,7.0,7.0,23.0,15.0,20.39607805437113,{},{}
278,278,2,0,11.59491666666672,1.0,69.02897942168927,5.0,10.04987562112089,20.0,20.0,27.073972741361768,43.10452412450461,33.06055050963308,32.5,33.0,35.0,7.0,9.0,2.0,3.0,6.082762530298219,7.0,7.0,22.0,14.0,20.39607805437113,{},{}
279,279,2,0,11.636625000000054,1.4142135623730951,68.00735254367721,4.0,9.055385138137416,19.0,19.0,28.0713376952364,40.049968789001575,31.016124838541646,31.5,33.0,34.0,5.5,6.5,3.5,2.5,7.071067811865476,7.071067811865476,7.0,23.0,15.0,21.37755832643195,{},{}
280,280,2,0,11.678333333333388,0.0,64.00781202322104,5.0,10.04987562112089,19.0,19.0,27.018512172212592,42.04759208325728,32.01562118716424,32.0,33.0,34.0,6.5,8.5,2.5,2.5,7.071067811865476,7.071067811865476,7.0,23.0,15.0,20.223748416156685,{},{}
281,281,2,0,11.720041666666722,1.0,68.0,6.0,12.0,19.026297590440446,21.0,28.0178514522438,47.01063709417264,35.0142828000232,34.5,35.0,35.0,7.0,12.0,1.0,3.0,7.071067811865476,7.0,7.0,23.0,15.0,22.36067977499789,{},{}
282,282,2,0,11.761750000000056,2.23606797749979,66.007575322837,6.0,11.0,19.0,20.0,27.073972741361768,46.09772228646444,35.12833614050059,34.0,34.0,35.0,7.5,11.5,0.5,3.5,7.0,6.082762530298219,6.5,23.0,16.0,21.37755832643195,{},{}
283,283,2,0,11.80345833333339,1.0,67.0,5.0990195135927845,11.0,19.026297590440446,20.024984394500787,27.073972741361768,44.10215414239989,33.13608305156178,32.5,33.0,33.0,6.0,11.0,1.0,3.0,7.071067811865476,6.0,6.5,22.0,14.0,22.36067977499789,{},{}
284,284,2,0,11.845166666666724,3.0,67.00746227100382,7.0,11.0,20.0,20.0,26.0768096208106,47.042533945356304,36.05551275463989,34.5,33.0,34.0,7.5,13.5,1.5,2.5,7.0,6.0,6.0,23.0,16.0,20.223748416156685,{},{}
285,285,2,0,11.886875000000058,10.04987562112089,68.00735254367721,6.0,13.0,19.0,20.0,26.0768096208106,55.08175741568164,42.1070065428546,37.0,35.0,36.0,9.5,19.5,5.5,4.5,7.071067811865476,6.082762530298219,6.5,23.0,16.0,20.39607805437113,{},{}
286,286,2,0,11.928583333333393,11.0,71.0,7.071067811865476,14.0356688476182,20.0,22.02271554554524,26.0768096208106,58.137767414994535,44.10215414239989,38.5,36.0,36.0,10.0,22.0,7.0,4.0,7.071067811865476,7.0,6.5,24.0,17.0,20.223748416156685,{},{}
287,287,2,0,11.970291666666729,10.04987562112089,73.00684899377592,7.0,14.0,21.0,21.0,26.0768096208106,57.07889277132134,43.10452412450461,38.0,35.0,36.0,9.5,21.5,6.5,3.5,7.071067811865476,6.082762530298219,6.0,23.0,16.0,21.213203435596427,{},{}
288,288,2,0,12.01200000000006,6.082762530298219,74.02702209328699,7.0,14.0,21.0,22.0,26.0768096208106,53.08483775994799,39.11521443121589,36.0,34.0,36.0,9.0,18.0,3.0,3.0,7.071067811865476,6.0,6.0,22.0,14.0,22.36067977499789,{},{}
289,289,2,0,12.053708333333397,8.0,74.00675644831355,6.0,12.041594578792296,21.0,22.0,26.019223662515376,52.03844732503075,40.01249804748511,36.0,34.0,35.0,8.5,17.5,4.5,3.5,6.0,7.0,7.0,22.0,16.0,20.223748416156685,{},{}
290,290,2,0,12.095416666666727,6.0,70.0,4.123105625617661,11.0,20.0,20.0,25.019992006393608,46.04345773288535,35.05709628591621,32.0,33.0,33.0,8.0,13.0,1.0,5.0,6.0,6.082762530298219,6.0,22.0,16.0,21.213203435596427,{},{}
291,291,2,0,12.137125000000063,4.0,69.00724599634447,4.0,10.0,19.0,21.0,26.019223662515376,44.01136216933077,34.0147027033899,32.0,32.0,33.0,6.5,11.5,0.5,3.5,6.082762530298219,6.082762530298219,6.0,22.0,16.0,21.213203435596427,{},{}
292,292,2,0,12.178833333333396,3.1622776601683795,68.0,5.0,12.0,19.0,20.024984394500787,25.019992006393608,45.044422518220834,33.06055050963308,31.5,33.0,33.0,8.0,12.0,1.0,4.0,7.0,7.0,7.0,22.0,16.0,20.09975124224178,{},{}
293,293,2,0,12.220541666666731,3.0,67.0,5.0,11.0,19.0,19.0,26.019223662515376,45.0111097397076,34.0147027033899,32.5,34.0,34.0,8.0,11.0,1.0,4.0,6.0,7.0,7.0,22.0,17.0,21.095023109728988,{},{}
294,294,2,0,12.262250000000066,4.123105625617661,60.00833275470999,7.071067811865476,13.0,18.0,18.027756377319943,26.0768096208106,50.15974481593781,37.21558813185679,35.0,35.0,36.0,9.5,14.5,1.5,3.5,6.082762530298219,7.0,7.0,22.0,16.0,22.09072203437452,{},{}
295,295,2,0,12.3039583333334,7.0,61.0,7.071067811865476,13.038404810405298,18.0,19.0,26.0768096208106,53.150729063673246,40.11234224026316,36.5,38.0,38.0,12.0,15.0,1.0,6.0,8.06225774829855,7.0,7.5,23.0,17.0,22.20360331117452,{},{}
296,296,2,0,12.345666666666734,10.04987562112089,59.033888572581766,7.0,14.0356688476182,18.0,19.0,27.16615541441225,58.215118311311535,44.181444068749045,39.0,39.0,41.0,13.0,18.0,3.0,7.0,7.071067811865476,7.0,7.0,23.0,17.0,20.09975124224178,{},{}
297,297,2,0,12.387375000000068,9.055385138137416,59.033888572581766,7.071067811865476,14.0356688476182,18.027756377319943,19.0,27.073972741361768,57.21887800367987,43.18564576337837,38.5,38.0,40.0,12.0,18.0,3.0,6.0,7.071067811865476,7.0,7.0,24.0,17.0,21.213203435596427,{},{}
298,298,2,0,12.429083333333402,1.0,63.12685640834652,5.0990195135927845,10.04987562112089,18.027756377319943,18.027756377319943,29.068883707497267,45.17742799230607,35.12833614050059,34.5,33.0,37.0,6.0,10.0,2.0,1.0,7.0,7.071067811865476,7.5,22.0,16.0,19.1049731745428,{},{}
299,299,2,0,12.470791666666736,0.0,67.06713054842886,6.082762530298219,10.04987562112089,18.027756377319943,19.0,28.0713376952364,44.181444068749045,34.132096331752024,34.0,33.0,36.0,6.5,9.5,2.5,1.5,7.0,8.0,8.0,23.0,16.0,21.213203435596427,{},{}
300,300,2,0,12.51250000000007,0.0,63.0317380372777,7.0,10.04987562112089,18.0,18.0,29.154759474226505,46.17358552246078,36.12478373637688,36.0,34.0,36.0,6.0,11.0,1.0,1.0,8.0,7.0,7.0,23.0,16.0,20.09975124224178,{},{}
301,301,2,0,12.554208333333404,2.0,66.03029607687671,5.0,11.04536101718726,17.0,18.027756377319943,28.0713376952364,46.09772228646444,35.05709628591621,34.0,34.0,36.0,7.0,11.0,1.0,3.0,8.06225774829855,7.0,7.0,22.0,16.0,20.09975124224178,{},{}
302,302,2,0,12.59591666666674,7.0,67.02984409947557,4.0,10.04987562112089,17.0,18.0,28.0713376952364,49.09175083453431,39.05124837953327,35.5,34.0,36.0,7.0,14.0,2.0,4.0,7.071067811865476,7.071067811865476,7.0,23.0,17.0,21.213203435596427,{},{}
303,303,2,0,12.637625000000073,9.0,68.06614430096654,4.123105625617661,10.04987562112089,18.027756377319943,19.0,26.019223662515376,49.09175083453431,39.05124837953327,34.5,32.0,35.0,7.5,15.5,4.5,3.5,7.0,7.071067811865476,7.5,22.0,16.0,21.213203435596427,{},{}
304,304,2,0,12.679333333333409,12.0,71.06335201775947,4.123105625617661,11.04536101718726,18.027756377319943,20.0,27.073972741361768,54.147945482723536,43.10452412450461,37.0,32.0,35.0,6.5,20.5,8.5,3.5,7.071067811865476,6.0,6.0,22.0,16.0,21.213203435596427,{},{}
305,305,2,0,12.72104166666674,6.0,71.00704190430693,7.071067811865476,15.033296378372908,19.026297590440446,20.024984394500787,27.073972741361768,55.14526271584895,40.11234224026316,37.0,35.0,36.0,8.5,19.5,2.5,1.5,6.082762530298219,6.082762530298219,6.5,23.0,17.0,22.20360331117452,{},{}
306,306,2,0,12.762750000000077,5.0990195135927845,70.00714249274856,7.0,15.0,19.0,21.0,28.0178514522438,55.03635162326805,40.049968789001575,37.5,35.0,36.0,7.5,19.5,3.5,2.5,7.071067811865476,6.0,6.5,23.0,17.0,21.37755832643195,{},{}
307,307,2,0,12.80445833333341,3.0,69.00724599634447,7.0,15.033296378372908,18.027756377319943,19.0,26.0768096208106,51.0881590977792,36.05551275463989,34.5,34.0,35.0,8.5,16.5,0.5,2.5,6.082762530298219,7.0,7.0,23.0,17.0,22.36067977499789,{},{}
308,308,2,0,12.846166666666743,11.0,68.00735254367721,4.0,10.0,19.0,19.026297590440446,25.079872407968907,50.039984012787215,40.049968789001575,34.5,34.0,35.0,9.5,15.5,4.5,6.5,6.082762530298219,6.082762530298219,6.0,22.0,16.0,21.213203435596427,{},{}
309,309,2,0,12.887875000000076,9.055385138137416,69.0,4.0,10.0,19.0,19.0,26.019223662515376,49.04079934095692,39.05124837953327,34.5,35.0,35.0,9.0,14.0,3.0,6.0,6.082762530298219,6.0,6.0,21.0,16.0,19.1049731745428,{},{}
310,310,2,0,12.929583333333412,6.0,67.0,4.123105625617661,9.055385138137416,18.027756377319943,19.026297590440446,25.019992006393608,44.10215414239989,35.05709628591621,32.0,34.0,34.0,9.0,10.0,0.0,6.0,7.071067811865476,6.0,6.0,22.0,16.0,20.09975124224178,{},{}
311,311,2,0,12.971291666666746,2.0,68.00735254367721,4.0,10.04987562112089,18.0,18.027756377319943,26.1725046566048,42.190046219457976,32.14031735997639,31.0,34.0,33.0,7.5,8.5,2.5,4.5,6.082762530298219,6.0,6.0,22.0,16.0,20.223748416156685,{},{}
312,312,2,0,13.01300000000008,1.4142135623730951,68.0,5.0,9.0,19.0,19.0,26.0768096208106,41.10960958218893,32.14031735997639,31.5,33.0,33.0,7.0,8.0,2.0,3.0,7.0,7.071067811865476,7.0,21.0,16.0,20.39607805437113,{},{}
313,313,2,0,13.054708333333414,1.0,70.0,5.0990195135927845,9.0,19.026297590440446,19.026297590440446,26.0768096208106,41.10960958218893,32.14031735997639,31.5,32.0,32.0,6.0,9.0,1.0,3.0,7.071067811865476,6.0,6.5,21.0,16.0,19.235384061671343,{},{}
314,314,2,0,13.096416666666748,1.0,69.0,5.0990195135927845,10.0,19.0,20.0,25.019992006393608,41.04875150354759,31.064449134018133,30.5,31.0,31.0,6.0,10.0,1.0,2.0,6.082762530298219,6.0,6.0,21.0,16.0,19.4164878389476,{},{}
315,315,2,0,13.138125000000082,1.0,69.00724599634447,5.0,10.04987562112089,19.026297590440446,20.0,26.0768096208106,42.1070065428546,32.0624390837628,31.5,32.0,33.0,6.5,9.5,1.5,2.5,7.071067811865476,7.0,7.0,21.0,16.0,20.09975124224178,{},{}
316,316,2,0,13.179833333333416,1.0,68.0,6.0,10.04987562112089,19.0,19.026297590440446,27.073972741361768,44.10215414239989,34.058772731852805,33.5,34.0,34.0,7.0,10.0,1.0,2.0,6.082762530298219,6.0,6.5,21.0,17.0,19.1049731745428,{},{}
317,317,2,0,13.22154166666675,2.0,66.0,6.0,11.04536101718726,19.0,19.0,26.0768096208106,45.09988913511872,34.058772731852805,33.0,33.0,33.0,7.0,12.0,0.0,2.0,6.082762530298219,6.0,6.0,20.0,15.0,21.213203435596427,{},{}
318,318,2,0,13.263250000000085,2.0,69.00724599634447,6.082762530298219,12.0,19.0,20.024984394500787,26.0768096208106,46.09772228646444,34.132096331752024,33.0,32.0,33.0,6.5,13.5,0.5,2.5,6.082762530298219,6.0,6.0,21.0,16.0,19.1049731745428,{},{}
319,319,2,0,13.30495833333342,2.23606797749979,70.00714249274856,7.0,12.0,19.0,19.0,26.0768096208106,47.09564735726647,35.12833614050059,34.0,33.0,34.0,7.5,13.5,0.5,1.5,6.082762530298219,6.082762530298219,6.5,21.0,16.0,20.09975124224178,{},{}
320,320,2,0,13.346666666666753,1.0,71.00704190430693,5.0990195135927845,11.04536101718726,19.0,20.0,26.019223662515376,43.10452412450461,32.0624390837628,31.5,32.0,33.0,6.5,10.5,1.5,2.5,6.082762530298219,6.0,6.5,20.0,16.0,20.09975124224178,{},{}
321,321,2,0,13.388375000000089,1.0,73.00684899377592,5.0,11.0,20.0,20.0,26.0768096208106,43.04648650006177,32.0624390837628,31.5,32.0,33.0,6.5,10.5,1.5,2.5,6.082762530298219,6.082762530298219,6.5,21.0,17.0,19.235384061671343,{},{}
322,322,2,0,13.43008333333342,7.071067811865476,72.00694410957877,5.0,9.0,18.0,19.026297590440446,25.079872407968907,46.09772228646444,37.12142238654117,33.5,31.0,32.0,6.5,14.5,4.5,2.5,6.082762530298219,6.0,6.5,21.0,17.0,20.09975124224178,{},{}
323,323,2,0,13.471791666666755,9.0,76.00657866263946,5.0990195135927845,11.04536101718726,19.0,21.02379604162864,26.019223662515376,51.0881590977792,40.049968789001575,35.5,32.0,33.0,6.5,18.5,6.5,2.5,7.071067811865476,6.0,6.5,22.0,18.0,20.223748416156685,{},{}
324,324,2,0,13.51350000000009,11.0,77.02596964660685,5.0990195135927845,12.0,21.0,22.0,25.079872407968907,53.08483775994799,41.10960958218893,35.5,30.0,32.0,6.0,22.0,9.0,2.0,6.082762530298219,6.0,6.5,20.0,16.0,22.20360331117452,{},{}
325,325,2,0,13.555208333333423,8.06225774829855,78.02563681252464,5.0,11.0,20.024984394500787,21.02379604162864,24.08318915758459,48.0936586256442,37.12142238654117,33.0,31.0,33.0,8.0,16.0,4.0,3.0,6.0,6.0,6.0,21.0,16.0,20.223748416156685,{},{}
326,326,2,0,13.596916666666758,5.0990195135927845,72.00694410957877,4.0,11.0,19.0,20.0,24.08318915758459,44.10215414239989,33.13608305156178,30.5,32.0,31.0,7.5,12.5,0.5,4.5,7.0,7.0,7.0,20.0,17.0,19.1049731745428,{},{}
327,327,2,0,13.638625000000092,10.04987562112089,73.0,4.0,11.0,20.024984394500787,22.0,23.021728866442675,48.04164859785725,37.05401462729781,32.0,30.0,30.0,7.0,18.0,5.0,3.0,7.0,6.0,6.5,21.0,17.0,19.1049731745428,{},{}
328,328,2,0,13.680333333333426,9.0,74.0,5.0,11.0,20.0,21.0,23.021728866442675,48.010415536631214,37.01351104664349,32.5,31.0,31.0,8.0,17.0,5.0,4.0,7.0,7.0,6.5,22.0,18.0,20.09975124224178,{},{}
329,329,2,0,13.72204166666676,9.0,74.00675644831355,4.0,11.0,21.0,22.0,24.020824298928627,48.010415536631214,37.01351104664349,32.5,31.0,30.0,6.5,17.5,5.5,3.5,7.0,7.0,6.5,21.0,17.0,19.026297590440446,{},{}
330,330,2,0,13.763750000000094,7.0,73.00684899377592,7.0,14.0,20.0,21.0,24.020824298928627,52.009614495783374,38.01315561749642,34.5,32.0,31.0,7.5,20.5,5.5,1.5,7.0,6.0,6.5,21.0,18.0,20.09975124224178,{},{}
331,331,2,0,13.805458333333428,11.0,73.00684899377592,6.0,13.0,20.0,21.0,24.020824298928627,54.00925846556311,41.01219330881976,35.5,32.0,31.0,7.5,22.5,8.5,2.5,7.071067811865476,7.0,7.0,22.0,19.0,22.09072203437452,{},{}
332,332,2,0,13.847166666666762,14.0,74.00675644831355,5.0,13.038404810405298,20.0,21.02379604162864,24.08318915758459,56.00892785976178,43.04648650006177,36.0,32.0,31.0,7.5,24.5,10.5,3.5,7.0,6.0,6.0,21.0,18.0,22.09072203437452,{},{}
333,333,2,0,13.888875000000096,8.0,73.0,6.0,13.0,19.026297590440446,21.0,25.019992006393608,52.009614495783374,39.01281840626232,35.0,31.0,31.0,6.0,21.0,8.0,2.0,7.0,6.0,6.5,22.0,18.0,20.09975124224178,{},{}
334,334,2,0,13.93058333333343,7.0,74.0,6.0,13.0,19.026297590440446,21.02379604162864,25.019992006393608,51.0098029794274,38.01315561749642,34.5,31.0,31.0,6.0,20.0,6.0,2.0,7.0,6.0,6.0,21.0,18.0,21.095023109728988,{},{}
335,335,2,0,13.972291666666765,9.0,74.00675644831355,6.0,13.0,20.024984394500787,22.02271554554524,25.019992006393608,53.009433122794285,40.01249804748511,35.5,32.0,31.0,6.5,21.5,7.5,2.5,7.0,7.071067811865476,7.0,21.0,18.0,20.09975124224178,{},{}
336,336,2,0,14.0140000000001,8.0,73.0,5.0990195135927845,11.0,19.0,20.0,25.0,49.01020301937138,38.01315561749642,34.0,31.0,31.0,6.0,18.0,6.0,2.0,7.071067811865476,6.0,6.5,21.0,17.0,20.09975124224178,{},{}
337,337,2,0,14.055708333333431,8.06225774829855,72.00694410957877,5.0,11.0,20.024984394500787,21.0,25.019992006393608,49.0,38.0,34.0,31.0,30.0,5.5,18.5,7.5,2.5,7.0,6.0,6.0,19.0,16.0,20.09975124224178,{},{}
338,338,2,0,14.097416666666769,7.0,72.00694410957877,5.0990195135927845,10.0,19.026297590440446,20.024984394500787,25.019992006393608,47.042533945356304,37.05401462729781,33.5,32.0,31.0,6.5,15.5,4.5,3.5,7.071067811865476,6.0,6.5,20.0,17.0,19.1049731745428,{},{}
339,339,2,0,14.1391250000001,8.0,72.02777242147643,4.0,11.0,20.024984394500787,21.02379604162864,26.019223662515376,49.01020301937138,38.01315561749642,34.0,33.0,31.0,6.0,17.0,6.0,4.0,7.0,7.071067811865476,7.0,20.0,17.0,20.024984394500787,{},{}
340,340,2,0,14.180833333333435,9.0,72.00694410957877,5.0,10.0,20.024984394500787,21.095023109728988,25.019992006393608,49.01020301937138,39.01281840626232,34.5,33.0,32.0,7.5,16.5,5.5,4.5,7.0,6.082762530298219,6.0,20.0,19.0,20.024984394500787,{},{}
341,341,2,0,14.22254166666677,8.0,72.02777242147643,5.0,11.04536101718726,20.024984394500787,21.02379604162864,25.019992006393608,49.0,38.01315561749642,34.0,34.0,32.0,8.0,16.0,4.0,4.0,7.071067811865476,7.0,7.0,20.0,18.0,19.1049731745428,{},{}
342,342,2,0,14.264250000000104,8.06225774829855,70.00714249274856,5.0,11.0,19.026297590440446,20.024984394500787,26.019223662515376,50.0,39.0,35.0,34.0,33.0,7.5,16.5,5.5,3.5,6.0,6.0,6.5,21.0,18.0,18.110770276274835,{},{}
343,343,2,0,14.305958333333438,7.0,69.02897942168927,6.0,11.04536101718726,20.024984394500787,20.024984394500787,26.019223662515376,50.0,39.01281840626232,35.5,35.0,33.0,8.0,16.0,4.0,3.0,6.082762530298219,7.0,7.0,21.0,19.0,18.110770276274835,{},{}
344,344,2,0,14.347666666666772,7.0,69.02897942168927,6.0,12.0,19.026297590440446,20.024984394500787,27.018512172212592,52.009614495783374,40.01249804748511,36.5,36.0,34.0,8.0,17.0,4.0,3.0,7.071067811865476,6.0,6.5,21.0,18.0,18.110770276274835,{},{}
345,345,2,0,14.389375000000106,6.0,68.0294054067798,6.0,12.0,19.0,20.024984394500787,26.0,50.0,38.0,35.0,35.0,33.0,8.0,16.0,3.0,3.0,7.0,6.0,6.5,20.0,18.0,18.027756377319943,{},{}
346,346,2,0,14.43108333333344,8.0,67.02984409947557,7.0,12.0,19.026297590440446,20.0,27.0,54.0,42.0,38.0,36.0,34.0,8.0,19.0,6.0,3.0,7.071067811865476,6.0,6.5,21.0,19.0,18.027756377319943,{},{}
347,347,2,0,14.472791666666774,13.0,67.02984409947557,6.0,13.0,19.026297590440446,20.024984394500787,26.0,58.0,45.0,38.5,36.0,34.0,9.0,23.0,9.0,4.0,8.0,7.071067811865476,7.0,21.0,18.0,19.1049731745428,{},{}
348,348,2,0,14.514500000000108,4.0,65.03076195155643,5.0,12.041594578792296,18.110770276274835,19.026297590440446,28.0178514522438,49.0,37.01351104664349,35.0,36.0,34.0,7.0,14.0,1.0,4.0,7.0,6.0,6.0,20.0,17.0,20.09975124224178,{},{}
349,349,2,0,14.556208333333442,1.0,66.007575322837,4.123105625617661,12.0,18.0,18.027756377319943,29.017236257093817,46.04345773288535,34.058772731852805,33.5,34.0,33.0,4.5,12.5,0.5,1.5,7.071067811865476,7.0,7.0,20.0,18.0,20.09975124224178,{},{}
350,350,2,0,14.597916666666777,1.4142135623730951,66.007575322837,4.0,12.0,18.0,18.027756377319943,29.068883707497267,46.01086828130936,34.0147027033899,33.5,34.0,33.0,4.5,12.5,0.5,1.5,7.071067811865476,7.0,7.0,20.0,17.0,21.095023109728988,{},{}
351,351,2,0,14.63962500000011,2.0,67.0,5.0,13.0,18.0,19.026297590440446,29.017236257093817,49.01020301937138,36.013886210738214,35.0,34.0,34.0,5.0,15.0,1.0,1.0,7.0,7.0,7.5,20.0,17.0,21.02379604162864,{},{}
352,352,2,0,14.681333333333445,3.1622776601683795,65.0,5.0990195135927845,13.0,17.0,18.027756377319943,29.017236257093817,50.00999900019995,37.01351104664349,35.5,35.0,35.0,6.0,15.0,2.0,2.0,7.0,6.0,6.5,19.0,17.0,22.09072203437452,{},{}
353,353,2,0,14.72304166666678,4.0,65.00769185258002,5.0,12.0,16.0,17.029386365926403,29.0,50.0,38.0,36.0,35.0,34.0,5.5,15.5,2.5,1.5,8.0,6.0,6.5,19.0,17.0,18.027756377319943,{},{}
354,354,2,0,14.764750000000111,1.0,68.00735254367721,4.0,11.0,17.029386365926403,18.027756377319943,29.017236257093817,45.0111097397076,34.0147027033899,33.5,34.0,33.0,4.5,11.5,0.5,1.5,6.0,6.082762530298219,6.0,19.0,17.0,18.0,{},{}
355,355,2,0,14.806458333333447,1.0,67.00746227100382,4.0,9.0,17.029386365926403,18.027756377319943,30.0,44.0,35.0,34.5,34.0,33.0,3.5,10.5,0.5,1.5,6.082762530298219,5.0,5.5,18.0,17.0,19.0,{},{}
356,356,2,0,14.84816666666678,4.0,67.02984409947557,6.0,14.0,16.0312195418814,17.029386365926403,28.0,52.0,38.0,36.0,35.0,33.0,6.0,18.0,3.0,1.0,6.0,6.0,6.0,19.0,18.0,21.02379604162864,{},{}
357,357,2,0,14.889875000000115,7.071067811865476,72.02777242147643,6.0,14.0,18.027756377319943,20.024984394500787,28.0178514522438,55.0,41.0,37.5,35.0,33.0,6.0,21.0,6.0,2.0,6.0,6.082762530298219,6.0,19.0,19.0,19.026297590440446,{},{}
358,358,2,0,14.93158333333345,10.0,72.06247289678588,6.082762530298219,12.041594578792296,19.026297590440446,20.024984394500787,27.018512172212592,55.00909015790027,43.0,38.0,36.0,33.0,7.5,20.5,7.5,2.5,7.0,5.0990195135927845,6.0,18.0,19.0,20.024984394500787,{},{}
359,359,2,0,14.973291666666784,10.0,72.02777242147643,6.0,12.041594578792296,18.027756377319943,19.026297590440446,27.0,55.00909015790027,43.0,38.0,35.0,33.0,7.0,21.0,8.0,2.0,6.0,6.082762530298219,6.5,19.0,20.0,21.0,{},{}
360,360,2,0,15.015000000000118,0.0,72.02777242147643,6.082762530298219,11.04536101718726,19.026297590440446,20.024984394500787,29.0,46.04345773288535,35.0142828000232,35.0,35.0,33.0,5.0,12.0,1.0,1.0,7.0,6.082762530298219,6.0,18.0,19.0,19.026297590440446,{},{}
361,361,2,0,15.056708333333452,0.0,71.06335201775947,5.0,10.04987562112089,19.0,19.026297590440446,29.0,44.01136216933077,34.0,34.0,35.0,32.0,4.5,10.5,0.5,0.5,6.0,5.0990195135927845,6.0,17.0,18.0,20.024984394500787,{},{}
362,362,2,0,15.098416666666786,3.0,70.11419257183242,7.071067811865476,11.0,18.027756377319943,18.027756377319943,29.0,50.00999900019995,39.01281840626232,37.5,37.0,33.0,6.0,15.0,4.0,0.0,6.0,5.0,5.5,19.0,20.0,21.02379604162864,{},{}
363,363,2,0,15.14012500000012,7.0,71.11258679024411,6.082762530298219,11.04536101718726,19.026297590440446,21.02379604162864,29.017236257093817,53.009433122794285,42.0,38.5,39.0,35.0,8.0,16.0,5.0,3.0,7.071067811865476,6.0,6.5,18.0,20.0,21.0,{},{}
364,364,2,0,15.181833333333454,7.071067811865476,71.06335201775947,7.0,12.041594578792296,20.024984394500787,21.095023109728988,28.0,54.037024344425184,42.01190307520001,38.5,38.0,35.0,8.5,17.5,4.5,3.5,6.0,5.0990195135927845,5.5,18.0,20.0,20.024984394500787,{},{}
365,365,2,0,15.223541666666788,7.071067811865476,71.11258679024411,6.0,12.041594578792296,20.024984394500787,21.095023109728988,28.0178514522438,53.009433122794285,41.0,37.5,39.0,35.0,9.0,16.0,4.0,4.0,6.0,6.0,6.0,19.0,22.0,22.0,{},{}
366,366,2,0,15.265250000000124,3.0,72.11102550927978,6.0,11.0,19.1049731745428,20.024984394500787,28.0178514522438,48.010415536631214,37.01351104664349,35.5,36.0,32.0,6.0,14.0,3.0,2.0,6.0,5.0990195135927845,5.5,19.0,21.0,22.02271554554524,{},{}
367,367,2,0,15.306958333333457,3.1622776601683795,72.17340230306452,6.0,12.0,19.1049731745428,20.09975124224178,27.0,48.010415536631214,36.013886210738214,34.5,36.0,31.0,6.5,14.5,2.5,2.5,6.0,5.0990195135927845,5.5,18.0,21.0,20.0,{},{}
368,368,2,0,15.34866666666679,1.0,73.10950690573696,7.0,12.041594578792296,19.1049731745428,19.1049731745428,27.018512172212592,47.042533945356304,35.0142828000232,34.5,35.0,31.0,6.0,14.0,2.0,2.0,6.082762530298219,6.082762530298219,6.0,18.0,20.0,19.026297590440446,{},{}
369,369,2,0,15.390375000000123,2.0,74.10802925459562,7.071067811865476,13.038404810405298,20.09975124224178,21.095023109728988,27.0,49.04079934095692,36.013886210738214,35.0,36.0,32.0,7.0,15.0,2.0,2.0,6.0,5.0,5.0,18.0,19.0,20.024984394500787,{},{}
370,370,2,0,15.43208333333346,3.1622776601683795,76.10519036176179,8.0,13.038404810405298,20.09975124224178,21.095023109728988,28.0713376952364,52.15361924162119,39.11521443121589,37.5,37.0,33.0,7.0,17.0,3.0,2.0,6.0,5.0990195135927845,5.5,17.0,20.0,19.026297590440446,{},{}
371,371,2,0,15.473791666666791,3.0,75.16648189186454,8.06225774829855,12.041594578792296,20.024984394500787,21.02379604162864,27.018512172212592,50.08991914547278,38.05259518088089,36.5,37.0,32.0,7.5,15.5,2.5,1.5,6.0,6.0,6.0,18.0,20.0,20.024984394500787,{},{}
372,372,2,0,15.515500000000127,3.1622776601683795,70.11419257183242,8.0,14.0,20.024984394500787,21.095023109728988,26.0,51.0098029794274,37.01351104664349,35.5,37.0,33.0,9.0,16.0,2.0,3.0,6.0,5.0990195135927845,6.0,18.0,21.0,20.024984394500787,{},{}
373,373,2,0,15.55720833333346,3.0,68.18357573492314,7.0,14.0356688476182,19.1049731745428,20.09975124224178,27.018512172212592,51.03920062069938,37.01351104664349,35.5,37.0,32.0,7.5,16.5,2.5,2.5,6.0,5.0990195135927845,5.5,18.0,20.0,20.0,{},{}
374,374,2,0,15.598916666666796,3.0,68.18357573492314,7.071067811865476,14.0356688476182,19.026297590440446,20.09975124224178,26.0,50.039984012787215,36.013886210738214,34.5,38.0,33.0,9.5,14.5,0.5,3.5,7.0,5.0,6.0,18.0,20.0,20.0,{},{}
375,375,2,0,15.64062500000013,2.0,68.18357573492314,5.0,10.04987562112089,18.110770276274835,19.026297590440446,29.0,46.01086828130936,36.0,35.0,39.0,34.0,7.5,9.5,0.5,4.5,7.0,6.0,6.5,18.0,21.0,20.0,{},{}
376,376,2,0,15.682333333333464,0.0,71.11258679024411,5.0990195135927845,10.04987562112089,18.110770276274835,18.027756377319943,28.0178514522438,43.01162633521314,33.0,33.0,36.0,32.0,6.0,9.0,1.0,3.0,6.082762530298219,5.0,6.0,17.0,19.0,21.0,{},{}
377,377,2,0,15.724041666666798,1.0,69.1158447825099,6.0,10.0,19.026297590440446,19.026297590440446,29.0,46.0,36.0,35.5,37.0,33.0,6.0,11.0,1.0,2.0,7.0,6.082762530298219,6.5,18.0,21.0,21.0,{},{}
378,378,2,0,15.765750000000132,5.0990195135927845,73.17103251970687,7.0,12.0,20.09975124224178,21.095023109728988,28.0,52.009614495783374,40.01249804748511,37.5,38.0,33.0,7.5,16.5,4.5,2.5,6.0,6.0,6.5,17.0,20.0,21.0,{},{}
379,379,2,0,15.807458333333466,7.071067811865476,72.17340230306452,7.0,12.0,20.09975124224178,21.095023109728988,28.0178514522438,54.037024344425184,42.04759208325728,38.5,39.0,34.0,8.5,17.5,5.5,3.5,6.0,6.082762530298219,6.5,18.0,20.0,21.02379604162864,{},{}
380,380,2,0,15.8491666666668,6.082762530298219,73.17103251970687,7.0,13.038404810405298,20.024984394500787,22.09072203437452,28.0178514522438,54.08326913195984,41.04875150354759,38.0,38.0,33.0,7.5,18.5,5.5,2.5,6.0,5.0,5.5,17.0,21.0,21.0,{},{}
381,381,2,0,15.890875000000134,6.082762530298219,71.11258679024411,7.0,14.0356688476182,19.1049731745428,21.095023109728988,27.018512172212592,54.08326913195984,40.049968789001575,37.0,38.0,34.0,9.0,18.0,3.0,4.0,6.0,5.0990195135927845,6.0,18.0,22.0,24.0,{},{}
382,382,2,0,15.932583333333469,2.0,70.178344238091,7.071067811865476,12.041594578792296,19.026297590440446,20.024984394500787,27.0,48.04164859785725,36.013886210738214,35.0,37.0,32.0,7.5,13.5,1.5,2.5,7.071067811865476,5.0990195135927845,6.0,18.0,22.0,22.0,{},{}
383,383,2,0,15.974291666666804,3.1622776601683795,69.18092222571191,6.0,12.041594578792296,19.1049731745428,19.1049731745428,28.0178514522438,49.09175083453431,37.05401462729781,35.5,38.0,33.0,7.5,13.5,1.5,3.5,7.0,6.082762530298219,6.0,17.0,21.0,22.0,{},{}
384,384,2,0,16.016000000000137,1.0,67.11929677819934,6.0,12.041594578792296,17.11724276862369,18.110770276274835,27.018512172212592,46.04345773288535,34.0147027033899,33.5,37.0,33.0,8.0,11.0,1.0,4.0,7.071067811865476,6.0,6.5,18.0,22.0,22.0,{},{}
385,385,2,0,16.05770833333347,1.0,65.12296062065974,4.123105625617661,10.04987562112089,17.029386365926403,17.029386365926403,29.0,44.04543109109048,34.0147027033899,33.5,37.0,33.0,6.0,9.0,1.0,3.0,8.06225774829855,6.0,6.5,18.0,21.0,21.0,{},{}
386,386,2,0,16.0994166666668,1.4142135623730951,68.11754546370561,6.0,11.04536101718726,18.110770276274835,18.110770276274835,28.0178514522438,46.09772228646444,35.05709628591621,34.5,38.0,34.0,8.0,10.0,1.0,4.0,6.0,6.082762530298219,6.5,16.0,21.0,20.024984394500787,{},{}
387,387,2,0,16.141125000000134,2.23606797749979,70.06425622241343,6.0,11.04536101718726,19.1049731745428,20.024984394500787,27.018512172212592,46.09772228646444,35.05709628591621,34.0,36.0,33.0,7.5,11.5,0.5,3.5,6.082762530298219,5.0990195135927845,5.5,17.0,21.0,19.026297590440446,{},{}
388,388,2,0,16.182833333333466,10.04987562112089,71.11258679024411,5.0,11.04536101718726,18.110770276274835,20.09975124224178,25.079872407968907,51.15662224971465,40.11234224026316,35.0,36.0,32.0,9.0,17.0,6.0,6.0,6.0,6.082762530298219,6.0,17.0,21.0,21.02379604162864,{},{}
389,389,2,0,16.2245416666668,11.04536101718726,70.25667228100119,5.0990195135927845,12.041594578792296,19.1049731745428,20.09975124224178,24.020824298928627,52.15361924162119,40.11234224026316,34.5,37.0,31.0,10.0,18.0,6.0,7.0,6.0,6.082762530298219,6.0,18.0,22.0,20.0,{},{}
390,390,2,0,16.26625000000013,12.0,69.26037828369117,4.123105625617661,12.041594578792296,19.026297590440446,20.09975124224178,24.020824298928627,52.08646657242167,40.049968789001575,34.0,37.0,31.0,10.0,18.0,6.0,7.0,6.0,5.0990195135927845,5.5,17.0,22.0,19.026297590440446,{},{}
391,391,2,0,16.307958333333463,12.041594578792296,68.3593446428504,5.0990195135927845,12.041594578792296,18.110770276274835,20.09975124224178,23.021728866442675,52.15361924162119,40.11234224026316,34.0,36.0,29.0,9.5,19.5,7.5,6.5,6.082762530298219,5.0990195135927845,5.5,17.0,21.0,21.02379604162864,{},{}
392,392,2,0,16.349666666666796,11.04536101718726,70.25667228100119,5.0990195135927845,13.038404810405298,19.1049731745428,21.095023109728988,23.021728866442675,52.15361924162119,39.11521443121589,33.5,35.0,29.0,9.0,20.0,7.0,6.0,6.0,5.0990195135927845,5.5,17.0,22.0,20.09975124224178,{},{}
393,393,2,0,16.391375000000128,14.0356688476182,72.24956747275377,4.123105625617661,13.038404810405298,19.026297590440446,21.095023109728988,23.021728866442675,54.147945482723536,41.10960958218893,34.0,35.0,29.0,9.0,22.0,8.0,6.0,6.0,5.0990195135927845,5.5,17.0,23.0,19.026297590440446,{},{}
394,394,2,0,16.43308333333346,14.0356688476182,74.24284477308234,6.082762530298219,13.038404810405298,20.09975124224178,22.09072203437452,24.08318915758459,57.21887800367987,44.181444068749045,37.0,36.0,30.0,9.0,24.0,10.0,5.0,6.0,5.0990195135927845,5.5,18.0,24.0,19.026297590440446,{},{}
395,395,2,0,16.474791666666793,6.082762530298219,72.3394774656273,5.0990195135927845,13.038404810405298,20.09975124224178,21.095023109728988,25.079872407968907,49.25444142409901,36.22154055254967,33.0,37.0,30.0,8.5,15.5,2.5,5.5,7.071067811865476,5.0990195135927845,5.5,17.0,23.0,22.09072203437452,{},{}
396,396,2,0,16.516500000000125,16.0312195418814,74.24284477308234,5.0,11.180339887498947,22.09072203437452,23.08679276123039,24.08318915758459,56.22277118748239,45.09988913511872,37.0,37.0,31.0,10.0,22.0,10.0,7.0,7.071067811865476,6.082762530298219,6.5,18.0,25.0,23.021728866442675,{},{}
397,397,2,0,16.558208333333457,13.152946437965904,74.33034373659252,6.0,12.041594578792296,21.095023109728988,23.08679276123039,24.08318915758459,55.22680508593631,43.18564576337837,36.5,37.0,30.0,9.5,21.5,9.5,5.5,7.071067811865476,6.082762530298219,6.0,17.0,23.0,20.09975124224178,{},{}
398,398,2,0,16.59991666666679,9.055385138137416,73.33484846919642,5.0990195135927845,11.04536101718726,20.09975124224178,21.095023109728988,25.079872407968907,50.24937810560445,39.20459156782532,34.5,37.0,30.0,8.5,16.5,5.5,5.5,6.0,5.0990195135927845,5.5,17.0,22.0,19.026297590440446,{},{}
399,399,2,0,16.641625000000122,5.0990195135927845,72.3394774656273,5.0990195135927845,12.041594578792296,20.09975124224178,21.095023109728988,25.019992006393608,47.16990566028302,35.12833614050059,32.5,37.0,30.0,8.5,13.5,2.5,5.5,6.0,5.0,5.5,19.0,26.0,19.026297590440446,{},{}
400,400,2,0,16.683333333333454,4.123105625617661,70.34912934784623,5.0990195135927845,11.04536101718726,19.1049731745428,19.1049731745428,25.019992006393608,45.17742799230607,34.132096331752024,32.0,37.0,30.0,8.5,11.5,0.5,5.5,7.071067811865476,6.0,6.0,16.0,22.0,19.1049731745428,{},{}
401,401,2,0,16.725041666666787,8.06225774829855,69.35416353759881,4.123105625617661,11.04536101718726,19.026297590440446,19.1049731745428,24.020824298928627,47.16990566028302,36.12478373637688,32.0,37.0,30.0,9.5,13.5,2.5,6.5,7.0,6.0,6.5,17.0,23.0,20.024984394500787,{},{}
402,402,2,0,16.76675000000012,6.082762530298219,67.36467917239716,5.0990195135927845,11.04536101718726,19.1049731745428,19.235384061671343,24.020824298928627,46.17358552246078,35.12833614050059,32.0,37.0,30.0,9.5,12.5,1.5,6.5,6.082762530298219,6.082762530298219,6.0,16.0,23.0,19.1049731745428,{},{}
403,403,2,0,16.80845833333345,4.123105625617661,64.38167441127949,5.0990195135927845,12.041594578792296,19.1049731745428,19.235384061671343,24.020824298928627,45.17742799230607,33.13608305156178,31.0,37.0,30.0,9.5,11.5,0.5,6.5,7.0,7.071067811865476,6.5,16.0,23.0,18.110770276274835,{},{}
404,404,2,0,16.850166666666784,4.0,64.4980619863884,5.0990195135927845,12.041594578792296,17.11724276862369,18.110770276274835,25.019992006393608,46.09772228646444,34.058772731852805,32.0,38.0,30.0,9.0,12.0,0.0,6.0,6.082762530298219,6.082762530298219,6.0,16.0,22.0,18.110770276274835,{},{}
405,405,2,0,16.891875000000116,4.123105625617661,65.27633568147036,5.0,12.041594578792296,18.110770276274835,19.1049731745428,25.079872407968907,46.17358552246078,34.132096331752024,32.0,38.0,32.0,10.0,11.0,1.0,7.0,6.082762530298219,6.082762530298219,6.0,17.0,22.0,20.024984394500787,{},{}
406,406,2,0,16.93358333333345,3.1622776601683795,61.5223536610881,6.0,14.0356688476182,16.1245154965971,18.24828759089466,26.0768096208106,49.16299421312742,35.12833614050059,33.5,39.0,31.0,9.0,14.0,0.0,5.0,7.071067811865476,6.0,6.0,17.0,23.0,20.09975124224178,{},{}
407,407,2,0,16.97529166666678,4.123105625617661,59.30430001273095,7.071067811865476,14.0356688476182,17.11724276862369,18.24828759089466,27.018512172212592,52.15361924162119,38.11823710509184,36.0,40.0,34.0,10.0,15.0,1.0,5.0,6.0,6.082762530298219,6.5,17.0,23.0,21.02379604162864,{},{}
408,408,2,0,17.017000000000113,4.0,58.30951894845301,6.082762530298219,14.0356688476182,17.11724276862369,18.110770276274835,28.0713376952364,52.15361924162119,38.11823710509184,36.0,40.0,34.0,9.0,15.0,1.0,6.0,7.071067811865476,5.0990195135927845,6.0,18.0,24.0,20.09975124224178,{},{}
409,409,2,0,17.058708333333445,5.0990195135927845,60.29925372672534,6.0,14.0356688476182,18.110770276274835,19.1049731745428,28.0178514522438,53.08483775994799,39.05124837953327,36.5,40.0,34.0,9.0,16.0,2.0,5.0,7.0,6.0,6.5,17.0,23.0,21.02379604162864,{},{}
410,410,2,0,17.100416666666778,5.0,63.12685640834652,7.071067811865476,15.033296378372908,17.11724276862369,19.1049731745428,27.018512172212592,54.08326913195984,39.05124837953327,36.5,39.0,35.0,10.0,17.0,2.0,5.0,7.0,6.0,6.0,19.0,24.0,21.02379604162864,{},{}
411,411,2,0,17.14212500000011,6.0,65.27633568147036,7.071067811865476,15.033296378372908,18.110770276274835,20.09975124224178,27.018512172212592,55.08175741568164,40.049968789001575,37.0,39.0,33.0,9.0,19.0,4.0,4.0,7.071067811865476,6.0,6.0,17.0,23.0,19.026297590440446,{},{}
412,412,2,0,17.183833333333443,4.123105625617661,67.26812023536856,7.071067811865476,15.033296378372908,19.1049731745428,19.1049731745428,27.018512172212592,53.150729063673246,38.11823710509184,36.0,39.0,33.0,9.0,17.0,2.0,4.0,7.0,6.082762530298219,6.5,17.0,22.0,21.02379604162864,{},{}
413,413,2,0,17.225541666666775,6.082762530298219,69.18092222571191,7.0,13.152946437965904,18.110770276274835,20.09975124224178,26.0768096208106,52.23983154643591,39.11521443121589,36.0,38.0,33.0,9.5,16.5,3.5,4.5,6.0,5.0990195135927845,5.5,17.0,22.0,19.026297590440446,{},{}
414,414,2,0,17.267250000000107,6.0,72.24956747275377,6.0,11.180339887498947,19.1049731745428,20.09975124224178,26.0768096208106,49.16299421312742,38.05259518088089,35.0,38.0,32.0,9.0,14.0,3.0,5.0,6.082762530298219,5.0,5.5,17.0,23.0,18.027756377319943,{},{}
415,415,2,0,17.30895833333344,6.082762530298219,70.34912934784623,5.0,12.041594578792296,19.1049731745428,20.223748416156685,26.019223662515376,49.09175083453431,37.05401462729781,34.0,38.0,31.0,8.5,14.5,3.5,5.5,7.071067811865476,6.082762530298219,6.0,17.0,24.0,23.08679276123039,{},{}
416,416,2,0,17.350666666666772,6.324555320336759,68.26419266350405,6.0,12.041594578792296,18.110770276274835,20.09975124224178,26.0768096208106,50.24937810560445,38.2099463490856,35.0,39.0,33.0,10.0,14.0,2.0,6.0,7.0,6.082762530298219,6.5,17.0,23.0,21.095023109728988,{},{}
417,417,2,0,17.392375000000104,6.082762530298219,68.46897107449476,8.0,13.038404810405298,19.235384061671343,20.223748416156685,26.0768096208106,53.150729063673246,40.11234224026316,37.0,41.0,33.0,11.0,16.0,3.0,6.0,6.0,5.0990195135927845,5.5,17.0,24.0,21.095023109728988,{},{}
418,418,2,0,17.434083333333437,6.082762530298219,67.47592163134935,8.06225774829855,14.0356688476182,18.110770276274835,20.09975124224178,26.019223662515376,54.147945482723536,40.11234224026316,37.0,41.0,33.0,11.0,17.0,3.0,5.0,6.0,6.0,6.0,18.0,24.0,23.021728866442675,{},{}
419,419,2,0,17.47579166666677,7.071067811865476,67.47592163134935,7.071067811865476,15.033296378372908,18.24828759089466,19.235384061671343,26.019223662515376,55.14526271584895,40.11234224026316,36.5,41.0,33.0,11.0,18.0,3.0,6.0,6.082762530298219,6.0,6.0,18.0,25.0,22.02271554554524,{},{}
420,420,2,0,17.5175000000001,8.06225774829855,67.60177512462228,7.0,14.142135623730953,19.1049731745428,20.09975124224178,26.019223662515376,55.14526271584895,41.04875150354759,37.0,41.0,32.0,10.5,18.5,3.5,5.5,6.0,6.0,6.5,17.0,23.0,24.08318915758459,{},{}
421,421,2,0,17.559208333333434,7.071067811865476,66.48308055437865,7.0,14.0356688476182,19.1049731745428,20.09975124224178,26.0768096208106,54.147945482723536,40.11234224026316,36.5,41.0,33.0,11.0,17.0,3.0,6.0,7.071067811865476,6.082762530298219,6.5,17.0,24.0,22.09072203437452,{},{}
422,422,2,0,17.600916666666766,8.06225774829855,67.47592163134935,7.0,15.033296378372908,19.1049731745428,21.095023109728988,26.0768096208106,56.1426753904728,41.10960958218893,37.0,41.0,33.0,11.0,19.0,4.0,6.0,6.082762530298219,6.0,6.0,17.0,23.0,21.095023109728988,{},{}
423,423,2,0,17.6426250000001,6.0,65.49045732013177,8.06225774829855,14.142135623730953,18.110770276274835,20.09975124224178,27.018512172212592,55.14526271584895,41.04875150354759,38.0,42.0,34.0,11.0,17.0,3.0,5.0,7.0,7.0,7.0,16.0,22.0,19.026297590440446,{},{}
424,424,2,0,17.68433333333343,5.0,67.36467917239716,6.082762530298219,11.180339887498947,19.1049731745428,20.09975124224178,27.018512172212592,49.16299421312742,38.05259518088089,35.5,40.0,33.0,9.5,12.5,1.5,5.5,7.0,6.082762530298219,6.0,16.0,22.0,20.024984394500787,{},{}
425,425,2,0,17.726041666666763,2.0,70.34912934784623,5.0990195135927845,10.198039027185567,19.1049731745428,20.09975124224178,25.019992006393608,42.190046219457976,32.0624390837628,31.0,38.0,31.0,9.5,7.5,1.5,6.5,7.0,6.0,6.5,16.0,22.0,21.02379604162864,{},{}
426,426,2,0,17.767750000000095,6.082762530298219,69.35416353759881,6.0,11.180339887498947,20.09975124224178,20.09975124224178,26.0768096208106,49.25444142409901,38.11823710509184,35.0,40.0,33.0,10.5,12.5,1.5,6.5,6.0,5.0990195135927845,5.5,15.0,22.0,15.132745950421556,{},{}
427,427,2,0,17.809458333333428,13.038404810405298,69.35416353759881,6.0,12.16552506059644,21.213203435596427,22.20360331117452,26.0768096208106,57.21887800367987,45.09988913511872,38.5,41.0,34.0,11.5,19.5,7.5,7.5,6.0,6.0,6.0,15.0,21.0,17.11724276862369,{},{}
428,428,2,0,17.85116666666676,20.024984394500787,73.33484846919642,5.0,11.04536101718726,21.213203435596427,22.20360331117452,25.019992006393608,61.07372593840988,50.039984012787215,40.0,42.0,35.0,13.5,22.5,11.5,10.5,6.082762530298219,6.082762530298219,6.0,15.0,22.0,18.110770276274835,{},{}
429,429,2,0,17.892875000000092,10.04987562112089,73.43704787094863,7.0,11.04536101718726,21.213203435596427,22.20360331117452,27.018512172212592,55.08175741568164,44.04543109109048,39.0,42.0,34.0,11.0,17.0,6.0,7.0,6.0,6.082762530298219,6.5,15.0,21.0,18.110770276274835,{},{}
430,430,2,0,17.934583333333425,7.071067811865476,70.45565981523414,4.123105625617661,11.180339887498947,19.1049731745428,20.223748416156685,25.019992006393608,47.265209192385896,36.12478373637688,32.5,39.0,31.0,10.0,12.0,2.0,8.0,6.082762530298219,6.082762530298219,6.0,14.0,21.0,19.026297590440446,{},{}
431,431,2,0,17.976291666666757,9.0,67.60177512462228,4.123105625617661,10.198039027185567,20.223748416156685,20.223748416156685,25.019992006393608,48.16637831516918,38.05259518088089,33.5,41.0,32.0,11.5,11.5,1.5,10.5,6.082762530298219,6.082762530298219,6.5,13.0,21.0,19.1049731745428,{},{}
432,432,2,0,18.01800000000009,6.0,64.6297145282261,4.123105625617661,10.198039027185567,18.110770276274835,18.110770276274835,25.019992006393608,45.17742799230607,35.05709628591621,32.0,41.0,32.0,11.5,8.5,0.5,8.5,6.082762530298219,6.082762530298219,6.0,14.0,21.0,18.110770276274835,{},{}
433,433,2,0,18.059708333333425,1.0,64.4980619863884,4.0,9.055385138137416,18.24828759089466,18.24828759089466,29.017236257093817,42.1070065428546,33.06055050963308,33.0,40.0,32.0,7.0,6.0,3.0,5.0,6.082762530298219,5.0990195135927845,5.5,14.0,21.0,19.026297590440446,{},{}
434,434,2,0,18.10141666666676,1.0,63.50590523722971,5.0990195135927845,9.219544457292889,17.11724276862369,17.11724276862369,27.018512172212592,40.19950248448356,31.064449134018133,31.5,38.0,30.0,7.0,6.0,3.0,4.0,6.082762530298219,6.324555320336759,6.0,14.0,21.0,18.24828759089466,{},{}
435,435,2,0,18.143125000000087,1.0,66.37017402418047,5.0,9.055385138137416,17.11724276862369,17.11724276862369,29.017236257093817,43.10452412450461,34.058772731852805,34.0,40.0,33.0,7.5,6.5,2.5,4.5,6.082762530298219,6.082762530298219,6.5,14.0,21.0,18.110770276274835,{},{}
436,436,2,0,18.18483333333342,2.0,66.37017402418047,6.082762530298219,11.180339887498947,18.110770276274835,18.110770276274835,28.0178514522438,47.16990566028302,36.05551275463989,35.0,40.0,33.0,8.5,10.5,0.5,4.5,6.082762530298219,6.082762530298219,6.0,15.0,22.0,17.26267650163207,{},{}
437,437,2,0,18.22654166666675,6.082762530298219,66.37017402418047,6.0,10.04987562112089,18.110770276274835,18.110770276274835,28.0178514522438,50.08991914547278,40.049968789001575,37.0,41.0,34.0,9.5,12.5,2.5,5.5,7.071067811865476,6.082762530298219,6.5,15.0,22.0,18.110770276274835,{},{}
438,438,2,0,18.268250000000084,3.1622776601683795,65.19202405202648,7.0,12.041594578792296,18.110770276274835,19.026297590440446,27.073972741361768,49.16299421312742,37.12142238654117,35.5,40.0,35.0,10.5,11.5,0.5,5.5,6.082762530298219,6.082762530298219,6.0,16.0,23.0,18.110770276274835,{},{}
439,439,2,0,18.309958333333416,5.0990195135927845,66.27216610312357,8.06225774829855,13.038404810405298,18.24828759089466,19.1049731745428,27.018512172212592,53.150729063673246,40.11234224026316,37.5,40.0,34.0,10.0,16.0,3.0,5.0,6.082762530298219,6.082762530298219,6.0,14.0,21.0,17.26267650163207,{},{}
440,440,2,0,18.35166666666675,5.0990195135927845,65.37583651472461,8.06225774829855,12.041594578792296,18.110770276274835,20.223748416156685,26.019223662515376,51.15662224971465,39.11521443121589,36.5,40.0,33.0,10.5,14.5,2.5,4.5,6.0,6.082762530298219,6.5,15.0,21.0,18.110770276274835,{},{}
441,441,2,0,18.39337500000008,10.0,66.37017402418047,8.06225774829855,14.142135623730953,19.1049731745428,21.095023109728988,27.073972741361768,59.21148537234985,45.09988913511872,40.0,42.0,35.0,11.5,20.5,6.5,5.5,6.082762530298219,6.082762530298219,6.5,15.0,23.0,20.09975124224178,{},{}
442,442,2,0,18.435083333333413,11.0,67.36467917239716,8.06225774829855,12.041594578792296,21.095023109728988,21.213203435596427,27.018512172212592,58.077534382926416,46.04345773288535,40.5,43.0,36.0,12.5,18.5,6.5,6.5,7.071067811865476,6.082762530298219,6.5,15.0,22.0,19.1049731745428,{},{}
443,443,2,0,18.476791666666745,12.0,68.3593446428504,8.06225774829855,13.152946437965904,20.09975124224178,21.213203435596427,27.018512172212592,60.13318551349163,47.042533945356304,41.0,43.0,36.0,12.5,20.5,7.5,6.5,6.082762530298219,6.082762530298219,6.5,16.0,23.0,17.26267650163207,{},{}
444,444,2,0,18.51850000000008,12.041594578792296,69.35416353759881,7.0,13.038404810405298,21.095023109728988,22.20360331117452,27.073972741361768,59.13543776789008,46.09772228646444,40.0,42.0,35.0,11.5,20.5,7.5,6.5,7.071067811865476,6.082762530298219,6.0,16.0,22.0,21.095023109728988,{},{}
445,445,2,0,18.56020833333341,11.0,71.449282711585,7.071067811865476,13.152946437965904,21.213203435596427,22.20360331117452,27.073972741361768,58.215118311311535,45.09988913511872,39.5,42.0,34.0,11.0,20.0,7.0,6.0,7.071067811865476,6.082762530298219,6.5,15.0,22.0,18.110770276274835,{},{}
446,446,2,0,18.601916666666742,7.071067811865476,74.33034373659252,7.0,12.041594578792296,21.213203435596427,22.20360331117452,27.073972741361768,53.150729063673246,41.10960958218893,37.5,39.0,32.0,8.5,17.5,5.5,4.5,6.082762530298219,6.082762530298219,6.0,15.0,22.0,17.11724276862369,{},{}
447,447,2,0,18.643625000000075,5.0990195135927845,74.43117626371358,7.0,10.198039027185567,21.213203435596427,22.36067977499789,27.073972741361768,49.25444142409901,39.11521443121589,36.5,39.0,31.0,8.0,14.0,4.0,3.0,7.071067811865476,6.082762530298219,6.0,14.0,22.0,17.11724276862369,{},{}
448,448,2,0,18.685333333333407,2.23606797749979,76.4198926981712,7.0,10.198039027185567,21.213203435596427,21.213203435596427,25.079872407968907,44.28317965096906,34.132096331752024,33.0,37.0,29.0,8.0,11.0,2.0,3.0,6.082762530298219,5.0990195135927845,5.5,15.0,22.0,18.110770276274835,{},{}
449,449,2,0,18.72704166666674,8.246211251235321,76.4198926981712,5.0,10.04987562112089,21.095023109728988,22.20360331117452,25.079872407968907,48.25971404805462,38.2099463490856,34.0,37.0,29.0,8.0,15.0,5.0,5.0,6.082762530298219,5.0990195135927845,5.5,13.0,21.0,18.24828759089466,{},{}
450,450,2,0,18.76875000000007,8.06225774829855,76.4198926981712,5.0990195135927845,10.04987562112089,20.09975124224178,21.213203435596427,25.079872407968907,48.25971404805462,38.2099463490856,34.0,37.0,29.0,8.0,15.0,5.0,5.0,6.0,6.0,6.0,14.0,21.0,19.1049731745428,{},{}
451,451,2,0,18.810458333333404,8.06225774829855,74.54528824815154,4.123105625617661,10.198039027185567,21.213203435596427,22.20360331117452,25.019992006393608,47.265209192385896,37.12142238654117,33.0,37.0,28.0,7.5,14.5,5.5,5.5,7.071067811865476,6.082762530298219,6.0,15.0,23.0,21.02379604162864,{},{}
452,452,2,0,18.852166666666736,7.071067811865476,74.43117626371358,5.0,10.198039027185567,20.09975124224178,21.213203435596427,25.079872407968907,47.265209192385896,37.12142238654117,33.5,37.0,29.0,8.0,14.0,5.0,5.0,7.071067811865476,6.082762530298219,6.5,15.0,23.0,19.1049731745428,{},{}
453,453,2,0,18.89387500000007,8.06225774829855,73.55270219373317,4.123105625617661,10.04987562112089,21.213203435596427,21.213203435596427,26.019223662515376,48.16637831516918,38.11823710509184,34.0,38.0,29.0,7.5,14.5,4.5,5.5,6.082762530298219,5.0990195135927845,5.5,14.0,22.0,18.027756377319943,{},{}
454,454,2,0,18.9355833333334,5.0990195135927845,73.43704787094863,5.0,11.180339887498947,20.223748416156685,20.223748416156685,26.0768096208106,47.265209192385896,36.12478373637688,33.5,38.0,30.0,8.0,13.0,3.0,5.0,6.082762530298219,5.0990195135927845,5.5,14.0,22.0,21.095023109728988,{},{}
455,455,2,0,18.977291666666734,2.23606797749979,74.43117626371358,6.0,12.16552506059644,20.223748416156685,21.213203435596427,26.0768096208106,46.2709412050371,34.132096331752024,33.0,38.0,30.0,8.0,12.0,1.0,4.0,6.082762530298219,6.082762530298219,6.5,15.0,23.0,17.26267650163207,{},{}
456,456,2,0,19.019000000000062,6.0,73.43704787094863,5.0990195135927845,11.04536101718726,20.223748416156685,21.213203435596427,26.019223662515376,48.0936586256442,37.05401462729781,34.0,38.0,30.0,8.0,14.0,3.0,5.0,6.082762530298219,6.0,6.5,15.0,23.0,20.09975124224178,{},{}
457,457,2,0,19.0607083333334,2.0,72.44308110509934,7.071067811865476,12.16552506059644,20.223748416156685,21.213203435596427,26.019223662515376,47.16990566028302,35.05709628591621,34.0,38.0,30.0,8.0,13.0,1.0,4.0,7.071067811865476,6.082762530298219,6.0,15.0,22.0,18.027756377319943,{},{}
458,458,2,0,19.10241666666673,2.23606797749979,72.56031973468694,7.0,12.16552506059644,20.223748416156685,21.213203435596427,26.0768096208106,47.265209192385896,35.12833614050059,34.0,39.0,30.0,8.5,12.5,1.5,4.5,7.071067811865476,6.082762530298219,6.5,15.0,23.0,18.110770276274835,{},{}
459,459,2,0,19.144125000000063,3.0,72.44308110509934,6.082762530298219,12.16552506059644,20.09975124224178,21.213203435596427,26.0768096208106,47.265209192385896,35.12833614050059,33.5,38.0,30.0,8.0,13.0,1.0,4.0,6.082762530298219,6.082762530298219,6.0,16.0,23.0,18.110770276274835,{},{}
