,video_id,frame_seq,gap,time_seconds,m1,m3,m4,m5,m6,m7,m8,m9,m10,m11,m12,m13,m14,m15,m16,m17,e1,e2,e3,b1,b2,b3,m_0_16,m_1_15,m_2_14,m_3_13
0,2,0,0,0.0,4.0,67.02984409947557,5.0,9.055385138137417,19.026297590440446,20.024984394500787,27.16615541441225,45.17742799230607,36.124783736376884,34.0,31.0,33.0,5.0,13.0,3.0,1.0,6.082762530298219,6.0,6.5,22.0,17.0,22.090722034374522,190.21303845951255,188.09572031282372,183.0027322200409,173.02600960549256
1,2,1,0,0.0417083333333333,4.0,68.00735254367721,5.0,9.055385138137417,19.026297590440446,20.0,27.16615541441225,45.17742799230607,36.124783736376884,34.0,32.0,33.0,5.5,12.5,2.5,1.5,8.06225774829855,7.0710678118654755,7.5,23.0,17.0,21.095023109728988,190.31815467789718,189.0952141118331,184.0108692441835,176.00284088616297
2,2,2,0,0.0834166666666666,4.0,68.0294054067798,5.0990195135927845,9.0,19.0,20.024984394500787,26.076809620810597,44.10215414239989,35.12833614050059,33.0,31.0,33.0,6.0,12.0,2.0,2.0,7.0710678118654755,7.0710678118654755,7.5,22.0,17.0,22.20360331117452,192.31484602078956,189.0952141118331,186.02419197512995,176.00284088616297
3,2,3,0,0.1251249999999999,4.0,68.0294054067798,5.0,10.04987562112089,19.0,20.0,26.1725046566048,45.17742799230607,35.12833614050059,33.0,31.0,33.0,6.0,13.0,2.0,2.0,7.0710678118654755,7.0,7.0,21.0,16.0,21.02379604162864,195.20758181996928,193.06475597581243,188.0026595556563,177.01129907438113
4,2,4,0,0.1668333333333332,4.0,68.0294054067798,5.0990195135927845,11.0,19.0,19.026297590440446,26.076809620810597,46.09772228646444,35.12833614050059,33.0,31.0,33.0,6.0,14.0,2.0,2.0,7.0710678118654755,7.0710678118654755,7.0,22.0,17.0,22.090722034374522,191.26160095534075,189.0952141118331,184.0244548966251,175.0
5,2,5,0,0.2085416666666665,3.0,69.00724599634447,7.0710678118654755,13.038404810405298,20.0,20.0,25.019992006393608,48.093658625644196,35.05709628591621,33.5,32.0,33.0,7.5,15.5,1.5,1.5,7.0710678118654755,6.082762530298219,6.5,21.0,16.0,21.213203435596427,192.16659439142902,190.04210059878838,186.00268815261785,176.02556632489498
6,2,6,0,0.2502499999999998,6.0,72.00694410957877,6.082762530298219,13.038404810405298,21.0,22.02271554554524,26.019223662515376,51.088159097779204,38.05259518088089,35.0,33.0,34.0,7.5,17.5,3.5,2.5,6.082762530298219,6.0,6.5,21.0,16.0,20.024984394500787,195.20758181996928,192.06509313251067,187.0240626229684,176.00284088616297
7,2,7,0,0.2919583333333331,7.0710678118654755,72.0,6.082762530298219,12.0,20.024984394500787,21.0,25.019992006393608,50.08991914547278,38.118237105091836,34.5,32.0,32.0,7.0,18.0,6.0,2.0,7.0,7.0,6.5,22.0,17.0,23.021728866442675,193.2097306038182,192.09372712298546,187.0106948813356,177.01129907438113
8,2,8,0,0.3336666666666664,9.055385138137417,74.02702209328699,7.0,13.038404810405298,21.0,22.02271554554524,25.079872407968907,54.147945482723536,41.10960958218893,36.5,31.0,33.0,7.0,22.0,8.0,1.0,6.082762530298219,6.0,6.0,21.0,16.0,22.02271554554524,193.25889371514057,192.09372712298546,187.0106948813356,177.00282483621552
9,2,9,0,0.3753749999999997,8.06225774829855,73.00684899377592,6.0,13.038404810405298,22.0,23.021728866442675,26.076809620810597,53.150729063673246,40.11234224026316,36.0,32.0,33.0,6.5,20.5,6.5,1.5,6.082762530298219,6.0,6.0,22.0,17.0,21.095023109728988,192.21082175569617,191.06543381784158,187.00267377767625,176.0113632695344
10,2,10,0,0.417083333333333,3.0,76.00657866263946,7.0710678118654755,12.041594578792296,21.0,23.0,25.079872407968907,47.16990566028302,35.12833614050059,33.5,29.0,30.0,4.5,17.5,4.5,0.5,6.082762530298219,6.0,6.0,22.0,16.0,20.09975124224178,190.26297590440447,189.0952141118331,185.0108104949546,177.01129907438113
11,2,11,0,0.4587916666666662,2.0,76.00657866263946,7.0710678118654755,12.041594578792296,21.02379604162864,21.0,25.079872407968907,46.17358552246078,34.132096331752024,33.0,29.0,30.0,4.5,16.5,4.5,0.5,7.0710678118654755,6.082762530298219,6.5,22.0,17.0,20.024984394500787,189.21416437465774,188.04254837669055,184.00271737123884,175.0114281982751
12,2,12,0,0.5004999999999996,3.1622776601683795,77.05841939723393,5.0990195135927845,12.0,21.0,22.02271554554524,25.079872407968907,45.17742799230607,33.24154027718932,31.5,26.0,29.0,2.5,17.5,4.5,1.5,7.0710678118654755,7.0,7.0,22.0,16.0,22.090722034374522,190.31815467789718,188.13027401245128,185.04323819042943,176.00284088616297
13,2,13,0,0.542208333333333,3.0,77.05841939723393,5.0990195135927845,12.041594578792296,20.0,21.0,25.079872407968907,45.17742799230607,33.13608305156178,31.5,25.0,28.0,1.5,18.5,5.5,2.5,7.0710678118654755,7.0,7.0,22.0,16.0,21.095023109728988,189.16923639957952,188.06647760831805,184.0244548966251,176.00284088616297
14,2,14,0,0.5839166666666663,11.045361017187261,79.1012010022604,4.0,10.04987562112089,22.0,23.021728866442675,24.08318915758459,49.16299421312742,39.11521443121589,33.5,24.0,28.0,2.0,23.0,11.0,1.0,6.082762530298219,6.082762530298219,6.0,22.0,16.0,20.024984394500787,188.2153022471871,187.06683297688022,183.0109286354233,175.0
15,2,15,0,0.6256249999999997,11.0,78.10249675906654,5.0990195135927845,10.04987562112089,22.02271554554524,22.02271554554524,24.020824298928627,50.08991914547278,40.049968789001575,34.5,25.0,29.0,3.0,23.0,11.0,1.0,6.082762530298219,7.0710678118654755,6.5,22.0,16.0,20.09975124224178,189.16923639957952,188.06647760831805,183.0027322200409,175.0028571195339
16,2,16,0,0.667333333333333,11.0,77.05841939723393,4.0,10.04987562112089,21.0,21.0,24.08318915758459,49.09175083453431,39.05124837953327,33.5,26.0,29.0,3.5,21.5,10.5,0.5,6.082762530298219,7.0710678118654755,7.0,21.0,16.0,20.09975124224178,194.20865068271289,191.06543381784158,186.01075237738274,176.00284088616297
17,2,17,0,0.7090416666666663,10.0,78.10249675906654,4.0,11.045361017187261,21.02379604162864,22.0,24.186773244895647,49.16299421312742,38.118237105091836,33.0,26.0,30.0,4.0,21.0,9.0,1.0,6.0,6.0,6.0,21.0,15.0,19.1049731745428,194.25756098540927,191.09421759959145,187.0240626229684,178.0028089666003
18,2,18,0,0.7507499999999997,10.0,74.02702209328699,5.0,10.04987562112089,20.024984394500787,21.0,23.194827009486403,48.16637831516918,38.118237105091836,33.0,27.0,29.0,5.0,20.0,9.0,2.0,6.082762530298219,7.0710678118654755,7.0,20.0,15.0,17.11724276862369,193.1657319505714,190.06577808748213,185.00270268296083,176.0113632695344
19,2,19,0,0.792458333333333,10.0,75.02666192761077,4.0,10.04987562112089,20.0,22.0,24.08318915758459,48.093658625644196,38.05259518088089,33.0,27.0,29.0,4.0,20.0,8.0,1.0,6.082762530298219,6.0,6.0,21.0,16.0,20.09975124224178,195.20758181996928,192.09372712298546,187.0106948813356,178.0028089666003
20,2,20,0,0.8341666666666664,11.0,77.02596964660685,6.0,13.038404810405298,21.02379604162864,23.0,24.08318915758459,54.08326913195984,41.048751503547585,35.5,27.0,29.0,4.0,26.0,12.0,0.0,6.082762530298219,7.0,7.0,23.0,16.0,20.09975124224178,191.26160095534075,190.12890364171355,185.02432272541898,176.0
21,2,21,0,0.8758749999999997,11.0,76.02631123499285,6.0,14.035668847618199,21.0,23.0,24.08318915758459,55.08175741568164,41.048751503547585,35.5,27.0,29.0,4.0,27.0,12.0,1.0,7.0710678118654755,6.082762530298219,6.5,23.0,17.0,20.09975124224178,191.21192431435858,190.09471323527123,185.0108104949546,176.00284088616297
22,2,22,0,0.9175833333333332,13.0,77.00649323271382,5.0990195135927845,12.0,22.0,23.0,24.020824298928627,54.037024344425184,42.04759208325728,35.5,28.0,29.0,4.5,25.5,11.5,0.5,6.082762530298219,5.0,5.5,24.0,17.0,20.223748416156685,191.26160095534075,189.12958520548815,185.02432272541898,176.00284088616297
23,2,23,0,0.9592916666666664,12.041594578792296,76.00657866263946,4.0,11.0,21.0,21.0,24.08318915758459,51.088159097779204,40.11234224026316,34.0,28.0,29.0,4.5,22.5,10.5,1.5,7.0710678118654755,6.082762530298219,6.0,22.0,16.0,20.09975124224178,192.26024029944412,190.12890364171355,185.02432272541898,176.0
24,2,24,0,1.0009999999999997,10.0,73.00684899377592,4.123105625617661,10.0,20.0,21.0,23.08679276123039,47.095647357266465,37.12142238654117,32.0,27.0,28.0,4.5,19.5,8.5,1.5,7.0710678118654755,6.0,6.0,22.0,15.0,20.223748416156685,189.2643653728826,188.13027401245128,184.04347312523745,175.0
25,2,25,0,1.042708333333333,9.055385138137417,73.00684899377592,4.0,11.0,20.0,21.0,23.08679276123039,47.095647357266465,36.124783736376884,31.5,27.0,28.0,4.5,19.5,7.5,1.5,7.0710678118654755,6.0,6.5,22.0,15.0,21.095023109728988,188.32153355365392,186.1316738225926,182.02472359545007,173.0
26,2,26,0,1.084416666666666,7.0710678118654755,72.02777242147643,4.0,10.04987562112089,20.0,20.0,24.08318915758459,45.17742799230607,35.12833614050059,31.5,28.0,30.0,5.0,16.0,5.0,2.0,6.082762530298219,6.0,6.5,22.0,16.0,18.110770276274835,193.31321734428818,191.1674658512792,186.06719216455113,177.00282483621552
27,2,27,0,1.1261249999999994,7.0710678118654755,72.02777242147643,5.0,11.045361017187261,20.0,21.0,23.08679276123039,46.17358552246078,35.12833614050059,31.5,29.0,31.0,7.0,16.0,4.0,3.0,6.082762530298219,6.082762530298219,6.5,23.0,16.0,19.235384061671343,192.31484602078956,190.16834647227702,186.04300578092153,177.00282483621552
28,2,28,0,1.1678333333333326,8.06225774829855,70.02856560004639,4.0,11.0,20.024984394500787,21.0,23.08679276123039,46.09772228646444,35.12833614050059,31.0,29.0,31.0,7.0,16.0,4.0,3.0,6.082762530298219,6.0,6.0,21.0,15.0,20.09975124224178,197.3068675946177,194.164878389476,188.04254837669055,179.0
29,2,29,0,1.2095416666666658,7.0,71.02816342831905,5.0,11.045361017187261,20.0,20.0,23.194827009486403,46.17358552246078,35.12833614050059,31.5,29.0,31.0,7.0,16.0,4.0,3.0,6.082762530298219,6.0,6.0,20.0,15.0,20.024984394500787,196.25493624365222,193.12690128513947,188.0239346466295,178.0028089666003
30,2,30,0,1.251249999999999,10.0,70.02856560004639,4.0,11.045361017187261,19.0,21.0,24.08318915758459,49.09175083453431,38.05259518088089,33.0,30.0,32.0,7.0,18.0,5.0,4.0,6.082762530298219,5.0990195135927845,5.5,21.0,16.0,20.09975124224178,195.25624189766637,193.0932417253385,187.0240626229684,177.0
31,2,31,0,1.2929583333333323,11.0,71.00704190430693,7.0710678118654755,13.0,20.0,21.0,24.020824298928627,55.036351623268054,42.04759208325728,36.5,31.0,32.0,7.5,23.5,8.5,1.5,5.0990195135927845,5.0,5.5,22.0,16.0,19.026297590440446,192.26024029944412,190.12890364171355,185.06755523321746,176.00284088616297
32,2,32,0,1.3346666666666656,6.082762530298219,70.02856560004639,6.0,14.0,20.0,21.0,25.079872407968907,51.088159097779204,37.12142238654117,34.0,30.0,32.0,6.0,20.0,4.0,1.0,6.082762530298219,6.0,6.0,23.0,17.0,20.223748416156685,190.21303845951255,189.12958520548815,184.0244548966251,175.0
33,2,33,0,1.3763749999999988,6.0,69.02897942168927,6.0,12.041594578792296,18.0,20.0,24.08318915758459,48.093658625644196,36.05551275463989,33.0,29.0,31.0,6.0,18.0,4.0,1.0,6.0,5.0,5.5,22.0,17.0,19.026297590440446,191.3164917094185,189.16923639957952,184.06792224611002,175.0028571195339
34,2,34,0,1.418083333333332,2.0,71.00704190430693,6.0,13.038404810405298,20.0,21.0,25.079872407968907,46.09772228646444,33.06055050963308,32.0,30.0,31.0,5.5,15.5,1.5,1.5,6.0,6.082762530298219,6.0,21.0,16.0,19.1049731745428,193.2097306038182,190.09471323527123,186.02419197512995,177.00282483621552
35,2,35,0,1.4597916666666653,2.0,71.00704190430693,6.082762530298219,12.0,20.0,21.02379604162864,25.019992006393608,45.044422518220834,33.06055050963308,32.0,30.0,31.0,5.5,14.5,1.5,0.5,6.082762530298219,5.0990195135927845,5.5,21.0,16.0,19.1049731745428,191.09421759959145,188.0239346466295,183.0,174.0258601472781
36,2,36,0,1.5014999999999985,1.0,71.00704190430693,4.0,11.045361017187261,19.0,20.0,25.079872407968907,41.10960958218893,30.066592756745816,29.5,29.0,30.0,4.5,11.5,0.5,1.5,6.0,6.0,6.0,21.0,16.0,21.02379604162864,191.1674658512792,188.09572031282372,184.0244548966251,176.0
37,2,37,0,1.5432083333333315,1.0,72.02777242147643,5.0,11.0,19.0,20.024984394500787,24.186773244895647,41.10960958218893,30.14962686336267,29.5,29.0,31.0,6.0,11.0,1.0,2.0,6.0,6.0,6.0,21.0,16.0,22.090722034374522,193.12690128513947,191.04188022525324,187.00267377767625,177.01129907438113
38,2,38,0,1.584916666666665,4.0,72.00694410957877,6.0,11.045361017187261,20.0,21.0,24.020824298928627,45.044422518220834,34.0147027033899,32.0,30.0,31.0,6.5,14.5,2.5,1.5,7.0710678118654755,6.082762530298219,6.0,21.0,17.0,20.223748416156685,189.0952141118331,188.0239346466295,183.0,176.02556632489498
39,2,39,0,1.6266249999999982,5.0,71.00704190430693,6.082762530298219,13.0,19.0,20.0,24.020824298928627,48.041648597857254,35.05709628591621,32.5,30.0,31.0,6.5,17.5,3.5,1.5,7.0710678118654755,7.0,7.0,22.0,17.0,19.026297590440446,190.09471323527123,188.04254837669055,184.00271737123884,175.025712396779
40,2,40,0,1.6683333333333314,5.0,70.00714249274856,6.082762530298219,13.0,20.024984394500787,21.0,25.079872407968907,49.09175083453431,36.124783736376884,33.5,31.0,32.0,6.5,17.5,3.5,2.5,7.0710678118654755,6.082762530298219,6.0,21.0,18.0,18.027756377319946,190.04210059878838,188.0026595556563,185.0108104949546,175.04570831642803
41,2,41,0,1.710041666666665,4.0,69.0,6.082762530298219,12.0,18.0,19.0,26.076809620810597,48.093658625644196,36.124783736376884,34.0,32.0,32.0,6.0,16.0,3.0,1.0,7.0,6.0,6.0,21.0,18.0,20.024984394500787,191.09421759959145,190.01052602421794,187.0,177.01129907438113
42,2,42,0,1.751749999999998,5.0,70.00714249274856,6.082762530298219,13.0,19.026297590440446,20.024984394500787,25.019992006393608,49.040799340956916,36.05551275463989,33.5,31.0,32.0,6.5,17.5,3.5,1.5,6.082762530298219,6.082762530298219,6.0,21.0,18.0,18.027756377319946,190.04210059878838,188.0026595556563,184.00271737123884,176.02556632489498
43,2,43,0,1.7934583333333312,5.0,73.00684899377592,6.0,13.038404810405298,20.024984394500787,21.0,25.019992006393608,49.040799340956916,36.013886210738214,33.5,30.0,31.0,5.5,18.5,4.5,0.5,7.0,6.082762530298219,6.5,21.0,18.0,20.09975124224178,192.02343606966312,190.0,185.0108104949546,177.0706073858674
44,2,44,0,1.8351666666666644,4.0,75.0,7.0,13.0,19.026297590440446,21.0,25.019992006393608,49.01020301937138,36.013886210738214,34.0,31.0,31.0,6.0,18.0,4.0,1.0,7.0,6.0,6.5,22.0,20.0,21.02379604162864,189.0026454841307,189.01058171435798,184.06792224611002,176.13914953808538
45,2,45,0,1.8768749999999976,8.0,76.0,6.0,11.0,20.024984394500787,21.0,26.019223662515376,51.0098029794274,40.01249804748511,36.0,32.0,32.0,6.0,19.0,7.0,2.0,6.0,6.0,6.0,20.0,19.0,21.02379604162864,190.0,189.02380802428036,185.06755523321746,176.13914953808538
46,2,46,0,1.9185833333333309,2.23606797749979,74.00675644831355,6.0,10.0,20.024984394500787,21.02379604162864,25.0,43.01162633521314,33.015148038438355,32.0,31.0,30.0,5.5,12.5,1.5,1.5,6.0,7.0,6.5,20.0,18.0,20.0,191.0,189.01058171435798,185.06755523321746,177.1383639983163
47,2,47,0,1.960291666666664,1.0,74.02702209328699,5.0,10.0,19.026297590440446,20.0,25.019992006393608,41.012193308819754,31.016124838541646,30.5,30.0,28.0,4.0,12.0,1.0,0.0,6.082762530298219,5.0,5.5,20.0,18.0,19.026297590440446,191.01047091717248,189.06612599828665,185.17289218457435,176.28386199536246
48,2,48,0,2.0019999999999976,1.0,73.02739212103907,5.0990195135927845,10.0,19.026297590440446,20.024984394500787,26.019223662515376,40.0,30.0,30.5,31.0,29.0,4.0,10.0,0.0,1.0,7.0,6.0,6.5,18.0,17.0,18.0,191.01047091717248,188.09572031282372,185.21878954360974,177.341478509682
49,2,49,0,2.043708333333331,1.4142135623730951,74.00675644831355,5.0990195135927845,10.0,19.026297590440446,20.024984394500787,25.0,39.0,29.0,29.5,29.0,28.0,3.5,10.5,0.5,0.5,7.0,6.0,6.5,19.0,19.0,20.0,191.01047091717248,189.04232330353963,185.09727172489605,178.22738285684386
50,2,50,0,2.085416666666664,0.0,74.00675644831355,5.0,10.0,19.026297590440446,20.024984394500787,25.0,40.0,30.0,30.0,29.0,28.0,3.5,11.5,0.5,0.5,6.0,6.0,6.0,19.0,19.0,20.0,192.04166214652486,190.12890364171355,186.21761463406193,177.28226081590904
51,2,51,0,2.1271249999999973,0.0,76.00657866263946,5.0,11.0,20.024984394500787,20.0,25.0,41.0,30.0,30.0,29.0,28.0,3.5,12.5,0.5,0.5,6.0,6.0,6.5,19.0,19.0,19.0,191.04188022525324,189.0952141118331,185.17289218457435,177.28226081590904
52,2,52,0,2.1688333333333305,1.0,76.00657866263946,5.0,11.045361017187261,21.0,21.0,26.0,41.012193308819754,30.0,30.5,30.0,29.0,3.5,11.5,0.5,0.5,7.0,7.0,7.0,19.0,19.0,20.0,190.06577808748213,187.13097017864254,184.2199772011711,176.28386199536246
53,2,53,0,2.210541666666664,0.0,76.02631123499285,5.0,10.04987562112089,19.0,20.024984394500787,26.0,41.012193308819754,31.0,31.0,30.0,28.0,3.0,12.0,1.0,1.0,6.0,6.0,6.5,18.0,20.0,20.0,192.09372712298546,190.12890364171355,186.21761463406193,178.2806775845324
54,2,54,0,2.252249999999997,2.0,76.02631123499285,5.0,11.045361017187261,19.026297590440446,19.026297590440446,27.018512172212592,41.048751503547585,30.01666203960727,31.0,31.0,29.0,3.0,11.0,0.0,0.0,6.0,5.0,5.0,17.0,18.0,19.026297590440446,194.0412327316027,191.12822920751398,188.2153022471871,179.27911200137063
55,2,55,0,2.29395833333333,0.0,74.06078584514209,5.0990195135927845,10.0,19.026297590440446,20.024984394500787,26.019223662515376,41.0,31.0,31.0,31.0,28.0,3.5,11.5,0.5,0.5,7.0,6.0,6.5,18.0,20.0,19.026297590440446,190.06577808748213,188.13027401245128,185.21878954360974,177.341478509682
56,2,56,0,2.3356666666666634,0.0,73.06161783043132,5.0,11.045361017187261,20.024984394500787,19.026297590440446,26.0,42.01190307520001,31.0,31.0,32.0,29.0,4.5,11.5,0.5,0.5,7.0,7.0,7.0,18.0,19.0,18.0,190.16834647227702,188.2153022471871,184.32851108821987,176.47946056127893
57,2,57,0,2.3773749999999967,0.0,73.02739212103907,5.0,9.055385138137417,20.024984394500787,20.024984394500787,27.0,41.012193308819754,32.0,32.0,32.0,30.0,4.0,10.0,0.0,1.0,7.0,7.0710678118654755,7.0,18.0,20.0,20.0,191.12822920751398,189.21416437465774,185.32673849177834,176.40861656959956
58,2,58,0,2.41908333333333,1.0,73.06161783043132,5.0,10.0,20.0,20.024984394500787,27.0,42.01190307520001,32.01562118716424,32.0,33.0,30.0,4.5,10.5,0.5,0.5,6.0,6.0,6.0,19.0,21.0,22.0,193.1657319505714,190.26297590440447,186.3866948041088,177.47675904185314
59,2,59,0,2.460791666666663,0.0,74.06078584514209,6.0,10.04987562112089,19.026297590440446,21.02379604162864,26.019223662515376,42.04759208325728,32.01562118716424,32.0,33.0,30.0,5.5,10.5,0.5,1.5,7.0,7.0710678118654755,7.0,20.0,22.0,21.0,193.12690128513947,190.26297590440447,185.3887806745597,176.47946056127893
60,2,60,0,2.5024999999999964,0.0,73.06161783043132,5.0990195135927845,11.045361017187261,20.024984394500787,21.02379604162864,27.0,43.04648650006177,32.01562118716424,32.0,33.0,30.0,4.5,11.5,0.5,0.5,7.0,6.082762530298219,6.0,18.0,21.0,21.0,193.31321734428818,190.3785702225962,185.52897347853784,177.63445611704955
61,2,61,0,2.5442083333333296,1.4142135623730951,72.11102550927978,6.0,11.0,19.026297590440446,20.024984394500787,26.0,44.01136216933077,33.015148038438355,32.5,34.0,30.0,6.0,12.0,0.0,1.0,7.0,6.082762530298219,6.5,18.0,20.0,21.0,192.12756179163884,190.21303845951255,185.32673849177834,176.40861656959956
62,2,62,0,2.585916666666663,7.0,73.06161783043132,5.0990195135927845,11.045361017187261,20.024984394500787,21.02379604162864,26.0,49.040799340956916,38.01315561749642,34.5,34.0,31.0,6.5,16.5,5.5,2.5,7.0,7.0,7.0,18.0,20.0,21.0,191.21192431435858,189.31983519959022,184.45866745696716,175.55910685578235
63,2,63,0,2.627624999999996,7.0,73.06161783043132,6.0,11.045361017187261,19.0,21.02379604162864,25.019992006393608,49.040799340956916,38.01315561749642,34.5,34.0,31.0,7.5,16.5,5.5,2.5,7.0,7.0,7.0,18.0,20.0,21.02379604162864,192.16659439142902,189.2643653728826,185.4561942885705,176.555940143627
64,2,64,0,2.6693333333333293,7.0,73.06161783043132,5.0990195135927845,10.04987562112089,20.024984394500787,21.02379604162864,26.0,48.041648597857254,38.01315561749642,34.5,34.0,31.0,6.5,15.5,4.5,2.5,7.0,7.0,7.0,19.0,21.0,21.0,191.1674658512792,188.26576959181932,185.3887806745597,175.4821928287882
65,2,65,0,2.7110416666666626,7.0,72.02777242147643,5.0990195135927845,10.04987562112089,19.026297590440446,19.026297590440446,26.0,48.041648597857254,38.01315561749642,34.5,33.0,31.0,6.0,16.0,6.0,3.0,7.0,6.082762530298219,6.0,19.0,21.0,21.0,192.26024029944412,189.31983519959022,185.4561942885705,176.555940143627
66,2,66,0,2.752749999999996,7.0,72.06247289678588,5.0990195135927845,10.04987562112089,19.026297590440446,20.024984394500787,26.0,48.041648597857254,38.01315561749642,34.5,34.0,31.0,6.5,15.5,4.5,3.5,7.0,6.0,6.0,18.0,20.0,20.024984394500787,195.20758181996928,192.26024029944412,187.3846311734236,178.4740877550576
67,2,67,0,2.794458333333329,4.0,72.06247289678588,5.0990195135927845,11.045361017187261,19.026297590440446,19.1049731745428,26.019223662515376,46.09772228646444,35.05709628591621,33.0,33.0,30.0,5.5,14.5,3.5,1.5,7.0,6.082762530298219,6.0,17.0,20.0,19.0,195.12560057562922,192.21082175569617,188.32153355365392,178.4040358287895
68,2,68,0,2.8361666666666623,5.0,72.11102550927978,6.082762530298219,10.04987562112089,19.1049731745428,20.024984394500787,25.0,46.04345773288535,36.013886210738214,33.5,33.0,29.0,6.0,15.0,5.0,2.0,8.06225774829855,7.0710678118654755,7.0,19.0,21.0,21.02379604162864,191.21192431435858,188.26576959181932,184.39088914585776,176.555940143627
69,2,69,0,2.8778749999999955,1.0,72.11102550927978,6.082762530298219,11.045361017187261,20.024984394500787,20.09975124224178,26.0,44.04543109109048,33.015148038438355,32.5,32.0,28.0,4.0,14.0,3.0,0.0,8.0,7.0710678118654755,7.0,18.0,20.0,21.0,190.21303845951255,189.31983519959022,185.4561942885705,177.47675904185314
70,2,70,0,2.9195833333333288,2.23606797749979,75.1065909225016,6.0,11.045361017187261,20.024984394500787,21.095023109728988,25.019992006393608,44.10215414239989,33.06055050963308,32.0,31.0,27.0,4.0,15.0,3.0,0.0,7.0,7.0710678118654755,7.0,18.0,22.0,21.02379604162864,191.26160095534075,189.38056922503955,185.52897347853784,177.63445611704955
71,2,71,0,2.961291666666662,6.0,76.16429609731846,5.0990195135927845,12.041594578792296,21.095023109728988,22.02271554554524,26.0,49.040799340956916,37.013511046643494,34.0,32.0,27.0,3.5,19.5,6.5,0.5,7.0,6.0,6.0,18.0,20.0,21.02379604162864,191.26160095534075,189.38056922503955,185.4561942885705,177.55280904564702
72,2,72,0,3.0029999999999952,9.0,76.16429609731846,6.0,11.045361017187261,20.09975124224178,22.090722034374522,26.019223662515376,52.03844732503075,41.012193308819754,36.5,32.0,27.0,3.5,22.5,10.5,0.5,7.0710678118654755,6.082762530298219,6.0,18.0,21.0,22.02271554554524,189.38056922503955,188.4489320744482,184.69434208984313,177.81451009408653
73,2,73,0,3.0447083333333285,10.0,75.16648189186454,7.0710678118654755,12.041594578792296,19.026297590440446,21.095023109728988,24.020824298928627,53.08483775994799,41.048751503547585,36.0,32.0,27.0,5.5,23.5,10.5,0.5,7.0,6.082762530298219,6.0,18.0,21.0,21.02379604162864,191.3765920900464,189.44656238633627,185.60711193270586,176.72577627499618
74,2,74,0,3.0864166666666617,10.0,75.16648189186454,7.0,14.035668847618199,22.02271554554524,24.020824298928627,25.079872407968907,56.08029957123981,42.04759208325728,37.0,34.0,29.0,6.5,24.5,9.5,1.5,7.0,7.0710678118654755,7.0,18.0,21.0,21.02379604162864,190.31815467789718,189.38056922503955,185.4561942885705,176.63804799646084
75,2,75,0,3.128124999999995,3.1622776601683795,71.17583859709698,7.0,13.038404810405298,20.09975124224178,21.095023109728988,27.018512172212592,50.08991914547278,37.05401462729781,35.5,35.0,30.0,5.5,17.5,4.5,0.5,7.0710678118654755,7.0710678118654755,7.0,18.0,21.0,20.024984394500787,191.26160095534075,189.38056922503955,186.45374761586316,177.47675904185314
76,2,76,0,3.169833333333328,1.0,71.11258679024411,7.0,11.0,19.1049731745428,20.09975124224178,26.019223662515376,44.04543109109048,33.06055050963308,33.0,33.0,29.0,5.0,13.0,1.0,1.0,7.0,6.082762530298219,6.5,18.0,21.0,18.027756377319946,192.26024029944412,191.3765920900464,188.4489320744482,179.62739212046696
77,2,77,0,3.2115416666666614,1.4142135623730951,71.17583859709698,7.0,13.038404810405298,19.1049731745428,20.09975124224178,27.018512172212592,48.093658625644196,35.05709628591621,34.5,35.0,30.0,5.5,15.5,2.5,0.5,7.0710678118654755,7.0,7.0,19.0,22.0,20.024984394500787,192.26024029944412,191.3765920900464,187.45132701584163,180.62391868188442
78,2,78,0,3.253249999999994,8.06225774829855,74.16872656315464,6.0,12.041594578792296,20.09975124224178,21.095023109728988,26.019223662515376,52.08646657242167,40.049968789001575,36.0,34.0,29.0,5.5,20.5,7.5,1.5,6.0,7.0710678118654755,7.0,18.0,21.0,20.0,191.26160095534075,189.38056922503955,184.53184007102948,176.555940143627
79,2,79,0,3.294958333333328,7.0710678118654755,76.10519036176179,7.0710678118654755,12.0,20.024984394500787,21.02379604162864,26.0,52.03844732503075,40.049968789001575,36.5,33.0,29.0,5.0,21.0,8.0,0.0,7.0710678118654755,6.0,6.5,17.0,21.0,20.024984394500787,191.26160095534075,189.38056922503955,185.3887806745597,178.54971296532514
80,2,80,0,3.336666666666661,2.23606797749979,74.10802925459562,7.0,13.0,20.024984394500787,20.09975124224178,27.018512172212592,49.040799340956916,36.05551275463989,35.0,33.0,29.0,4.0,18.0,5.0,1.0,7.0,6.0,6.0,17.0,21.0,21.02379604162864,193.31321734428818,191.3164917094185,187.45132701584163,179.47144619688115
81,2,81,0,3.3783749999999944,4.123105625617661,75.16648189186454,7.0,14.035668847618199,21.095023109728988,21.095023109728988,26.0,51.03920062069938,37.013511046643494,35.0,34.0,29.0,5.5,19.5,5.5,0.5,7.0,7.0,7.0,18.0,21.0,23.0,192.26024029944412,190.3785702225962,186.3866948041088,177.47675904185314
82,2,82,0,3.420083333333328,5.0990195135927845,75.16648189186454,7.0,13.038404810405298,20.09975124224178,21.095023109728988,26.0,51.03920062069938,38.01315561749642,35.5,34.0,29.0,5.5,19.5,5.5,0.5,7.0,6.0,6.5,18.0,21.0,21.0,191.21192431435858,190.26297590440447,186.3866948041088,178.4740877550576
83,2,83,0,3.461791666666661,11.045361017187261,73.24616030891995,6.0,12.041594578792296,20.09975124224178,21.095023109728988,26.019223662515376,55.08175741568164,43.04648650006177,37.5,34.0,28.0,5.0,24.0,11.0,2.0,7.0710678118654755,6.082762530298219,6.5,19.0,22.0,21.02379604162864,192.26024029944412,191.3765920900464,186.45374761586316,178.63090438107287
84,2,84,0,3.503499999999994,9.055385138137417,71.25307010929424,6.0,13.038404810405298,20.09975124224178,21.095023109728988,25.019992006393608,53.08483775994799,40.049968789001575,35.5,35.0,29.0,7.0,21.0,8.0,3.0,6.082762530298219,6.0,6.5,18.0,21.0,21.0,191.3164917094185,188.4489320744482,185.52897347853784,176.72577627499618
85,2,85,0,3.545208333333328,7.0710678118654755,64.19501538281614,5.0,13.0,18.110770276274835,18.027756377319946,27.018512172212592,52.03844732503075,39.05124837953327,35.5,37.0,32.0,7.5,17.5,4.5,4.5,7.0710678118654755,6.082762530298219,6.5,18.0,22.0,21.02379604162864,194.31160541768986,191.3765920900464,187.52333188166213,177.63445611704955
86,2,86,0,3.5869166666666605,1.0,60.207972893961475,6.082762530298219,13.038404810405298,17.11724276862369,17.11724276862369,29.017236257093817,49.09175083453431,36.05551275463989,35.5,40.0,35.0,8.5,11.5,1.5,5.5,7.0710678118654755,6.0,6.0,17.0,22.0,19.026297590440446,192.37463450257678,190.51509126575775,184.61040057374882,175.72990639046048
87,2,87,0,3.6286249999999938,1.0,59.30430001273095,5.0990195135927845,14.035668847618199,16.1245154965971,17.11724276862369,29.017236257093817,49.09175083453431,35.05709628591621,34.5,40.0,34.0,8.0,12.0,1.0,5.0,7.0,6.0,6.5,18.0,22.0,20.024984394500787,191.3765920900464,189.44656238633627,184.61040057374882,175.72990639046048
88,2,88,0,3.670333333333327,1.4142135623730951,58.215118311311535,7.0,14.035668847618199,16.1245154965971,17.11724276862369,29.017236257093817,51.088159097779204,37.05401462729781,36.5,41.0,36.0,9.5,12.5,1.5,5.5,7.0,7.0,7.0,17.0,21.0,19.0,193.31321734428818,190.4442175546425,184.61040057374882,175.72990639046048
89,2,89,0,3.71204166666666,3.0,58.215118311311535,6.082762530298219,13.038404810405298,16.1245154965971,17.11724276862369,28.0178514522438,50.08991914547278,37.05401462729781,35.5,40.0,35.0,9.5,12.5,0.5,5.5,6.0,6.0,6.5,17.0,21.0,19.026297590440446,191.44189719076647,189.59430371189953,185.6906028855526,175.72990639046048
90,2,90,0,3.7537499999999935,3.0,57.21887800367987,6.0,14.035668847618199,16.1245154965971,16.1245154965971,29.017236257093817,52.03844732503075,38.01315561749642,36.5,41.0,36.0,9.5,13.5,0.5,5.5,7.0,7.0,7.0,17.0,22.0,19.0,193.31321734428818,191.44189719076647,186.52613757862463,176.555940143627
91,2,91,0,3.795458333333327,5.0990195135927845,60.13318551349163,7.0,14.035668847618199,16.1245154965971,18.110770276274835,28.0,54.037024344425184,40.01249804748511,37.5,40.0,36.0,10.0,16.0,1.0,6.0,8.0,7.0710678118654755,7.0,18.0,22.0,20.0,193.31321734428818,190.3785702225962,185.52897347853784,177.55280904564702
92,2,92,0,3.83716666666666,9.055385138137417,67.1863081289633,6.0,14.035668847618199,18.027756377319946,19.1049731745428,27.018512172212592,56.08029957123981,42.04759208325728,37.5,38.0,33.0,8.5,20.5,5.5,3.5,8.0,7.0,7.0,18.0,23.0,19.0,191.3765920900464,189.44656238633627,184.53184007102948,176.555940143627
93,2,93,0,3.878874999999993,6.0,67.1863081289633,7.0710678118654755,15.033296378372908,18.110770276274835,19.1049731745428,27.018512172212592,55.08175741568164,40.049968789001575,37.0,38.0,33.0,8.5,19.5,4.5,3.5,7.0,7.0710678118654755,7.0,18.0,22.0,20.0,190.3785702225962,188.4489320744482,184.61040057374882,175.72990639046048
94,2,94,0,3.9205833333333264,1.0,68.26419266350405,6.0,11.045361017187261,19.1049731745428,20.09975124224178,28.0178514522438,46.04345773288535,35.014282800023196,34.5,37.0,31.0,6.0,12.0,1.0,2.0,8.0,7.0,7.5,17.0,21.0,20.024984394500787,189.31983519959022,188.4489320744482,184.53184007102948,177.63445611704955
95,2,95,0,3.96229166666666,1.0,68.18357573492314,6.0,11.045361017187261,19.1049731745428,19.1049731745428,27.018512172212592,45.044422518220834,34.0147027033899,33.5,37.0,32.0,7.5,10.5,0.5,3.5,7.0,7.0,7.0,17.0,22.0,20.0,189.31983519959022,188.52055590836773,184.61040057374882,177.81451009408653
96,2,96,0,4.003999999999993,3.1622776601683795,67.1863081289633,6.0,13.038404810405298,18.027756377319946,19.1049731745428,28.0178514522438,50.08991914547278,37.05401462729781,35.5,38.0,33.0,7.5,14.5,1.5,3.5,7.0710678118654755,7.0710678118654755,7.0,17.0,21.0,20.024984394500787,188.52055590836773,186.60385848100785,182.61708572858126,174.73408368146153
97,2,97,0,4.045708333333327,7.0710678118654755,66.12110101926616,6.0,13.038404810405298,18.027756377319946,19.026297590440446,28.0178514522438,54.08326913195984,41.048751503547585,37.5,38.0,34.0,8.0,18.0,4.0,4.0,7.0710678118654755,6.0,6.5,17.0,23.0,19.026297590440446,189.59430371189953,187.6006396577581,183.69812192834198,174.82848738120455
98,2,98,0,4.08741666666666,6.082762530298219,66.18912297349165,6.0,14.035668847618199,18.110770276274835,19.1049731745428,28.0178514522438,54.08326913195984,40.049968789001575,37.0,39.0,34.0,8.5,17.5,3.5,4.5,8.0,7.0710678118654755,7.0,17.0,23.0,20.024984394500787,188.59745491389856,186.60385848100785,182.70194306574848,175.72990639046048
99,2,99,0,4.129124999999993,5.0,66.27216610312357,6.0,14.035668847618199,18.110770276274835,19.1049731745428,28.071337695236398,53.08483775994799,39.05124837953327,36.5,39.0,33.0,8.0,17.0,3.0,4.0,7.0710678118654755,6.0,6.5,18.0,22.0,19.026297590440446,190.51509126575775,187.6006396577581,183.69812192834198,175.64168070250295
100,2,100,0,4.170833333333326,6.082762530298219,67.26812023536856,6.0,13.038404810405298,18.110770276274835,19.1049731745428,28.0178514522438,53.08483775994799,40.049968789001575,37.0,39.0,33.0,8.0,17.0,4.0,4.0,7.0,6.0,6.5,17.0,23.0,19.026297590440446,189.67603960437387,186.68690366493306,182.7922317824256,174.92855684535903
101,2,101,0,4.21254166666666,5.0990195135927845,65.27633568147036,6.0,13.038404810405298,19.1049731745428,19.1049731745428,28.0178514522438,52.08646657242167,39.05124837953327,36.5,39.0,33.0,8.0,16.0,3.0,4.0,8.0,7.0710678118654755,7.5,16.0,22.0,20.09975124224178,189.51780918953236,187.6006396577581,183.7879212570837,175.9232787325202
102,2,102,0,4.254249999999993,10.0,67.26812023536856,6.082762530298219,12.041594578792296,18.110770276274835,20.09975124224178,27.018512172212592,55.08175741568164,43.04648650006177,38.0,39.0,33.0,9.0,19.0,7.0,5.0,7.0,7.0,7.0,18.0,23.0,19.026297590440446,187.52333188166213,185.6906028855526,181.79658962697843,174.92855684535903
103,2,103,0,4.295958333333326,4.123105625617661,66.18912297349165,7.0,14.035668847618199,17.029386365926403,19.1049731745428,27.073972741361768,52.15361924162119,38.118237105091836,36.0,38.0,33.0,8.5,16.5,2.5,3.5,7.0,7.0710678118654755,7.0,16.0,21.0,19.026297590440446,189.67603960437387,187.77113729218343,182.8879438344693,174.92855684535903
104,2,104,0,4.337666666666659,2.0,66.27216610312357,6.0,12.041594578792296,18.110770276274835,19.1049731745428,28.071337695236398,48.093658625644196,36.05551275463989,35.0,39.0,33.0,8.0,12.0,0.0,4.0,7.0,6.082762530298219,6.5,16.0,21.0,18.027756377319946,194.3707796969493,192.50974001333023,187.6832437912346,179.8054504179448
105,2,105,0,4.3793749999999925,1.4142135623730951,67.1863081289633,5.0,10.04987562112089,19.1049731745428,19.1049731745428,28.0178514522438,44.10215414239989,34.058772731852805,33.5,37.0,32.0,6.5,9.5,0.5,3.5,7.0710678118654755,7.0710678118654755,7.0,15.0,21.0,19.026297590440446,195.31000998412753,192.5850461484484,188.76705220985997,179.90275150758535
106,2,106,0,4.421083333333326,1.0,70.178344238091,6.0,10.04987562112089,19.1049731745428,18.027756377319946,28.0,44.04543109109048,34.0147027033899,34.0,37.0,32.0,6.5,9.5,0.5,2.5,6.0,6.082762530298219,6.5,15.0,21.0,18.027756377319946,196.36700333813724,193.5071058126807,188.59745491389856,180.8009955724802
107,2,107,0,4.462791666666659,3.1622776601683795,69.26037828369117,6.0,12.041594578792296,18.110770276274835,20.09975124224178,29.017236257093817,50.08991914547278,38.05259518088089,36.5,38.0,32.0,6.0,15.0,3.0,2.0,6.082762530298219,6.082762530298219,6.0,16.0,21.0,18.027756377319946,195.31000998412753,192.50974001333023,189.67603960437387,180.89776118017602
108,2,108,0,4.504499999999992,6.082762530298219,71.17583859709698,6.082762530298219,12.041594578792296,20.09975124224178,21.213203435596427,28.0178514522438,52.15361924162119,40.11234224026316,37.0,38.0,33.0,7.5,16.5,4.5,3.5,7.0710678118654755,7.0,7.0,16.0,21.0,20.024984394500787,193.31321734428818,191.51240168720145,187.6006396577581,178.80995498014084
109,2,109,0,4.546208333333325,4.123105625617661,69.26037828369117,6.0,12.041594578792296,18.110770276274835,19.1049731745428,28.0178514522438,50.08991914547278,38.05259518088089,36.0,37.0,31.0,6.0,16.0,4.0,2.0,7.0710678118654755,6.082762530298219,6.5,17.0,22.0,19.026297590440446,195.36888186197925,193.58202395883765,189.76301009416983,181.99450541156455
110,2,110,0,4.587916666666659,1.4142135623730951,68.18357573492314,5.0,9.055385138137417,19.1049731745428,19.1049731745428,30.0,45.044422518220834,36.013886210738214,35.5,37.0,32.0,4.5,10.5,1.5,1.5,7.0,7.0710678118654755,7.0,16.0,21.0,17.029386365926403,193.43732835210477,191.66898549321954,187.8643127366132,179.12007146045917
111,2,111,0,4.629624999999992,1.0,69.18092222571191,5.0,9.055385138137417,18.027756377319946,19.026297590440446,28.0,42.04759208325728,33.015148038438355,33.0,35.0,30.0,4.5,9.5,0.5,1.5,7.0,6.082762530298219,6.5,15.0,21.0,20.09975124224178,195.25624189766637,193.5071058126807,189.67603960437387,179.8054504179448
112,2,112,0,4.671333333333325,0.0,71.17583859709698,5.0990195135927845,10.198039027185569,19.1049731745428,19.1049731745428,29.0,44.10215414239989,34.0147027033899,34.0,36.0,31.0,4.5,10.5,0.5,1.5,7.0710678118654755,7.0710678118654755,7.5,16.0,21.0,20.09975124224178,194.31160541768986,192.50974001333023,189.76301009416983,180.89776118017602
113,2,113,0,4.713041666666658,3.1622776601683795,67.26812023536856,6.082762530298219,11.045361017187261,18.110770276274835,19.1049731745428,30.0,50.08991914547278,39.05124837953327,37.5,37.0,31.0,4.0,16.0,5.0,0.0,6.0,5.0990195135927845,5.5,16.0,21.0,21.02379604162864,195.31000998412753,192.50974001333023,188.76705220985997,181.0
114,2,114,0,4.754749999999992,5.0990195135927845,74.33034373659252,6.0,13.038404810405298,20.09975124224178,21.095023109728988,28.0178514522438,52.08646657242167,39.05124837953327,36.5,37.0,30.0,5.5,18.5,5.5,1.5,7.0710678118654755,6.082762530298219,6.0,16.0,20.0,21.02379604162864,194.31160541768986,192.50974001333023,188.67962264113208,180.8009955724802
115,2,115,0,4.796458333333325,5.0990195135927845,74.24284477308234,7.0710678118654755,12.041594578792296,19.1049731745428,20.223748416156685,27.018512172212592,51.15662224971465,39.11521443121589,36.5,36.0,30.0,6.0,18.0,6.0,1.0,7.0,7.0710678118654755,6.5,17.0,22.0,19.026297590440446,196.30843079195554,194.50449866262733,191.66898549321954,182.7922317824256
116,2,116,0,4.838166666666658,3.1622776601683795,76.23647421018367,7.0710678118654755,13.038404810405298,21.213203435596427,22.090722034374522,27.018512172212592,50.15974481593781,37.12142238654117,35.5,35.0,29.0,5.0,18.0,5.0,1.0,6.0,6.082762530298219,6.0,17.0,22.0,19.1049731745428,193.43732835210477,193.6620768245554,189.85520798756087,180.89776118017602
117,2,117,0,4.879874999999991,2.0,76.16429609731846,7.0710678118654755,13.038404810405298,21.213203435596427,22.090722034374522,26.076809620810597,48.16637831516918,35.12833614050059,34.0,35.0,30.0,6.5,15.5,3.5,1.5,7.0710678118654755,6.082762530298219,6.0,16.0,21.0,19.026297590440446,195.5019181491578,192.66551326067673,190.85072700935672,182.10161998181127
118,2,118,0,4.9215833333333245,8.06225774829855,73.24616030891995,6.0,12.041594578792296,20.223748416156685,21.213203435596427,25.079872407968907,51.15662224971465,39.11521443121589,35.0,37.0,31.0,9.0,17.0,5.0,5.0,7.0710678118654755,6.082762530298219,6.5,16.0,21.0,18.027756377319946,194.50449866262733,192.84190415985836,188.95766721676048,180.1138528820035
119,2,119,0,4.963291666666658,9.055385138137417,73.24616030891995,4.0,11.045361017187261,18.110770276274835,20.223748416156685,25.079872407968907,49.16299421312742,38.118237105091836,33.5,35.0,29.0,7.0,17.0,6.0,5.0,7.0710678118654755,6.082762530298219,6.0,15.0,21.0,19.026297590440446,195.7396229688818,192.93781381574738,189.16923639957952,180.34688796871433
120,2,120,0,5.004999999999991,7.0,72.3394774656273,5.0990195135927845,12.041594578792296,20.09975124224178,21.213203435596427,24.020824298928627,48.093658625644196,36.05551275463989,32.5,35.0,28.0,7.5,16.5,4.5,4.5,7.0710678118654755,7.0710678118654755,6.5,16.0,23.0,21.095023109728988,190.67249408344142,188.85973631242842,184.97837711473198,177.13271860387624
121,2,121,0,5.046708333333324,7.0,73.33484846919642,5.0990195135927845,12.041594578792296,19.1049731745428,21.213203435596427,24.020824298928627,48.093658625644196,36.05551275463989,32.5,35.0,28.0,7.5,16.5,4.5,4.5,6.0,5.0990195135927845,5.0,15.0,21.0,19.0,196.4993638666548,193.6620768245554,189.85520798756087,181.10770276274835
122,2,122,0,5.0884166666666575,10.0,71.34423592694787,4.0,12.165525060596439,19.1049731745428,20.223748416156685,25.079872407968907,51.15662224971465,39.05124837953327,34.0,36.0,29.0,7.5,18.5,7.5,5.5,7.0710678118654755,6.082762530298219,6.0,15.0,22.0,18.110770276274835,191.66898549321954,188.95766721676048,186.07794065928394,176.13914953808538
123,2,123,0,5.130124999999991,11.0,69.46221994724903,5.0990195135927845,12.041594578792296,18.110770276274835,20.223748416156685,25.019992006393608,53.08483775994799,41.048751503547585,35.5,37.0,29.0,8.0,20.0,8.0,5.0,7.0710678118654755,6.082762530298219,6.0,16.0,22.0,20.09975124224178,192.75113488641253,190.85072700935672,185.9731163367437,176.2554963681984
124,2,124,0,5.171833333333324,5.0990195135927845,67.36467917239716,8.06225774829855,14.035668847618199,20.09975124224178,21.095023109728988,26.019223662515376,53.150729063673246,39.11521443121589,36.5,39.0,32.0,9.5,17.5,2.5,3.5,6.082762530298219,6.082762530298219,6.0,16.0,21.0,18.110770276274835,189.59430371189953,187.77113729218343,183.98369492974098,175.1456536714514
125,2,125,0,5.213541666666657,5.0,66.37017402418047,9.055385138137417,16.0312195418814,19.235384061671343,21.213203435596427,25.079872407968907,55.14526271584895,39.11521443121589,36.5,38.0,31.0,9.5,20.5,4.5,3.5,7.0710678118654755,6.082762530298219,6.0,16.0,22.0,19.026297590440446,191.75505208468434,188.95766721676048,185.0837648201484,177.2484132510077
126,2,126,0,5.25524999999999,9.0,68.3593446428504,7.0710678118654755,14.035668847618199,21.095023109728988,21.095023109728988,26.019223662515376,56.08029957123981,42.04759208325728,37.5,40.0,33.0,10.5,19.5,5.5,5.5,6.082762530298219,5.0990195135927845,5.0,16.0,21.0,20.024984394500787,193.6620768245554,191.84629264074925,187.9627622695517,178.24140933015536
127,2,127,0,5.296958333333324,11.0,70.25667228100119,8.06225774829855,14.035668847618199,21.095023109728988,22.090722034374522,26.019223662515376,59.07622195096772,45.044422518220834,39.5,41.0,35.0,12.0,21.0,7.0,6.0,6.0,6.082762530298219,6.0,15.0,21.0,20.09975124224178,191.66898549321954,189.85520798756087,184.97837711473198,176.13914953808538
128,2,128,0,5.338666666666657,11.0,69.46221994724903,8.06225774829855,15.033296378372908,21.095023109728988,23.194827009486403,26.019223662515376,60.07495318350236,45.044422518220834,39.5,41.0,33.0,11.0,23.0,8.0,5.0,6.0,5.385164807134504,5.5,16.0,22.0,22.090722034374522,189.67603960437387,187.8643127366132,183.98369492974098,176.13914953808538
129,2,129,0,5.38037499999999,11.0,71.34423592694787,8.06225774829855,14.035668847618199,21.213203435596427,22.20360331117452,26.019223662515376,59.07622195096772,45.044422518220834,39.5,40.0,33.0,10.5,22.5,8.5,5.5,7.0,6.082762530298219,6.0,16.0,22.0,21.02379604162864,189.76301009416983,188.95766721676048,185.0837648201484,176.2554963681984
130,2,130,0,5.422083333333323,7.0710678118654755,74.43117626371358,7.0,13.038404810405298,21.095023109728988,22.20360331117452,26.076809620810597,53.150729063673246,40.11234224026316,36.5,38.0,30.0,8.0,19.0,6.0,3.0,5.0990195135927845,6.082762530298219,6.0,16.0,22.0,19.026297590440446,195.65530915362353,194.83326204732086,191.049731745428,180.1138528820035
131,2,131,0,5.463791666666657,5.0990195135927845,74.43117626371358,7.0,11.045361017187261,22.20360331117452,22.20360331117452,26.076809620810597,49.16299421312742,38.118237105091836,35.5,37.0,29.0,7.0,16.0,5.0,2.0,6.082762530298219,6.0,6.0,16.0,21.0,22.02271554554524,191.58809983921236,189.76301009416983,185.9731163367437,179.12007146045917
132,2,132,0,5.50549999999999,6.0,75.32595834106593,7.0,12.165525060596439,20.09975124224178,21.213203435596427,24.186773244895647,49.25444142409901,37.12142238654117,34.0,35.0,28.0,7.5,17.5,5.5,2.5,7.0710678118654755,6.082762530298219,6.0,16.0,22.0,17.029386365926403,194.74342094150447,192.93781381574738,189.06083676954358,180.22763384120648
133,2,133,0,5.547208333333323,7.0710678118654755,73.43704787094863,4.0,10.04987562112089,20.09975124224178,20.223748416156685,25.079872407968907,46.17358552246078,36.124783736376884,32.5,37.0,29.0,8.0,13.0,3.0,6.0,6.082762530298219,5.0990195135927845,5.5,14.0,21.0,20.09975124224178,196.82479518597245,193.03885619221847,188.1754500459611,179.2344832893492
134,2,134,0,5.588916666666656,9.0,69.35416353759881,5.0990195135927845,10.04987562112089,19.1049731745428,20.09975124224178,24.08318915758459,48.16637831516918,38.118237105091836,33.5,37.0,30.0,9.5,14.5,4.5,6.5,6.0,6.082762530298219,6.0,15.0,21.0,20.024984394500787,196.82479518597245,193.93297811357408,190.05525512334563,179.35439777156287
135,2,135,0,5.6306249999999896,10.0,69.35416353759881,3.1622776601683795,10.04987562112089,19.1049731745428,20.223748416156685,25.079872407968907,48.16637831516918,38.118237105091836,33.0,38.0,31.0,9.5,13.5,4.5,8.5,6.082762530298219,6.082762530298219,6.0,14.0,21.0,18.027756377319946,196.73586353280888,192.93781381574738,188.1754500459611,179.2344832893492
136,2,136,0,5.672333333333323,1.0,67.26812023536856,5.0990195135927845,11.180339887498949,19.1049731745428,19.235384061671343,26.019223662515376,43.18564576337837,32.0624390837628,31.5,36.0,30.0,7.0,10.0,1.0,4.0,5.0990195135927845,5.0,5.0,15.0,20.0,19.026297590440446,197.57024067404484,194.83326204732086,192.04426573058618,182.21415971323415
137,2,137,0,5.714041666666656,1.0,67.26812023536856,4.0,9.055385138137417,19.1049731745428,19.026297590440446,26.019223662515376,39.11521443121589,30.066592756745816,30.0,33.0,27.0,4.0,9.0,1.0,2.0,5.0,5.0,5.0,15.0,22.0,23.021728866442675,194.65867563507155,191.84629264074925,188.06647760831805,179.12007146045917
138,2,138,0,5.755749999999989,0.0,67.26812023536856,5.0990195135927845,11.045361017187261,19.026297590440446,20.09975124224178,25.019992006393608,41.10960958218893,30.066592756745816,30.0,33.0,27.0,5.0,11.0,1.0,2.0,6.0,6.082762530298219,6.0,16.0,22.0,23.08679276123039,191.75505208468434,189.85520798756087,185.9731163367437,177.13271860387624
139,2,139,0,5.7974583333333225,1.0,68.3593446428504,5.0,12.041594578792296,19.1049731745428,19.1049731745428,27.018512172212592,44.10215414239989,32.0624390837628,32.0,34.0,27.0,3.5,13.5,1.5,0.5,6.082762530298219,6.0,6.0,16.0,21.0,23.0,191.58809983921236,190.7590102721232,185.87361297397757,178.01685313475238
140,2,140,0,5.839166666666656,2.0,68.3593446428504,7.0710678118654755,12.041594578792296,18.110770276274835,19.1049731745428,27.018512172212592,48.093658625644196,36.05551275463989,35.0,36.0,29.0,5.5,15.5,3.5,1.5,6.0,6.0,6.0,16.0,22.0,22.02271554554524,195.65530915362353,192.84190415985836,187.9627622695517,180.00555546982432
141,2,141,0,5.880874999999989,3.0,70.25667228100119,7.0710678118654755,15.033296378372908,18.110770276274835,20.09975124224178,27.018512172212592,52.08646657242167,37.05401462729781,35.5,36.0,30.0,6.0,19.0,5.0,1.0,6.0,6.0,6.0,17.0,23.0,23.021728866442675,195.65530915362353,193.74725804511402,188.95766721676048,179.0111728356641
142,2,142,0,5.922583333333322,3.1622776601683795,69.26037828369117,7.0710678118654755,13.038404810405298,19.235384061671343,20.09975124224178,28.071337695236398,51.24451190127583,38.2099463490856,36.5,37.0,31.0,6.0,17.0,4.0,2.0,6.0,6.082762530298219,6.5,17.0,23.0,22.090722034374522,192.84190415985836,192.04426573058618,187.18172987767795,178.24140933015536
143,2,143,0,5.964291666666656,3.1622776601683795,72.24956747275377,7.0710678118654755,14.0,20.09975124224178,20.09975124224178,26.076809620810597,50.15974481593781,36.22154055254967,34.5,36.0,30.0,7.0,17.0,3.0,2.0,6.082762530298219,6.082762530298219,6.0,16.0,22.0,22.090722034374522,192.84190415985836,190.9476368012969,187.0721785835617,178.12635964393365
144,2,144,0,6.005999999999989,5.0990195135927845,73.33484846919642,7.0710678118654755,13.038404810405298,20.09975124224178,21.095023109728988,26.076809620810597,51.24451190127583,38.2099463490856,35.5,36.0,29.0,6.5,18.5,5.5,1.5,6.082762530298219,6.082762530298219,6.5,15.0,22.0,23.08679276123039,191.75505208468434,189.952625672824,185.9731163367437,178.12635964393365
145,2,145,0,6.047708333333322,8.06225774829855,73.33484846919642,7.0,10.04987562112089,21.213203435596427,21.095023109728988,26.076809620810597,51.15662224971465,41.10960958218893,37.0,37.0,30.0,7.5,17.5,6.5,3.5,6.0,5.0990195135927845,5.5,16.0,22.0,22.02271554554524,190.67249408344142,188.85973631242842,185.0837648201484,177.2484132510077
146,2,146,0,6.089416666666655,10.0,74.33034373659252,5.0,10.04987562112089,21.095023109728988,22.20360331117452,25.079872407968907,50.08991914547278,40.049968789001575,35.0,36.0,29.0,7.5,17.5,8.5,4.5,7.0710678118654755,6.082762530298219,6.5,16.0,23.0,22.02271554554524,193.74725804511402,191.94269978303421,187.0721785835617,178.24140933015536
147,2,147,0,6.131124999999988,7.0,72.3394774656273,5.0990195135927845,10.04987562112089,20.024984394500787,21.095023109728988,26.076809620810597,48.16637831516918,38.118237105091836,34.5,37.0,30.0,7.5,14.5,4.5,4.5,6.0,6.082762530298219,6.5,16.0,23.0,23.021728866442675,190.7590102721232,188.85973631242842,184.97837711473198,177.02259742756007
148,2,148,0,6.172833333333322,8.06225774829855,72.3394774656273,5.0,10.04987562112089,21.095023109728988,21.095023109728988,26.076809620810597,49.16299421312742,39.11521443121589,35.0,37.0,30.0,7.5,15.5,5.5,4.5,6.0,5.0990195135927845,5.5,16.0,22.0,21.095023109728988,191.84629264074925,189.952625672824,186.07794065928394,177.13271860387624
149,2,149,0,6.214541666666655,8.06225774829855,72.3394774656273,5.0,10.04987562112089,21.095023109728988,21.213203435596427,25.079872407968907,48.16637831516918,38.118237105091836,34.0,36.0,29.0,7.5,15.5,5.5,4.5,6.0,6.082762530298219,6.5,16.0,22.0,23.021728866442675,193.6620768245554,191.84629264074925,186.07794065928394,178.12635964393365
150,2,150,0,6.256249999999988,8.06225774829855,72.3394774656273,5.0,10.04987562112089,20.09975124224178,21.095023109728988,26.076809620810597,49.16299421312742,39.11521443121589,35.0,37.0,30.0,7.5,15.5,5.5,4.5,6.0,5.0990195135927845,5.5,16.0,22.0,23.021728866442675,192.84190415985836,190.9476368012969,186.07794065928394,178.12635964393365
151,2,151,0,6.297958333333321,8.06225774829855,72.24956747275377,5.0,10.04987562112089,20.09975124224178,21.213203435596427,25.079872407968907,48.16637831516918,38.118237105091836,34.0,36.0,30.0,8.0,15.0,5.0,5.0,6.082762530298219,6.0,6.0,16.0,22.0,23.021728866442675,192.84190415985836,190.9476368012969,187.0721785835617,178.24140933015536
152,2,152,0,6.339666666666655,8.06225774829855,74.33034373659252,5.0,10.04987562112089,20.223748416156685,21.213203435596427,25.079872407968907,48.16637831516918,38.118237105091836,34.0,37.0,30.0,8.5,14.5,5.5,5.5,6.0,6.082762530298219,6.0,16.0,22.0,21.095023109728988,194.50449866262733,190.67249408344142,185.87361297397757,179.0111728356641
153,2,153,0,6.381374999999988,7.0,72.3394774656273,5.0990195135927845,10.04987562112089,20.09975124224178,21.095023109728988,26.019223662515376,48.093658625644196,38.05259518088089,34.5,37.0,30.0,7.5,14.5,5.5,4.5,6.0,5.0990195135927845,5.5,15.0,22.0,24.186773244895647,194.65867563507155,190.7590102721232,187.0721785835617,179.2344832893492
154,2,154,0,6.423083333333321,7.0,72.3394774656273,5.0990195135927845,10.198039027185569,20.09975124224178,21.213203435596427,26.019223662515376,48.16637831516918,38.05259518088089,34.5,37.0,30.0,7.5,14.5,5.5,4.5,7.0710678118654755,6.082762530298219,6.0,16.0,22.0,22.090722034374522,195.7396229688818,192.93781381574738,188.28967045486058,179.47980387776224
155,2,155,0,6.464791666666654,8.0,72.3394774656273,5.0990195135927845,10.04987562112089,19.235384061671343,21.213203435596427,25.019992006393608,48.093658625644196,38.05259518088089,34.0,37.0,30.0,8.5,14.5,4.5,5.5,7.0710678118654755,6.082762530298219,6.0,15.0,22.0,22.02271554554524,194.83326204732086,192.04426573058618,186.30351580150065,178.48809484108457
156,2,156,0,6.506499999999988,6.082762530298219,72.3394774656273,5.0,9.055385138137417,19.1049731745428,20.223748416156685,26.076809620810597,46.17358552246078,37.12142238654117,34.0,37.0,30.0,7.5,12.5,3.5,4.5,7.0,6.082762530298219,6.5,16.0,22.0,20.024984394500787,192.5850461484484,189.76301009416983,185.9731163367437,178.24140933015536
157,2,157,0,6.548208333333321,7.0710678118654755,72.44308110509934,5.0,9.055385138137417,20.09975124224178,20.223748416156685,26.076809620810597,47.16990566028302,38.118237105091836,34.5,38.0,30.0,8.0,13.0,4.0,5.0,6.082762530298219,6.082762530298219,6.5,15.0,21.0,21.02379604162864,194.57903278616635,190.7590102721232,184.97837711473198,178.24140933015536
158,2,158,0,6.589916666666654,2.23606797749979,74.43117626371358,7.0710678118654755,12.041594578792296,19.1049731745428,20.223748416156685,26.019223662515376,47.16990566028302,35.12833614050059,34.0,37.0,29.0,7.0,14.0,2.0,2.0,6.082762530298219,5.0990195135927845,5.5,16.0,22.0,20.09975124224178,194.57903278616635,192.75113488641253,187.8643127366132,180.00555546982432
159,2,159,0,6.631624999999987,2.23606797749979,76.4198926981712,7.0710678118654755,12.041594578792296,21.213203435596427,22.090722034374522,27.073972741361768,48.25971404805462,36.22154055254967,35.0,36.0,28.0,5.0,16.0,4.0,1.0,6.082762530298219,5.0990195135927845,5.5,16.0,23.0,21.02379604162864,193.74725804511402,192.93781381574738,188.95766721676048,180.1138528820035
160,2,160,0,6.6733333333333205,2.8284271247461903,77.64663547121665,6.0,11.045361017187261,22.20360331117452,22.20360331117452,26.019223662515376,45.17742799230607,34.132096331752024,33.0,36.0,26.0,5.0,14.0,3.0,2.0,6.082762530298219,5.0990195135927845,5.5,14.0,22.0,21.095023109728988,195.82900704441107,192.15098230297966,187.5419952970534,179.7470444819608
161,2,161,0,6.715041666666654,11.045361017187261,76.53103945458993,5.0,10.198039027185569,20.223748416156685,22.20360331117452,24.08318915758459,50.24937810560445,40.11234224026316,34.5,36.0,27.0,7.5,18.5,8.5,4.5,6.082762530298219,6.082762530298219,6.0,15.0,23.0,24.186773244895647,193.83756085960223,191.15700353374447,187.41664813991312,178.36199146679206
162,2,162,0,6.756749999999987,8.0,72.56031973468694,6.082762530298219,12.165525060596439,21.213203435596427,21.213203435596427,23.021728866442675,49.16299421312742,37.05401462729781,33.0,36.0,27.0,8.5,17.5,5.5,5.5,7.0,6.082762530298219,6.0,14.0,23.0,23.194827009486403,191.94269978303421,191.15700353374447,186.4242473499625,177.36967046256808
163,2,163,0,6.79845833333332,9.055385138137417,70.57619995437555,5.0,11.045361017187261,20.223748416156685,21.213203435596427,23.08679276123039,48.16637831516918,37.12142238654117,32.5,36.0,27.0,8.5,16.5,5.5,5.5,6.082762530298219,6.082762530298219,6.0,15.0,24.0,23.194827009486403,191.94269978303421,190.05525512334563,185.1944923587092,176.2554963681984
164,2,164,0,6.840166666666653,9.055385138137417,68.46897107449476,5.0,11.045361017187261,19.235384061671343,21.213203435596427,23.08679276123039,48.16637831516918,37.12142238654117,32.5,36.0,28.0,9.0,16.0,5.0,6.0,7.0710678118654755,7.0710678118654755,6.5,15.0,24.0,23.08679276123039,193.93297811357408,192.15098230297966,187.29655629509048,178.48809484108457
165,2,165,0,6.881874999999987,8.06225774829855,69.35416353759881,5.0,12.041594578792296,19.1049731745428,20.223748416156685,24.186773244895647,49.25444142409901,37.21558813185679,33.0,36.0,29.0,8.5,16.5,4.5,5.5,7.0710678118654755,5.0990195135927845,5.5,15.0,23.0,23.08679276123039,195.02820308868152,191.2694434560837,186.5502613238588,177.7667010438119
166,2,166,0,6.92358333333332,5.0990195135927845,66.48308055437865,8.06225774829855,16.0312195418814,18.24828759089466,20.223748416156685,26.019223662515376,55.14526271584895,39.11521443121589,36.5,41.0,33.0,11.0,18.0,2.0,5.0,6.082762530298219,5.0990195135927845,5.5,15.0,23.0,24.08318915758459,196.02295783912658,193.25630649476875,187.41664813991312,178.61970775925036
167,2,167,0,6.965291666666653,1.0,65.37583651472461,6.0,11.045361017187261,18.24828759089466,18.24828759089466,28.0178514522438,45.09988913511872,34.058772731852805,34.0,38.0,31.0,6.5,10.5,0.5,3.5,7.0710678118654755,5.0990195135927845,5.5,15.0,22.0,23.08679276123039,192.66551326067673,189.952625672824,185.1944923587092,178.36199146679206
168,2,168,0,7.006999999999986,1.0,65.37583651472461,7.0710678118654755,11.045361017187261,18.110770276274835,18.24828759089466,27.0,45.09988913511872,34.058772731852805,34.0,38.0,31.0,7.5,10.5,0.5,2.5,6.0,5.0990195135927845,5.5,15.0,23.0,23.194827009486403,193.6620768245554,190.85072700935672,185.9731163367437,178.12635964393365
169,2,169,0,7.04870833333332,3.1622776601683795,66.27216610312357,5.0990195135927845,12.041594578792296,17.26267650163207,18.110770276274835,27.018512172212592,47.16990566028302,35.12833614050059,33.5,38.0,32.0,8.0,12.0,0.0,5.0,6.0,6.082762530298219,6.5,16.0,23.0,22.090722034374522,193.74725804511402,190.9476368012969,185.9731163367437,178.12635964393365
170,2,170,0,7.090416666666653,8.06225774829855,69.26037828369117,5.0,11.045361017187261,20.223748416156685,20.223748416156685,26.019223662515376,50.08991914547278,39.05124837953327,35.0,38.0,32.0,9.0,15.0,4.0,6.0,6.0,5.0990195135927845,5.5,15.0,23.0,25.179356624028344,192.75113488641253,188.95766721676048,184.20097719610501,176.3774361986249
171,2,171,0,7.132124999999986,8.06225774829855,69.35416353759881,5.0,11.045361017187261,20.09975124224178,20.223748416156685,25.019992006393608,49.09175083453431,38.05259518088089,34.0,38.0,31.0,9.5,14.5,3.5,6.5,6.082762530298219,6.082762530298219,6.5,15.0,22.0,22.20360331117452,194.83326204732086,192.04426573058618,186.18807695446023,177.36967046256808
172,2,172,0,7.173833333333319,7.0,68.3593446428504,5.0990195135927845,11.180339887498949,19.235384061671343,20.223748416156685,27.018512172212592,50.15974481593781,39.05124837953327,35.5,39.0,32.0,8.5,14.5,3.5,6.5,6.0,5.0990195135927845,5.5,15.0,22.0,23.194827009486403,193.74725804511402,190.9476368012969,184.08965207202712,175.1456536714514
173,2,173,0,7.2155416666666525,7.0710678118654755,68.3593446428504,5.0,11.045361017187261,20.09975124224178,20.223748416156685,26.019223662515376,49.09175083453431,38.05259518088089,34.5,38.0,31.0,8.5,14.5,3.5,5.5,6.0,6.324555320336759,6.0,15.0,22.0,22.090722034374522,191.84629264074925,188.95766721676048,184.08965207202712,176.2554963681984
174,2,174,0,7.257249999999986,8.0,68.26419266350405,5.0990195135927845,10.04987562112089,20.09975124224178,21.213203435596427,26.019223662515376,49.09175083453431,39.05124837953327,35.0,37.0,31.0,8.0,15.0,5.0,5.0,6.082762530298219,5.0990195135927845,5.5,15.0,23.0,22.20360331117452,194.03350226185168,190.16308790088576,184.31766057543157,176.50495743746123
175,2,175,0,7.298958333333319,7.0710678118654755,69.35416353759881,6.0,11.045361017187261,20.09975124224178,21.213203435596427,25.079872407968907,49.16299421312742,38.118237105091836,34.5,38.0,31.0,9.5,14.5,4.5,5.5,7.0,5.0990195135927845,5.5,15.0,22.0,22.090722034374522,195.02820308868152,191.15700353374447,184.43969204051496,175.64737401965337
176,2,176,0,7.340666666666652,9.0,69.35416353759881,4.123105625617661,11.045361017187261,19.235384061671343,20.09975124224178,26.019223662515376,50.08991914547278,39.05124837953327,34.5,38.0,31.0,8.5,15.5,5.5,6.5,6.0,6.082762530298219,6.0,15.0,22.0,21.095023109728988,193.74725804511402,189.952625672824,185.1944923587092,176.2554963681984
177,2,177,0,7.3823749999999855,9.0,69.35416353759881,5.0990195135927845,11.045361017187261,20.09975124224178,21.095023109728988,26.019223662515376,51.088159097779204,40.049968789001575,35.5,38.0,31.0,8.5,16.5,5.5,5.5,7.0,6.082762530298219,6.0,15.0,23.0,21.095023109728988,193.74725804511402,191.049731745428,185.1944923587092,176.3774361986249
178,2,178,0,7.424083333333319,9.055385138137417,70.34912934784623,5.0,11.045361017187261,19.235384061671343,20.09975124224178,26.076809620810597,51.15662224971465,40.11234224026316,35.5,38.0,31.0,8.5,16.5,5.5,5.5,6.0,6.324555320336759,6.5,16.0,23.0,22.090722034374522,193.93297811357408,191.15700353374447,186.30351580150065,177.49647883831386
179,2,179,0,7.465791666666652,8.06225774829855,68.3593446428504,6.082762530298219,11.045361017187261,19.1049731745428,20.09975124224178,26.076809620810597,51.24451190127583,40.19950248448356,36.0,38.0,31.0,8.5,16.5,5.5,4.5,6.082762530298219,6.082762530298219,6.5,16.0,23.0,21.095023109728988,193.83756085960223,191.049731745428,186.18807695446023,177.2484132510077
180,2,180,0,7.507499999999985,9.055385138137417,67.36467917239716,5.0990195135927845,10.04987562112089,19.1049731745428,21.213203435596427,26.019223662515376,50.15974481593781,40.11234224026316,35.5,38.0,31.0,8.5,15.5,5.5,5.5,6.082762530298219,6.082762530298219,6.5,16.0,23.0,20.09975124224178,193.83756085960223,191.049731745428,186.07794065928394,177.13271860387624
181,2,181,0,7.549208333333318,9.055385138137417,67.36467917239716,5.0990195135927845,10.04987562112089,19.1049731745428,20.223748416156685,26.076809620810597,50.24937810560445,40.19950248448356,35.5,37.0,30.0,7.5,16.5,6.5,4.5,6.0,6.0,6.5,17.0,23.0,22.090722034374522,195.82900704441107,191.94269978303421,188.1754500459611,177.13271860387624
182,2,182,0,7.590916666666652,9.055385138137417,68.3593446428504,5.0,11.045361017187261,20.09975124224178,20.223748416156685,26.076809620810597,51.15662224971465,40.11234224026316,35.5,37.0,30.0,7.5,17.5,6.5,4.5,6.082762530298219,6.082762530298219,6.0,17.0,23.0,20.024984394500787,195.82900704441107,193.93297811357408,189.06083676954358,179.12007146045917
183,2,183,0,7.632624999999985,9.055385138137417,69.35416353759881,5.0,11.045361017187261,19.1049731745428,20.09975124224178,25.079872407968907,50.15974481593781,39.11521443121589,34.5,36.0,29.0,7.5,17.5,6.5,4.5,6.0,6.082762530298219,6.0,17.0,25.0,19.1049731745428,194.92819190666086,192.93781381574738,186.96791168540125,177.13271860387624
184,2,184,0,7.674333333333318,9.055385138137417,70.34912934784623,5.0,11.045361017187261,20.09975124224178,21.095023109728988,26.076809620810597,51.15662224971465,40.11234224026316,35.5,37.0,30.0,7.5,17.5,6.5,4.5,7.0,6.082762530298219,6.0,18.0,26.0,20.09975124224178,194.92819190666086,192.15098230297966,188.1754500459611,177.2484132510077
185,2,185,0,7.716041666666651,9.055385138137417,69.35416353759881,5.0,11.045361017187261,20.09975124224178,21.095023109728988,26.076809620810597,51.15662224971465,40.11234224026316,35.5,37.0,30.0,7.5,17.5,6.5,4.5,7.0710678118654755,6.082762530298219,6.5,17.0,25.0,20.223748416156685,194.03350226185168,191.15700353374447,185.0837648201484,175.26266002774236
186,2,186,0,7.757749999999985,8.06225774829855,71.34423592694787,5.0,10.04987562112089,20.09975124224178,21.213203435596427,26.076809620810597,49.16299421312742,39.11521443121589,35.0,37.0,30.0,7.5,15.5,5.5,4.5,6.082762530298219,5.0990195135927845,5.5,17.0,25.0,21.095023109728988,194.92819190666086,192.93781381574738,187.0721785835617,177.2484132510077
187,2,187,0,7.799458333333318,7.0710678118654755,70.25667228100119,5.0,11.045361017187261,20.09975124224178,21.095023109728988,26.076809620810597,49.16299421312742,38.118237105091836,34.5,36.0,30.0,7.0,16.0,6.0,4.0,6.0,5.0990195135927845,5.5,18.0,26.0,23.194827009486403,194.74342094150447,192.84190415985836,186.96791168540125,178.01685313475238
188,2,188,0,7.841166666666651,8.0,70.25667228100119,5.0990195135927845,11.045361017187261,20.09975124224178,22.090722034374522,26.019223662515376,50.08991914547278,39.05124837953327,35.0,36.0,30.0,7.0,17.0,6.0,4.0,7.0,6.082762530298219,6.0,17.0,24.0,22.02271554554524,193.74725804511402,190.9476368012969,186.96791168540125,177.13271860387624
189,2,189,0,7.882874999999984,11.045361017187261,73.24616030891995,6.082762530298219,12.041594578792296,21.095023109728988,21.095023109728988,26.019223662515376,55.14526271584895,43.104524124504614,37.5,35.0,29.0,6.0,23.0,11.0,2.0,6.0,6.0,6.0,17.0,24.0,22.090722034374522,191.66898549321954,189.85520798756087,186.07794065928394,177.13271860387624
190,2,190,0,7.924583333333317,11.045361017187261,77.41446893184762,6.082762530298219,12.041594578792296,21.213203435596427,23.194827009486403,25.079872407968907,54.230987451824994,42.190046219457976,36.5,34.0,26.0,5.0,24.0,12.0,2.0,7.0,6.082762530298219,6.0,19.0,25.0,24.08318915758459,193.83756085960223,190.9476368012969,187.0721785835617,178.24140933015536
191,2,191,0,7.966291666666651,11.045361017187261,76.4198926981712,7.0710678118654755,12.041594578792296,21.213203435596427,23.08679276123039,25.079872407968907,55.226805085936306,43.18564576337837,37.5,35.0,27.0,6.0,24.0,12.0,2.0,7.0,6.082762530298219,6.0,18.0,26.0,25.179356624028344,192.75113488641253,190.85072700935672,186.07794065928394,177.2484132510077
192,2,192,0,8.007999999999985,12.041594578792296,76.4198926981712,7.0,12.165525060596439,21.213203435596427,23.194827009486403,25.179356624028344,56.32051136131489,44.181444068749045,38.0,35.0,27.0,6.0,25.0,12.0,2.0,6.0,5.0990195135927845,5.5,18.0,25.0,23.08679276123039,194.83326204732086,192.15098230297966,188.1754500459611,177.36967046256808
193,2,193,0,8.049708333333319,12.041594578792296,75.4254598925323,7.0710678118654755,12.041594578792296,21.213203435596427,23.194827009486403,25.079872407968907,56.22277118748239,44.181444068749045,38.0,35.0,27.0,6.0,25.0,12.0,2.0,6.0,5.0990195135927845,5.5,18.0,25.0,23.08679276123039,193.74725804511402,190.9476368012969,187.0721785835617,177.13271860387624
194,2,194,0,8.091416666666653,10.04987562112089,75.4254598925323,5.0990195135927845,11.045361017187261,20.223748416156685,21.213203435596427,25.019992006393608,51.15662224971465,40.11234224026316,35.0,35.0,27.0,6.0,20.0,9.0,4.0,6.082762530298219,5.0990195135927845,5.5,16.0,23.0,21.095023109728988,195.7396229688818,193.03885619221847,188.28967045486058,178.36199146679206
195,2,195,0,8.133124999999987,8.06225774829855,74.43117626371358,5.0,11.045361017187261,20.223748416156685,21.213203435596427,24.08318915758459,48.16637831516918,37.12142238654117,33.0,33.0,25.0,5.0,19.0,9.0,3.0,6.082762530298219,5.0990195135927845,5.5,17.0,26.0,22.20360331117452,193.83756085960223,191.049731745428,188.1754500459611,177.36967046256808
196,2,196,0,8.174833333333321,8.06225774829855,75.4254598925323,5.0990195135927845,10.04987562112089,21.213203435596427,21.213203435596427,24.08318915758459,47.265209192385896,37.21558813185679,33.0,33.0,25.0,5.0,18.0,8.0,3.0,6.082762530298219,5.0990195135927845,5.5,18.0,26.0,22.090722034374522,192.75113488641253,189.952625672824,186.07794065928394,177.2484132510077
197,2,197,0,8.216541666666656,9.055385138137417,75.4254598925323,4.0,11.045361017187261,20.09975124224178,22.20360331117452,25.079872407968907,49.16299421312742,38.118237105091836,33.5,34.0,26.0,5.0,19.0,8.0,3.0,6.0,5.0990195135927845,5.0,18.0,26.0,21.213203435596427,193.83756085960223,190.9476368012969,186.18807695446023,177.2484132510077
198,2,198,0,8.25824999999999,10.04987562112089,74.33034373659252,5.0990195135927845,11.045361017187261,19.1049731745428,21.213203435596427,25.019992006393608,51.15662224971465,40.11234224026316,35.0,34.0,27.0,5.5,20.5,9.5,2.5,6.0,5.0990195135927845,5.5,17.0,23.0,22.090722034374522,192.84190415985836,191.049731745428,187.29655629509048,177.49647883831386
199,2,199,0,8.299958333333324,9.055385138137417,75.32595834106593,6.0,11.045361017187261,19.235384061671343,21.213203435596427,25.079872407968907,51.15662224971465,40.11234224026316,35.5,34.0,27.0,5.5,20.5,9.5,2.5,6.0,5.0990195135927845,5.5,17.0,25.0,21.095023109728988,193.93297811357408,191.15700353374447,187.41664813991312,177.62882648939615
200,2,200,0,8.341666666666658,9.055385138137417,76.4198926981712,5.0990195135927845,11.045361017187261,20.223748416156685,22.20360331117452,25.019992006393608,50.15974481593781,39.11521443121589,34.5,34.0,26.0,5.0,20.0,9.0,3.0,6.082762530298219,5.0990195135927845,5.5,17.0,26.0,21.095023109728988,193.83756085960223,191.049731745428,187.18172987767795,176.3774361986249
201,2,201,0,8.383374999999992,10.04987562112089,74.43117626371358,5.0990195135927845,10.04987562112089,19.1049731745428,21.213203435596427,25.019992006393608,50.15974481593781,40.11234224026316,35.0,34.0,26.0,5.0,20.0,10.0,2.0,6.082762530298219,5.0990195135927845,5.5,17.0,24.0,20.024984394500787,190.67249408344142,189.85520798756087,185.0837648201484,176.2554963681984
202,2,202,0,8.425083333333326,9.055385138137417,74.43117626371358,4.123105625617661,10.04987562112089,20.09975124224178,21.213203435596427,25.019992006393608,48.16637831516918,38.118237105091836,33.5,34.0,26.0,5.0,18.0,8.0,3.0,6.0,6.082762530298219,6.0,17.0,25.0,23.08679276123039,192.75113488641253,189.952625672824,185.1944923587092,176.3774361986249
203,2,203,0,8.46679166666666,9.055385138137417,74.33034373659252,5.0,11.045361017187261,20.09975124224178,22.20360331117452,25.019992006393608,50.08991914547278,39.05124837953327,34.5,34.0,27.0,5.5,19.5,8.5,2.5,6.0,5.0990195135927845,5.5,17.0,23.0,22.090722034374522,192.5850461484484,189.76301009416983,185.87361297397757,176.0284067984483
204,2,204,0,8.508499999999994,7.0710678118654755,71.34423592694787,7.0710678118654755,15.033296378372908,20.223748416156685,21.095023109728988,25.019992006393608,54.147945482723536,39.11521443121589,35.5,35.0,28.0,6.5,22.5,7.5,2.5,6.082762530298219,6.082762530298219,6.0,17.0,24.0,21.02379604162864,190.67249408344142,188.67962264113208,183.88311504866346,174.04022523543227
205,2,205,0,8.550208333333329,3.1622776601683795,69.26037828369117,5.0,14.035668847618199,19.1049731745428,20.09975124224178,26.019223662515376,48.093658625644196,34.058772731852805,32.5,34.0,28.0,5.0,17.0,3.0,2.0,6.082762530298219,5.0990195135927845,5.5,17.0,23.0,21.095023109728988,193.6620768245554,190.7590102721232,185.9731163367437,177.02259742756007
206,2,206,0,8.591916666666663,2.23606797749979,70.25667228100119,6.0,13.038404810405298,20.09975124224178,21.095023109728988,25.019992006393608,46.09772228646444,33.06055050963308,32.0,34.0,28.0,6.0,15.0,2.0,3.0,7.0,5.0990195135927845,5.5,15.0,22.0,22.090722034374522,194.57903278616635,191.66898549321954,186.86893802876924,176.0284067984483
207,2,207,0,8.633624999999997,4.0,69.18092222571191,5.0990195135927845,12.041594578792296,19.1049731745428,20.09975124224178,26.0,47.042533945356304,35.014282800023196,33.0,34.0,29.0,5.5,15.5,2.5,2.5,7.0710678118654755,6.082762530298219,6.5,16.0,22.0,21.095023109728988,192.43960091415696,189.59430371189953,184.78365728602733,175.9232787325202
208,2,208,0,8.675333333333331,6.0,71.25307010929424,5.0,13.038404810405298,20.09975124224178,22.20360331117452,26.019223662515376,50.039984012787215,37.013511046643494,34.0,35.0,29.0,6.0,18.0,5.0,4.0,6.0,6.082762530298219,6.5,16.0,22.0,23.021728866442675,192.37463450257678,188.59745491389856,183.7879212570837,175.9232787325202
209,2,209,0,8.717041666666665,8.0,71.25307010929424,4.123105625617661,12.041594578792296,21.095023109728988,22.090722034374522,26.0,50.039984012787215,38.01315561749642,34.0,36.0,30.0,7.0,17.0,5.0,5.0,6.0,6.082762530298219,6.0,15.0,22.0,21.095023109728988,192.43960091415696,190.67249408344142,184.87833837418594,177.13271860387624
210,2,210,0,8.75875,8.06225774829855,69.18092222571191,5.0,12.041594578792296,20.223748416156685,21.213203435596427,27.018512172212592,52.08646657242167,40.049968789001575,36.0,36.0,31.0,6.5,18.5,6.5,4.5,6.082762530298219,5.0,5.5,16.0,24.0,21.095023109728988,192.50974001333023,189.76301009416983,183.88311504866346,175.03428235634297
211,2,211,0,8.800458333333333,9.055385138137417,68.26419266350405,5.0,13.038404810405298,20.223748416156685,20.09975124224178,26.019223662515376,53.08483775994799,40.049968789001575,35.5,36.0,30.0,7.0,20.0,7.0,4.0,6.082762530298219,6.082762530298219,6.0,17.0,23.0,21.095023109728988,193.31321734428818,189.44656238633627,184.53184007102948,176.72577627499618
212,2,212,0,8.842166666666667,9.055385138137417,69.35416353759881,4.123105625617661,12.041594578792296,19.235384061671343,21.213203435596427,26.019223662515376,51.03920062069938,39.01281840626232,34.5,36.0,29.0,6.5,18.5,6.5,4.5,6.0,6.082762530298219,6.0,16.0,23.0,21.095023109728988,195.5019181491578,191.66898549321954,185.77943912069495,176.91806012954132
213,2,213,0,8.883875000000002,3.1622776601683795,71.25307010929424,4.0,11.045361017187261,19.235384061671343,20.09975124224178,26.0,44.04543109109048,33.015148038438355,31.5,33.0,27.0,4.0,14.0,3.0,3.0,6.082762530298219,6.082762530298219,6.0,15.0,23.0,20.024984394500787,196.36700333813724,192.66551326067673,188.76705220985997,177.91290003819284
214,2,214,0,8.925583333333336,1.0,70.11419257183242,4.123105625617661,10.04987562112089,19.1049731745428,19.1049731745428,27.018512172212592,41.048751503547585,31.016124838541646,31.0,33.0,29.0,4.0,10.0,0.0,2.0,5.0,5.0,5.0,17.0,22.0,21.02379604162864,197.36514383244068,193.58202395883765,189.67603960437387,179.90275150758535
215,2,215,0,8.96729166666667,1.4142135623730951,70.178344238091,4.0,9.055385138137417,18.110770276274835,19.1049731745428,27.0,41.048751503547585,32.01562118716424,31.5,34.0,29.0,4.5,9.5,0.5,2.5,5.0990195135927845,6.082762530298219,6.0,16.0,22.0,20.024984394500787,197.4968354176846,193.6620768245554,187.77113729218343,178.80995498014084
216,2,216,0,9.009000000000004,1.4142135623730951,70.178344238091,4.0,11.045361017187261,18.110770276274835,19.1049731745428,27.018512172212592,43.104524124504614,32.0624390837628,31.5,35.0,30.0,5.5,10.5,0.5,3.5,6.082762530298219,6.082762530298219,6.0,16.0,23.0,22.02271554554524,195.4328529188478,192.66551326067673,186.77526602845464,177.91290003819284
217,2,217,0,9.050708333333338,1.4142135623730951,70.25667228100119,4.0,11.045361017187261,18.110770276274835,19.1049731745428,28.0,44.04543109109048,33.015148038438355,32.5,36.0,30.0,5.0,11.0,0.0,3.0,4.123105625617661,4.123105625617661,4.0,17.0,22.0,20.024984394500787,194.31160541768986,191.51240168720145,186.77526602845464,178.90779748239035
218,2,218,0,9.092416666666672,2.0,69.26037828369117,6.082762530298219,11.045361017187261,19.1049731745428,19.1049731745428,27.0,46.04345773288535,35.014282800023196,34.0,36.0,30.0,6.0,13.0,1.0,2.0,2.23606797749979,2.0,2.0,17.0,23.0,15.033296378372908,190.59118552545917,188.67962264113208,184.87833837418594,177.02259742756007
219,2,219,0,9.134125000000006,2.23606797749979,67.26812023536856,6.0,11.045361017187261,18.027756377319946,18.110770276274835,27.018512172212592,46.09772228646444,35.05709628591621,34.0,36.0,30.0,6.0,13.0,1.0,2.0,3.1622776601683795,3.0,3.0,18.0,22.0,20.0,192.31484602078956,190.4442175546425,186.60385848100785,178.71765441612084
220,2,220,0,9.17583333333334,1.4142135623730951,69.18092222571191,5.0,11.0,18.110770276274835,19.1049731745428,25.019992006393608,42.04759208325728,31.064449134018133,30.5,34.0,29.0,6.5,10.5,0.5,3.5,4.0,4.0,4.0,17.0,22.0,21.02379604162864,195.36888186197925,191.58809983921236,188.85973631242842,181.0
221,2,221,0,9.217541666666676,1.4142135623730951,72.17340230306452,4.0,10.04987562112089,19.1049731745428,19.026297590440446,26.019223662515376,41.10960958218893,31.064449134018133,30.5,34.0,29.0,5.5,9.5,1.5,3.5,4.0,3.1622776601683795,4.0,16.0,20.0,22.0,193.3726971420733,190.51509126575775,187.77113729218343,179.90275150758535
222,2,222,0,9.259250000000009,2.23606797749979,66.27216610312357,6.082762530298219,12.041594578792296,19.026297590440446,19.1049731745428,25.019992006393608,45.044422518220834,33.015148038438355,32.0,36.0,30.0,8.0,12.0,1.0,4.0,5.0990195135927845,5.0990195135927845,5.5,17.0,21.0,21.0,193.1657319505714,190.31815467789718,185.52897347853784,179.71366113904642
223,2,223,0,9.300958333333345,3.1622776601683795,60.207972893961475,5.0,12.041594578792296,17.11724276862369,17.11724276862369,27.0,47.042533945356304,35.014282800023196,33.5,38.0,33.0,8.5,11.5,0.5,5.5,5.0,5.0990195135927845,5.5,17.0,21.0,21.0,194.164878389476,192.31484602078956,186.60385848100785,179.71366113904642
224,2,224,0,9.342666666666675,4.123105625617661,59.21148537234985,6.0,13.0,16.0312195418814,18.027756377319946,27.0,50.00999900019995,37.013511046643494,35.0,39.0,34.0,9.5,13.5,0.5,5.5,6.0,6.0,6.0,18.0,22.0,20.0,194.09276132818556,191.21192431435858,186.3249849054066,177.40631330367023
225,2,225,0,9.384375000000013,5.0990195135927845,59.135437767890075,6.0,13.0,17.11724276862369,17.11724276862369,27.0,51.0098029794274,38.01315561749642,35.5,38.0,34.0,9.0,15.0,2.0,5.0,6.082762530298219,6.0,6.0,18.0,22.0,20.0,194.12624758130983,192.26024029944412,187.3846311734236,177.47675904185314
226,2,226,0,9.426083333333343,5.0990195135927845,60.13318551349163,6.0,13.0,17.11724276862369,18.027756377319946,27.0,51.0098029794274,38.01315561749642,35.5,39.0,35.0,10.0,14.0,1.0,6.0,6.0,5.0990195135927845,6.0,19.0,22.0,18.0,196.16319736382766,192.31484602078956,186.3866948041088,177.47675904185314
227,2,227,0,9.46779166666668,6.0,61.1310068623117,5.0,14.035668847618199,17.029386365926403,18.110770276274835,27.0,52.009614495783374,38.0,35.0,38.0,34.0,9.0,16.0,1.0,5.0,5.0,5.0,5.5,18.0,21.0,20.0,195.1640335717624,192.26024029944412,187.45132701584163,178.63090438107287
228,2,228,0,9.509500000000012,8.0,65.12296062065974,6.082762530298219,12.041594578792296,18.110770276274835,19.1049731745428,26.0,52.03844732503075,40.01249804748511,36.0,37.0,33.0,9.0,17.0,5.0,5.0,5.0,6.082762530298219,6.0,16.0,19.0,20.0,195.20758181996928,191.3164917094185,186.52613757862463,177.63445611704955
229,2,229,0,9.551208333333348,8.0,68.18357573492314,5.0990195135927845,12.041594578792296,19.026297590440446,20.09975124224178,26.0,51.03920062069938,39.01281840626232,35.0,37.0,32.0,8.5,16.5,4.5,5.5,5.0,5.0,5.0,18.0,22.0,21.0,195.36888186197925,191.58809983921236,186.77526602845464,178.80995498014084
230,2,230,0,9.592916666666682,9.055385138137417,69.1158447825099,5.0,11.045361017187261,19.1049731745428,20.09975124224178,25.0,50.039984012787215,39.01281840626232,34.5,36.0,32.0,9.0,16.0,4.0,6.0,5.0,5.0990195135927845,5.0,18.0,23.0,20.024984394500787,196.30843079195554,191.51240168720145,187.6006396577581,178.71765441612084
231,2,231,0,9.634625000000016,8.06225774829855,70.178344238091,5.0,12.041594578792296,19.1049731745428,20.09975124224178,25.019992006393608,50.08991914547278,38.05259518088089,34.0,36.0,31.0,8.5,16.5,4.5,5.5,6.0,5.0,5.0,17.0,21.0,21.0,196.36700333813724,192.50974001333023,187.6832437912346,178.80995498014084
232,2,232,0,9.67633333333335,9.0,70.11419257183242,5.0990195135927845,11.045361017187261,20.09975124224178,21.095023109728988,25.019992006393608,50.08991914547278,39.05124837953327,34.5,36.0,32.0,9.0,16.0,4.0,6.0,6.082762530298219,5.0,5.5,16.0,21.0,20.024984394500787,193.3726971420733,189.51780918953236,184.61040057374882,175.72990639046048
233,2,233,0,9.718041666666684,8.0,69.18092222571191,4.123105625617661,11.045361017187261,19.1049731745428,20.09975124224178,26.019223662515376,49.09175083453431,38.05259518088089,34.0,36.0,31.0,7.5,15.5,3.5,5.5,6.0,6.0,6.5,17.0,20.0,19.0,194.31160541768986,190.51509126575775,186.60385848100785,176.81911661356077
234,2,234,0,9.759750000000018,6.0,69.1158447825099,4.123105625617661,11.045361017187261,19.1049731745428,20.09975124224178,27.018512172212592,48.093658625644196,37.05401462729781,34.0,37.0,33.0,8.0,13.0,2.0,5.0,6.0,5.0990195135927845,5.0,16.0,19.0,20.024984394500787,191.51240168720145,187.6006396577581,183.7879212570837,176.91806012954132
235,2,235,0,9.801458333333352,1.4142135623730951,67.1863081289633,4.0,9.0,17.11724276862369,18.110770276274835,29.017236257093817,43.04648650006177,34.058772731852805,33.5,36.0,31.0,4.5,9.5,0.5,2.5,6.082762530298219,6.082762530298219,6.0,18.0,20.0,20.024984394500787,194.164878389476,191.3164917094185,187.52333188166213,178.71765441612084
236,2,236,0,9.843166666666686,0.0,69.1158447825099,5.0,8.06225774829855,18.027756377319946,18.027756377319946,29.017236257093817,42.04759208325728,34.0147027033899,34.0,35.0,31.0,4.0,9.0,0.0,1.0,6.0,7.0710678118654755,7.0,18.0,20.0,20.024984394500787,193.2097306038182,190.4442175546425,186.60385848100785,178.80995498014084
237,2,237,0,9.88487500000002,1.0,68.18357573492314,5.0,9.055385138137417,19.026297590440446,19.026297590440446,28.0178514522438,41.048751503547585,32.01562118716424,32.5,35.0,30.0,4.5,8.5,0.5,1.5,7.0,7.0,7.5,18.0,20.0,20.024984394500787,192.21082175569617,190.31815467789718,186.52613757862463,178.71765441612084
238,2,238,0,9.926583333333356,0.0,70.11419257183242,4.0,10.0,18.0,19.026297590440446,28.071337695236398,42.04759208325728,32.0624390837628,32.0,34.0,30.0,4.0,10.0,0.0,1.0,7.0,6.082762530298219,6.5,18.0,21.0,20.0,192.12756179163884,189.31983519959022,185.4561942885705,178.63090438107287
239,2,239,0,9.968291666666689,0.0,70.11419257183242,4.0,10.04987562112089,19.026297590440446,19.026297590440446,27.0,41.012193308819754,31.0,31.0,33.0,29.0,4.0,10.0,0.0,1.0,7.0,7.0710678118654755,7.5,17.0,21.0,18.0,194.20865068271289,191.3164917094185,186.45374761586316,178.63090438107287
240,2,240,0,10.010000000000025,1.0,70.11419257183242,5.0,10.0,18.027756377319946,18.110770276274835,26.0,41.012193308819754,31.016124838541646,31.0,32.0,28.0,4.0,11.0,0.0,1.0,7.0,6.082762530298219,6.5,18.0,21.0,21.0,194.12624758130983,190.26297590440447,186.45374761586316,177.55280904564702
241,2,241,0,10.051708333333355,0.0,70.178344238091,5.0990195135927845,10.04987562112089,19.026297590440446,19.026297590440446,26.0,41.048751503547585,31.016124838541646,31.0,33.0,28.0,4.5,10.5,0.5,1.5,7.0,6.0,7.0,18.0,21.0,21.0,193.12690128513947,190.31815467789718,185.3887806745597,177.55280904564702
242,2,242,0,10.093416666666691,1.0,70.11419257183242,4.0,11.0,18.027756377319946,19.1049731745428,27.0,42.01190307520001,31.016124838541646,31.0,33.0,29.0,4.0,11.0,1.0,1.0,7.0710678118654755,6.082762530298219,6.5,18.0,21.0,19.0,195.12560057562922,192.26024029944412,187.3846311734236,178.54971296532514
243,2,243,0,10.135125000000023,0.0,72.11102550927978,5.0,10.04987562112089,19.026297590440446,19.026297590440446,27.0,42.01190307520001,32.0,32.0,34.0,30.0,5.0,10.0,1.0,2.0,7.0,7.0,7.0,18.0,21.0,20.0,192.12756179163884,190.26297590440447,185.3887806745597,176.47946056127893
244,2,244,0,10.17683333333336,1.0,72.11102550927978,4.123105625617661,9.055385138137417,20.09975124224178,20.024984394500787,28.0,42.04759208325728,33.015148038438355,32.5,35.0,31.0,5.0,9.0,1.0,3.0,6.0,6.082762530298219,6.5,18.0,21.0,20.0,193.12690128513947,190.26297590440447,186.3249849054066,177.40631330367023
245,2,245,0,10.218541666666694,1.0,72.11102550927978,6.0,12.041594578792296,19.1049731745428,20.09975124224178,27.0,45.044422518220834,33.015148038438355,33.0,35.0,31.0,6.0,12.0,0.0,2.0,7.0,7.0710678118654755,7.0,19.0,21.0,20.0,192.12756179163884,190.26297590440447,186.3866948041088,176.47946056127893
246,2,246,0,10.260250000000028,5.0990195135927845,70.06425622241343,6.0,12.041594578792296,20.09975124224178,20.024984394500787,28.0,51.03920062069938,39.01281840626232,36.5,37.0,34.0,7.5,15.5,3.5,3.5,6.0,6.082762530298219,6.0,17.0,20.0,19.026297590440446,195.20758181996928,192.26024029944412,187.3846311734236,177.47675904185314
247,2,247,0,10.301958333333362,7.0710678118654755,71.02816342831905,6.0,12.041594578792296,20.024984394500787,21.02379604162864,28.0178514522438,53.08483775994799,41.048751503547585,37.5,37.0,35.0,8.0,17.0,4.0,4.0,6.0,7.0,7.0,17.0,20.0,19.0,193.2097306038182,190.3785702225962,185.4561942885705,176.555940143627
248,2,248,0,10.343666666666696,8.06225774829855,71.06335201775947,6.0,11.045361017187261,18.027756377319946,20.024984394500787,27.0,52.03844732503075,41.012193308819754,37.0,37.0,34.0,8.5,16.5,5.5,3.5,7.0,6.082762530298219,6.5,18.0,21.0,20.024984394500787,193.2097306038182,190.26297590440447,184.39088914585776,176.47946056127893
249,2,249,0,10.38537500000003,7.0710678118654755,71.06335201775947,6.0,10.04987562112089,19.1049731745428,21.02379604162864,27.018512172212592,50.08991914547278,40.049968789001575,36.5,36.0,33.0,7.5,15.5,4.5,3.5,6.0,7.0710678118654755,7.0,18.0,20.0,20.024984394500787,193.1657319505714,190.26297590440447,186.3866948041088,177.47675904185314
250,2,250,0,10.427083333333364,8.06225774829855,73.06161783043132,6.0,11.045361017187261,19.1049731745428,21.02379604162864,27.018512172212592,52.08646657242167,41.048751503547585,37.0,36.0,33.0,7.5,17.5,5.5,3.5,7.0,6.082762530298219,6.5,18.0,20.0,20.0,192.26024029944412,189.38056922503955,185.4561942885705,177.63445611704955
251,2,251,0,10.468791666666698,6.082762530298219,71.11258679024411,5.0,11.045361017187261,20.09975124224178,20.024984394500787,28.0178514522438,50.08991914547278,39.05124837953327,36.0,37.0,33.0,7.0,15.0,4.0,4.0,6.0,6.082762530298219,6.5,18.0,21.0,20.024984394500787,192.21082175569617,190.31815467789718,185.3887806745597,177.55280904564702
252,2,252,0,10.510500000000032,9.055385138137417,72.17340230306452,5.0,10.04987562112089,20.09975124224178,20.09975124224178,28.0178514522438,52.08646657242167,42.04759208325728,37.5,37.0,32.0,6.5,17.5,6.5,3.5,6.0,6.082762530298219,6.5,18.0,20.0,20.024984394500787,192.12756179163884,189.21416437465774,185.3887806745597,177.55280904564702
253,2,253,0,10.552208333333366,9.055385138137417,73.17103251970687,6.082762530298219,11.045361017187261,21.095023109728988,22.090722034374522,27.0,53.08483775994799,42.04759208325728,37.5,37.0,32.0,7.5,18.5,7.5,3.5,6.0,7.0710678118654755,7.0,20.0,21.0,19.026297590440446,191.12822920751398,190.26297590440447,186.3866948041088,178.4740877550576
254,2,254,0,10.5939166666667,9.055385138137417,73.17103251970687,6.0,11.045361017187261,20.09975124224178,21.095023109728988,28.0178514522438,54.08326913195984,43.04648650006177,38.5,37.0,32.0,6.5,19.5,7.5,3.5,6.0,6.0,6.5,18.0,20.0,21.02379604162864,193.12690128513947,191.26160095534075,187.45132701584163,178.63090438107287
255,2,255,0,10.635625000000037,9.0,71.11258679024411,5.0990195135927845,11.045361017187261,19.1049731745428,21.095023109728988,28.0,53.03772242470448,42.01190307520001,37.5,37.0,33.0,7.0,18.0,7.0,3.0,7.0,6.082762530298219,6.0,19.0,19.0,21.02379604162864,194.164878389476,192.26024029944412,186.52613757862463,178.63090438107287
256,2,256,0,10.677333333333369,1.0,65.27633568147036,5.0,10.04987562112089,18.110770276274835,19.1049731745428,29.0,45.0111097397076,35.0,34.5,39.0,33.0,7.0,9.0,1.0,4.0,7.0,6.0,6.0,19.0,19.0,19.026297590440446,194.0412327316027,190.12890364171355,186.3249849054066,179.47144619688115
257,2,257,0,10.719041666666705,0.0,65.12296062065974,4.123105625617661,9.0,19.026297590440446,18.110770276274835,29.017236257093817,42.0,33.0,33.0,37.0,33.0,6.0,7.0,2.0,4.0,7.0,7.0710678118654755,7.0,18.0,18.0,21.095023109728988,193.02331465395574,190.12890364171355,186.26862323000083,179.4017837146554
258,2,258,0,10.760750000000035,1.0,65.12296062065974,5.0,10.04987562112089,17.11724276862369,17.11724276862369,29.017236257093817,45.0,35.014282800023196,34.5,38.0,34.0,7.0,9.0,1.0,4.0,7.0,6.0,6.5,19.0,19.0,18.027756377319946,194.0103090044444,191.06543381784158,187.21645226849054,178.33956375409244
259,2,259,0,10.802458333333371,3.0,61.032778078668514,7.0,13.0,16.0312195418814,18.027756377319946,28.0,51.0,38.0,36.5,38.0,36.0,9.0,14.0,1.0,4.0,8.06225774829855,7.0,7.0,21.0,20.0,21.02379604162864,194.02319448973105,192.06509313251067,187.21645226849054,178.33956375409244
260,2,260,0,10.844166666666704,7.0710678118654755,64.03124237432849,7.0,14.0,18.027756377319946,19.026297590440446,28.0178514522438,56.0,42.0,38.5,39.0,37.0,10.0,18.0,4.0,5.0,8.0,7.0,7.0,21.0,19.0,20.09975124224178,193.02331465395574,190.06577808748213,186.17196351760379,177.22866585290316
261,2,261,0,10.88587500000004,7.0,67.00746227100382,6.0,14.0,18.027756377319946,20.024984394500787,27.018512172212592,54.00925846556311,40.01249804748511,36.5,38.0,37.0,10.5,16.5,1.5,5.5,7.0,7.0,7.0,21.0,19.0,21.02379604162864,191.0,190.02368273454758,185.13238506539042,177.22866585290316
262,2,262,0,10.927583333333374,2.0,68.00735254367721,8.0,12.0,18.027756377319946,19.026297590440446,27.073972741361768,49.040799340956916,37.05401462729781,36.0,36.0,35.0,8.5,13.5,0.5,2.5,7.0710678118654755,6.0,7.0,22.0,18.0,20.09975124224178,193.04144632694815,191.0026177831079,187.0240626229684,179.10053042914194
263,2,263,0,10.969291666666708,2.23606797749979,70.0,6.0,10.0,19.0,18.0,27.073972741361768,45.09988913511872,35.12833614050059,34.0,34.0,34.0,7.0,11.0,0.0,2.0,7.0,7.0,7.5,21.0,16.0,20.223748416156685,192.04166214652486,190.0,186.02419197512995,179.10053042914194
264,2,264,0,11.011000000000042,4.0,71.02816342831905,5.0990195135927845,9.055385138137417,18.0,19.0,26.076809620810597,44.181444068749045,35.12833614050059,33.0,32.0,34.0,7.0,11.0,1.0,3.0,7.0,7.0710678118654755,7.0,21.0,16.0,20.09975124224178,193.0932417253385,191.01047091717248,189.02380802428036,181.0994202089007
265,2,265,0,11.052708333333376,6.0,72.06247289678588,6.082762530298219,11.045361017187261,18.0,20.024984394500787,27.073972741361768,50.15974481593781,39.11521443121589,36.0,33.0,36.0,7.5,15.5,3.5,2.5,7.0710678118654755,7.0,7.0,23.0,17.0,19.235384061671343,193.2097306038182,192.06509313251067,188.0,181.01104938649465
266,2,266,0,11.09441666666671,10.04987562112089,76.05918747922567,7.0,12.0,21.0,21.0,27.16615541441225,56.142675390472796,44.181444068749045,39.0,33.0,36.0,7.5,21.5,8.5,1.5,8.0,6.0,6.5,23.0,16.0,20.223748416156685,192.26024029944412,192.09372712298546,189.01058171435798,181.02486017119307
267,2,267,0,11.136125000000044,14.035668847618199,78.10249675906654,6.0,12.041594578792296,21.0,23.0,26.1725046566048,58.215118311311535,46.17358552246078,39.0,33.0,37.0,9.0,23.0,9.0,4.0,7.0,7.0710678118654755,7.0,24.0,16.0,21.213203435596427,192.31484602078956,190.16834647227702,186.02419197512995,178.0
268,2,268,0,11.177833333333378,10.0,78.16009211867653,5.0990195135927845,13.038404810405298,21.02379604162864,22.02271554554524,26.1725046566048,54.230987451824994,41.19465984809196,36.0,32.0,37.0,8.5,19.5,5.5,3.5,6.0,6.082762530298219,6.0,23.0,15.0,22.360679774997898,192.26024029944412,191.09421759959145,189.01058171435798,182.0109886792553
269,2,269,0,11.219541666666712,16.0,76.10519036176179,4.123105625617661,9.055385138137417,22.02271554554524,22.02271554554524,25.079872407968907,54.147945482723536,45.09988913511872,37.0,32.0,36.0,9.0,20.0,9.0,5.0,7.0710678118654755,6.082762530298219,6.0,24.0,15.0,21.37755832643195,192.26024029944412,190.09471323527123,188.0026595556563,180.02499826412998
270,2,270,0,11.261250000000048,12.041594578792296,75.05997601918082,4.0,10.0,21.0,22.0,24.08318915758459,50.08991914547278,40.11234224026316,34.0,31.0,34.0,8.5,17.5,6.5,5.5,7.0710678118654755,7.0710678118654755,7.0,24.0,15.0,21.213203435596427,193.31321734428818,192.09372712298546,190.0026315607234,182.04395073717774
271,2,271,0,11.30295833333338,12.0,75.1065909225016,4.123105625617661,10.04987562112089,21.02379604162864,22.0,24.08318915758459,50.15974481593781,40.11234224026316,34.0,30.0,34.0,8.0,18.0,6.0,4.0,6.082762530298219,6.0,6.5,24.0,15.0,19.235384061671343,192.37463450257678,191.12822920751398,189.0026454841307,181.04419349981927
272,2,272,0,11.344666666666717,12.0,74.10802925459562,4.123105625617661,10.04987562112089,21.0,22.02271554554524,24.08318915758459,50.15974481593781,40.11234224026316,34.0,30.0,34.0,8.0,18.0,7.0,5.0,6.082762530298219,6.082762530298219,6.0,24.0,15.0,20.396078054371138,196.30843079195554,195.0922858546693,190.01052602421794,181.02486017119307
273,2,273,0,11.386375000000047,6.082762530298219,74.06078584514209,4.0,10.04987562112089,21.0,22.02271554554524,26.1725046566048,46.2709412050371,36.22154055254967,33.0,32.0,35.0,7.5,12.5,1.5,4.5,6.082762530298219,6.0,6.0,23.0,14.0,21.37755832643195,196.36700333813724,194.164878389476,190.02368273454758,182.00274723201295
274,2,274,0,11.428083333333385,12.0,75.05997601918082,4.0,10.04987562112089,21.02379604162864,21.0,25.179356624028344,51.15662224971465,41.10960958218893,35.0,31.0,34.0,7.5,18.5,6.5,4.5,6.082762530298219,5.0,5.5,23.0,14.0,22.561028345356956,194.25756098540927,192.09372712298546,189.01058171435798,180.02499826412998
275,2,275,0,11.469791666666715,10.0,74.06078584514209,4.0,11.045361017187261,21.02379604162864,22.0,26.1725046566048,51.15662224971465,40.11234224026316,35.0,32.0,35.0,7.5,17.5,5.5,4.5,6.082762530298219,6.082762530298219,6.0,24.0,16.0,21.37755832643195,195.25624189766637,193.0932417253385,189.0026454841307,181.01104938649465
276,2,276,0,11.511500000000051,9.0,76.10519036176179,4.123105625617661,11.045361017187261,21.02379604162864,23.0,25.179356624028344,49.25444142409901,38.2099463490856,33.5,31.0,35.0,8.0,16.0,4.0,4.0,7.0710678118654755,7.0710678118654755,7.0,23.0,15.0,18.439088914585774,195.25624189766637,193.12690128513947,189.02380802428036,181.0
277,2,277,0,11.553208333333384,13.0,74.06078584514209,4.123105625617661,9.0,20.0,21.02379604162864,25.079872407968907,51.088159097779204,42.1070065428546,35.5,32.0,35.0,8.5,17.5,6.5,5.5,6.324555320336759,7.0,7.0,23.0,15.0,20.396078054371138,194.31160541768986,191.09421759959145,187.0240626229684,179.00279327429502
278,2,278,0,11.59491666666672,1.0,69.02897942168927,5.0,10.04987562112089,20.0,20.0,27.073972741361768,43.104524124504614,33.06055050963308,32.5,33.0,35.0,7.0,9.0,2.0,3.0,6.082762530298219,7.0,7.0,22.0,14.0,20.396078054371138,196.25493624365222,195.0640920313116,191.0026177831079,183.04371062672436
279,2,279,0,11.636625000000054,1.4142135623730951,68.00735254367721,4.0,9.055385138137417,19.0,19.0,28.071337695236398,40.049968789001575,31.016124838541646,31.5,33.0,34.0,5.5,6.5,3.5,2.5,7.0710678118654755,7.0710678118654755,7.0,23.0,15.0,21.37755832643195,197.25364381932212,194.06442229321684,191.0026177831079,182.0686683644388
280,2,280,0,11.678333333333388,0.0,64.00781202322104,5.0,10.04987562112089,19.0,19.0,27.018512172212592,42.04759208325728,32.01562118716424,32.0,33.0,34.0,6.5,8.5,2.5,2.5,7.0710678118654755,7.0710678118654755,7.0,23.0,15.0,20.223748416156685,193.2097306038182,191.04188022525324,187.00267377767625,179.06981878585793
281,2,281,0,11.720041666666722,1.0,68.0,6.0,12.0,19.026297590440446,21.0,28.0178514522438,47.01063709417264,35.014282800023196,34.5,35.0,35.0,7.0,12.0,1.0,3.0,7.0710678118654755,7.0,7.0,23.0,15.0,22.360679774997898,197.25364381932212,194.06442229321684,190.0026315607234,183.04371062672436
282,2,282,0,11.761750000000056,2.23606797749979,66.007575322837,6.0,11.0,19.0,20.0,27.073972741361768,46.09772228646444,35.12833614050059,34.0,34.0,35.0,7.5,11.5,0.5,3.5,7.0,6.082762530298219,6.5,23.0,16.0,21.37755832643195,195.31000998412753,193.12690128513947,189.01058171435798,182.0109886792553
283,2,283,0,11.80345833333339,1.0,67.0,5.0990195135927845,11.0,19.026297590440446,20.024984394500787,27.073972741361768,44.10215414239989,33.13608305156178,32.5,33.0,33.0,6.0,11.0,1.0,3.0,7.0710678118654755,6.0,6.5,22.0,14.0,22.360679774997898,193.25889371514057,192.06509313251067,188.01063799689632,181.02486017119307
284,2,284,0,11.845166666666724,3.0,67.00746227100382,7.0,11.0,20.0,20.0,26.076809620810597,47.042533945356304,36.05551275463989,34.5,33.0,34.0,7.5,13.5,1.5,2.5,7.0,6.0,6.0,23.0,16.0,20.223748416156685,193.2097306038182,191.09421759959145,188.01063799689632,181.01104938649465
285,2,285,0,11.886875000000058,10.04987562112089,68.00735254367721,6.0,13.0,19.0,20.0,26.076809620810597,55.08175741568164,42.1070065428546,37.0,35.0,36.0,9.5,19.5,5.5,4.5,7.0710678118654755,6.082762530298219,6.5,23.0,16.0,20.396078054371138,194.25756098540927,193.06475597581243,189.0026454841307,181.01104938649465
286,2,286,0,11.928583333333393,11.0,71.0,7.0710678118654755,14.035668847618199,20.0,22.02271554554524,26.076809620810597,58.137767414994535,44.10215414239989,38.5,36.0,36.0,10.0,22.0,7.0,4.0,7.0710678118654755,7.0,6.5,24.0,17.0,20.223748416156685,194.20865068271289,193.06475597581243,190.0,181.02486017119307
287,2,287,0,11.970291666666729,10.04987562112089,73.00684899377592,7.0,14.0,21.0,21.0,26.076809620810597,57.07889277132134,43.104524124504614,38.0,35.0,36.0,9.5,21.5,6.5,3.5,7.0710678118654755,6.082762530298219,6.0,23.0,16.0,21.213203435596427,193.2097306038182,192.06509313251067,190.0,181.02486017119307
288,2,288,0,12.01200000000006,6.082762530298219,74.02702209328699,7.0,14.0,21.0,22.0,26.076809620810597,53.08483775994799,39.11521443121589,36.0,34.0,36.0,9.0,18.0,3.0,3.0,7.0710678118654755,6.0,6.0,22.0,14.0,22.360679774997898,192.21082175569617,192.06509313251067,190.0,181.02486017119307
289,2,289,0,12.053708333333397,8.0,74.00675644831355,6.0,12.041594578792296,21.0,22.0,26.019223662515376,52.03844732503075,40.01249804748511,36.0,34.0,35.0,8.5,17.5,4.5,3.5,6.0,7.0,7.0,22.0,16.0,20.223748416156685,193.1657319505714,191.04188022525324,188.0,180.02499826412998
290,2,290,0,12.095416666666727,6.0,70.0,4.123105625617661,11.0,20.0,20.0,25.019992006393608,46.04345773288535,35.05709628591621,32.0,33.0,33.0,8.0,13.0,1.0,5.0,6.0,6.082762530298219,6.0,22.0,16.0,21.213203435596427,193.1657319505714,190.06577808748213,187.0,179.02513789968157
291,2,291,0,12.137125000000063,4.0,69.00724599634447,4.0,10.0,19.0,21.0,26.019223662515376,44.01136216933077,34.0147027033899,32.0,32.0,33.0,6.5,11.5,0.5,3.5,6.082762530298219,6.082762530298219,6.0,22.0,16.0,21.213203435596427,193.0932417253385,190.01052602421794,187.0106948813356,179.10053042914194
292,2,292,0,12.178833333333396,3.1622776601683795,68.0,5.0,12.0,19.0,20.024984394500787,25.019992006393608,45.044422518220834,33.06055050963308,31.5,33.0,33.0,8.0,12.0,1.0,4.0,7.0,7.0,7.0,22.0,16.0,20.09975124224178,193.0932417253385,191.01047091717248,186.01075237738274,178.10109488714548
293,2,293,0,12.220541666666731,3.0,67.0,5.0,11.0,19.0,19.0,26.019223662515376,45.0111097397076,34.0147027033899,32.5,34.0,34.0,8.0,11.0,1.0,4.0,6.0,7.0,7.0,22.0,17.0,21.095023109728988,194.164878389476,191.02355875650522,188.01063799689632,180.06943105369106
294,2,294,0,12.262250000000066,4.123105625617661,60.00833275470999,7.0710678118654755,13.0,18.0,18.027756377319946,26.076809620810597,50.15974481593781,37.21558813185679,35.0,35.0,36.0,9.5,14.5,1.5,3.5,6.082762530298219,7.0,7.0,22.0,16.0,22.090722034374522,193.25889371514057,192.12756179163884,188.0239346466295,179.00279327429502
295,2,295,0,12.3039583333334,7.0,61.0,7.0710678118654755,13.038404810405298,18.0,19.0,26.076809620810597,53.150729063673246,40.11234224026316,36.5,38.0,38.0,12.0,15.0,1.0,6.0,8.06225774829855,7.0,7.5,23.0,17.0,22.20360331117452,196.25493624365222,193.0932417253385,189.0026454841307,178.02527910383964
296,2,296,0,12.345666666666734,10.04987562112089,59.033888572581766,7.0,14.035668847618199,18.0,19.0,27.16615541441225,58.215118311311535,44.181444068749045,39.0,39.0,41.0,13.0,18.0,3.0,7.0,7.0710678118654755,7.0,7.0,23.0,17.0,20.09975124224178,194.25756098540927,192.09372712298546,188.0239346466295,178.0028089666003
297,2,297,0,12.387375000000068,9.055385138137417,59.033888572581766,7.0710678118654755,14.035668847618199,18.027756377319946,19.0,27.073972741361768,57.21887800367987,43.18564576337837,38.5,38.0,40.0,12.0,18.0,3.0,6.0,7.0710678118654755,7.0,7.0,24.0,17.0,21.213203435596427,195.25624189766637,193.0932417253385,188.01063799689632,179.00279327429502
298,2,298,0,12.429083333333402,1.0,63.12685640834652,5.0990195135927845,10.04987562112089,18.027756377319946,18.027756377319946,29.068883707497267,45.17742799230607,35.12833614050059,34.5,33.0,37.0,6.0,10.0,2.0,1.0,7.0,7.0710678118654755,7.5,22.0,16.0,19.1049731745428,194.20865068271289,191.06543381784158,187.0240626229684,179.00279327429502
299,2,299,0,12.470791666666736,0.0,67.06713054842886,6.082762530298219,10.04987562112089,18.027756377319946,19.0,28.071337695236398,44.181444068749045,34.132096331752024,34.0,33.0,36.0,6.5,9.5,2.5,1.5,7.0,8.0,8.0,23.0,16.0,21.213203435596427,192.21082175569617,191.09421759959145,187.00267377767625,179.0111728356641
300,2,300,0,12.51250000000007,0.0,63.0317380372777,7.0,10.04987562112089,18.0,18.0,29.154759474226502,46.17358552246078,36.124783736376884,36.0,34.0,36.0,6.0,11.0,1.0,1.0,8.0,7.0,7.0,23.0,16.0,20.09975124224178,192.21082175569617,190.09471323527123,186.01075237738274,179.0111728356641
301,2,301,0,12.554208333333404,2.0,66.03029607687671,5.0,11.045361017187261,17.0,18.027756377319946,28.071337695236398,46.09772228646444,35.05709628591621,34.0,34.0,36.0,7.0,11.0,1.0,3.0,8.06225774829855,7.0,7.0,22.0,16.0,20.09975124224178,195.20758181996928,192.06509313251067,188.0026595556563,180.02499826412998
302,2,302,0,12.59591666666674,7.0,67.02984409947557,4.0,10.04987562112089,17.0,18.0,28.071337695236398,49.09175083453431,39.05124837953327,35.5,34.0,36.0,7.0,14.0,2.0,4.0,7.0710678118654755,7.0710678118654755,7.0,23.0,17.0,21.213203435596427,196.1249601657066,194.02319448973105,190.0026315607234,182.04395073717774
303,2,303,0,12.637625000000073,9.0,68.06614430096654,4.123105625617661,10.04987562112089,18.027756377319946,19.0,26.019223662515376,49.09175083453431,39.05124837953327,34.5,32.0,35.0,7.5,15.5,4.5,3.5,7.0,7.0710678118654755,7.5,22.0,16.0,21.213203435596427,193.2097306038182,191.06543381784158,188.0026595556563,179.02513789968157
304,2,304,0,12.679333333333409,12.0,71.06335201775947,4.123105625617661,11.045361017187261,18.027756377319946,20.0,27.073972741361768,54.147945482723536,43.104524124504614,37.0,32.0,35.0,6.5,20.5,8.5,3.5,7.0710678118654755,6.0,6.0,22.0,16.0,21.213203435596427,192.16659439142902,190.02368273454758,185.0,177.02542190318317
305,2,305,0,12.72104166666674,6.0,71.00704190430693,7.0710678118654755,15.033296378372908,19.026297590440446,20.024984394500787,27.073972741361768,55.14526271584895,40.11234224026316,37.0,35.0,36.0,8.5,19.5,2.5,1.5,6.082762530298219,6.082762530298219,6.5,23.0,17.0,22.20360331117452,196.25493624365222,194.09276132818556,189.02380802428036,181.00276240985937
306,2,306,0,12.762750000000077,5.0990195135927845,70.00714249274856,7.0,15.0,19.0,21.0,28.0178514522438,55.036351623268054,40.049968789001575,37.5,35.0,36.0,7.5,19.5,3.5,2.5,7.0710678118654755,6.0,6.5,23.0,17.0,21.37755832643195,197.12432625122653,195.0230755577401,190.0026315607234,182.04395073717774
307,2,307,0,12.80445833333341,3.0,69.00724599634447,7.0,15.033296378372908,18.027756377319946,19.0,26.076809620810597,51.088159097779204,36.05551275463989,34.5,34.0,35.0,8.5,16.5,0.5,2.5,6.082762530298219,7.0,7.0,23.0,17.0,22.360679774997898,197.12432625122653,195.0102561405425,190.01052602421794,181.06904760339356
308,2,308,0,12.846166666666743,11.0,68.00735254367721,4.0,10.0,19.0,19.026297590440446,25.079872407968907,50.039984012787215,40.049968789001575,34.5,34.0,35.0,9.5,15.5,4.5,6.5,6.082762530298219,6.082762530298219,6.0,22.0,16.0,21.213203435596427,196.1249601657066,192.02343606966312,189.01058171435798,181.0994202089007
309,2,309,0,12.887875000000076,9.055385138137417,69.0,4.0,10.0,19.0,19.0,26.019223662515376,49.040799340956916,39.05124837953327,34.5,35.0,35.0,9.0,14.0,3.0,6.0,6.082762530298219,6.0,6.0,21.0,16.0,19.1049731745428,194.09276132818556,192.01041638411183,189.01058171435798,180.0999722376436
310,2,310,0,12.929583333333412,6.0,67.0,4.123105625617661,9.055385138137417,18.027756377319946,19.026297590440446,25.019992006393608,44.10215414239989,35.05709628591621,32.0,34.0,34.0,9.0,10.0,0.0,6.0,7.0710678118654755,6.0,6.0,22.0,16.0,20.09975124224178,194.164878389476,192.02343606966312,188.0026595556563,180.02499826412998
311,2,311,0,12.971291666666746,2.0,68.00735254367721,4.0,10.04987562112089,18.0,18.027756377319946,26.1725046566048,42.190046219457976,32.14031735997639,31.0,34.0,33.0,7.5,8.5,2.5,4.5,6.082762530298219,6.0,6.0,22.0,16.0,20.223748416156685,196.16319736382766,194.02319448973105,190.01052602421794,182.0988742414406
312,2,312,0,13.01300000000008,1.4142135623730951,68.0,5.0,9.0,19.0,19.0,26.076809620810597,41.10960958218893,32.14031735997639,31.5,33.0,33.0,7.0,8.0,2.0,3.0,7.0,7.0710678118654755,7.0,21.0,16.0,20.396078054371138,197.1623696347759,194.02319448973105,190.0026315607234,182.0686683644388
313,2,313,0,13.054708333333414,1.0,70.0,5.0990195135927845,9.0,19.026297590440446,19.026297590440446,26.076809620810597,41.10960958218893,32.14031735997639,31.5,32.0,32.0,6.0,9.0,1.0,3.0,7.0710678118654755,6.0,6.5,21.0,16.0,19.235384061671343,196.1249601657066,193.02331465395574,189.0026454841307,181.06904760339356
314,2,314,0,13.096416666666748,1.0,69.0,5.0990195135927845,10.0,19.0,20.0,25.019992006393608,41.048751503547585,31.064449134018133,30.5,31.0,31.0,6.0,10.0,1.0,2.0,6.082762530298219,6.0,6.0,21.0,16.0,19.4164878389476,195.12560057562922,193.02331465395574,189.0,180.0444389588304
315,2,315,0,13.138125000000082,1.0,69.00724599634447,5.0,10.04987562112089,19.026297590440446,20.0,26.076809620810597,42.1070065428546,32.0624390837628,31.5,32.0,33.0,6.5,9.5,1.5,2.5,7.0710678118654755,7.0,7.0,21.0,16.0,20.09975124224178,197.0913493789111,194.0103090044444,189.01058171435798,180.0999722376436
316,2,316,0,13.179833333333416,1.0,68.0,6.0,10.04987562112089,19.0,19.026297590440446,27.073972741361768,44.10215414239989,34.058772731852805,33.5,34.0,34.0,7.0,10.0,1.0,2.0,6.082762530298219,6.0,6.5,21.0,17.0,19.1049731745428,197.06344156134085,194.0103090044444,191.0026177831079,183.06829326784035
317,2,317,0,13.22154166666675,2.0,66.0,6.0,11.045361017187261,19.0,19.0,26.076809620810597,45.09988913511872,34.058772731852805,33.0,33.0,33.0,7.0,12.0,0.0,2.0,6.082762530298219,6.0,6.0,20.0,15.0,21.213203435596427,197.12432625122653,194.02319448973105,190.0026315607234,181.0994202089007
318,2,318,0,13.263250000000085,2.0,69.00724599634447,6.082762530298219,12.0,19.0,20.024984394500787,26.076809620810597,46.09772228646444,34.132096331752024,33.0,32.0,33.0,6.5,13.5,0.5,2.5,6.082762530298219,6.0,6.0,21.0,16.0,19.1049731745428,197.12432625122653,195.04102132628407,191.0,181.04419349981927
319,2,319,0,13.30495833333342,2.23606797749979,70.00714249274856,7.0,12.0,19.0,19.0,26.076809620810597,47.095647357266465,35.12833614050059,34.0,33.0,34.0,7.5,13.5,0.5,1.5,6.082762530298219,6.082762530298219,6.5,21.0,16.0,20.09975124224178,197.0913493789111,194.02319448973105,190.0026315607234,182.04395073717774
320,2,320,0,13.346666666666753,1.0,71.00704190430693,5.0990195135927845,11.045361017187261,19.0,20.0,26.019223662515376,43.104524124504614,32.0624390837628,31.5,32.0,33.0,6.5,10.5,1.5,2.5,6.082762530298219,6.0,6.5,20.0,16.0,20.09975124224178,196.1249601657066,194.02319448973105,190.0026315607234,181.04419349981927
321,2,321,0,13.388375000000089,1.0,73.00684899377592,5.0,11.0,20.0,20.0,26.076809620810597,43.04648650006177,32.0624390837628,31.5,32.0,33.0,6.5,10.5,1.5,2.5,6.082762530298219,6.082762530298219,6.5,21.0,17.0,19.235384061671343,197.06344156134085,193.00259065618783,190.01052602421794,182.0686683644388
322,2,322,0,13.43008333333342,7.0710678118654755,72.00694410957877,5.0,9.0,18.0,19.026297590440446,25.079872407968907,46.09772228646444,37.12142238654117,33.5,31.0,32.0,6.5,14.5,4.5,2.5,6.082762530298219,6.0,6.5,21.0,17.0,20.09975124224178,197.06344156134085,194.0025773024678,192.01041638411183,183.09833423600554
323,2,323,0,13.471791666666755,9.0,76.00657866263946,5.0990195135927845,11.045361017187261,19.0,21.02379604162864,26.019223662515376,51.088159097779204,40.049968789001575,35.5,32.0,33.0,6.5,18.5,6.5,2.5,7.0710678118654755,6.0,6.5,22.0,18.0,20.223748416156685,197.12432625122653,195.04102132628407,193.0,184.0244548966251
324,2,324,0,13.51350000000009,11.0,77.02596964660685,5.0990195135927845,12.0,21.0,22.0,25.079872407968907,53.08483775994799,41.10960958218893,35.5,30.0,32.0,6.0,22.0,9.0,2.0,6.082762530298219,6.0,6.5,20.0,16.0,22.20360331117452,196.1249601657066,195.0230755577401,191.0,183.02458851203573
325,2,325,0,13.555208333333423,8.06225774829855,78.02563681252464,5.0,11.0,20.024984394500787,21.02379604162864,24.08318915758459,48.093658625644196,37.12142238654117,33.0,31.0,33.0,8.0,16.0,4.0,3.0,6.0,6.0,6.0,21.0,16.0,20.223748416156685,197.0406049523803,196.01020381602586,192.00260414900626,184.0244548966251
326,2,326,0,13.596916666666758,5.0990195135927845,72.00694410957877,4.0,11.0,19.0,20.0,24.08318915758459,44.10215414239989,33.13608305156178,30.5,32.0,31.0,7.5,12.5,0.5,4.5,7.0,7.0,7.0,20.0,17.0,19.1049731745428,193.02331465395574,191.0026177831079,187.0240626229684,178.07021087200408
327,2,327,0,13.638625000000092,10.04987562112089,73.0,4.0,11.0,20.024984394500787,22.0,23.021728866442675,48.041648597857254,37.05401462729781,32.0,30.0,30.0,7.0,18.0,5.0,3.0,7.0,6.0,6.5,21.0,17.0,19.1049731745428,194.0025773024678,191.0026177831079,187.04277585621958,179.10053042914194
328,2,328,0,13.680333333333426,9.0,74.0,5.0,11.0,20.0,21.0,23.021728866442675,48.010415536631214,37.013511046643494,32.5,31.0,31.0,8.0,17.0,5.0,4.0,7.0,7.0,6.5,22.0,18.0,20.09975124224178,193.02331465395574,190.0,187.0240626229684,179.06981878585793
329,2,329,0,13.72204166666676,9.0,74.00675644831355,4.0,11.0,21.0,22.0,24.020824298928627,48.010415536631214,37.013511046643494,32.5,31.0,30.0,6.5,17.5,5.5,3.5,7.0,7.0,6.5,21.0,17.0,19.026297590440446,191.01047091717248,189.0026454841307,186.04300578092153,178.13758727455584
330,2,330,0,13.763750000000094,7.0,73.00684899377592,7.0,14.0,20.0,21.0,24.020824298928627,52.009614495783374,38.01315561749642,34.5,32.0,31.0,7.5,20.5,5.5,1.5,7.0,6.0,6.5,21.0,18.0,20.09975124224178,192.04166214652486,190.0,186.02419197512995,177.1016657177453
331,2,331,0,13.805458333333428,11.0,73.00684899377592,6.0,13.0,20.0,21.0,24.020824298928627,54.00925846556311,41.012193308819754,35.5,32.0,31.0,7.5,22.5,8.5,2.5,7.0710678118654755,7.0,7.0,22.0,19.0,22.090722034374522,191.04188022525324,189.0026454841307,186.02419197512995,177.1016657177453
332,2,332,0,13.847166666666762,14.0,74.00675644831355,5.0,13.038404810405298,20.0,21.02379604162864,24.08318915758459,56.00892785976178,43.04648650006177,36.0,32.0,31.0,7.5,24.5,10.5,3.5,7.0,6.0,6.0,21.0,18.0,22.090722034374522,192.06509313251067,189.0,184.0244548966251,177.1383639983163
333,2,333,0,13.888875000000096,8.0,73.0,6.0,13.0,19.026297590440446,21.0,25.019992006393608,52.009614495783374,39.01281840626232,35.0,31.0,31.0,6.0,21.0,8.0,2.0,7.0,6.0,6.5,22.0,18.0,20.09975124224178,192.04166214652486,190.0026315607234,186.02419197512995,178.10109488714548
334,2,334,0,13.93058333333343,7.0,74.0,6.0,13.0,19.026297590440446,21.02379604162864,25.019992006393608,51.0098029794274,38.01315561749642,34.5,31.0,31.0,6.0,20.0,6.0,2.0,7.0,6.0,6.0,21.0,18.0,21.095023109728988,190.02368273454758,189.0,185.04323819042943,177.1016657177453
335,2,335,0,13.972291666666765,9.0,74.00675644831355,6.0,13.0,20.024984394500787,22.02271554554524,25.019992006393608,53.009433122794285,40.01249804748511,35.5,32.0,31.0,6.5,21.5,7.5,2.5,7.0,7.0710678118654755,7.0,21.0,18.0,20.09975124224178,190.02368273454758,188.0026595556563,185.02432272541898,176.10224302944013
336,2,336,0,14.0140000000001,8.0,73.0,5.0990195135927845,11.0,19.0,20.0,25.0,49.01020301937138,38.01315561749642,34.0,31.0,31.0,6.0,18.0,6.0,2.0,7.0710678118654755,6.0,6.5,21.0,17.0,20.09975124224178,190.02368273454758,188.0026595556563,184.04347312523745,177.1016657177453
337,2,337,0,14.055708333333431,8.06225774829855,72.00694410957877,5.0,11.0,20.024984394500787,21.0,25.019992006393608,49.0,38.0,34.0,31.0,30.0,5.5,18.5,7.5,2.5,7.0,6.0,6.0,19.0,16.0,20.09975124224178,190.01052602421794,188.0,184.0244548966251,175.07141400011596
338,2,338,0,14.097416666666769,7.0,72.00694410957877,5.0990195135927845,10.0,19.026297590440446,20.024984394500787,25.019992006393608,47.042533945356304,37.05401462729781,33.5,32.0,31.0,6.5,15.5,4.5,3.5,7.0710678118654755,6.0,6.5,20.0,17.0,19.1049731745428,192.01041638411183,189.01058171435798,185.06755523321746,177.1383639983163
339,2,339,0,14.1391250000001,8.0,72.02777242147643,4.0,11.0,20.024984394500787,21.02379604162864,26.019223662515376,49.01020301937138,38.01315561749642,34.0,33.0,31.0,6.0,17.0,6.0,4.0,7.0,7.0710678118654755,7.0,20.0,17.0,20.024984394500787,189.0026454841307,187.0106948813356,183.06829326784035,175.18276170902203
340,2,340,0,14.180833333333435,9.0,72.00694410957877,5.0,10.0,20.024984394500787,21.095023109728988,25.019992006393608,49.01020301937138,39.01281840626232,34.5,33.0,32.0,7.5,16.5,5.5,4.5,7.0,6.082762530298219,6.0,20.0,19.0,20.024984394500787,188.0026595556563,187.0106948813356,183.06829326784035,176.1817243643619
341,2,341,0,14.22254166666677,8.0,72.02777242147643,5.0,11.045361017187261,20.024984394500787,21.02379604162864,25.019992006393608,49.0,38.01315561749642,34.0,34.0,32.0,8.0,16.0,4.0,4.0,7.0710678118654755,7.0,7.0,20.0,18.0,19.1049731745428,191.0026177831079,188.01063799689632,183.06829326784035,175.13994404475525
342,2,342,0,14.264250000000104,8.06225774829855,70.00714249274856,5.0,11.0,19.026297590440446,20.024984394500787,26.019223662515376,50.0,39.0,35.0,34.0,33.0,7.5,16.5,5.5,3.5,6.0,6.0,6.5,21.0,18.0,18.110770276274835,189.01058171435798,187.00267377767625,183.04371062672436,175.13994404475525
343,2,343,0,14.305958333333438,7.0,69.02897942168927,6.0,11.045361017187261,20.024984394500787,20.024984394500787,26.019223662515376,50.0,39.01281840626232,35.5,35.0,33.0,8.0,16.0,4.0,3.0,6.082762530298219,7.0,7.0,21.0,19.0,18.110770276274835,191.0,189.04232330353963,184.09780009549272,176.22996340009834
344,2,344,0,14.347666666666772,7.0,69.02897942168927,6.0,12.0,19.026297590440446,20.024984394500787,27.018512172212592,52.009614495783374,40.01249804748511,36.5,36.0,34.0,8.0,17.0,4.0,3.0,7.0710678118654755,6.0,6.5,21.0,18.0,18.110770276274835,191.0026177831079,189.04232330353963,185.13238506539042,176.22996340009834
345,2,345,0,14.389375000000106,6.0,68.0294054067798,6.0,12.0,19.0,20.024984394500787,26.0,50.0,38.0,35.0,35.0,33.0,8.0,16.0,3.0,3.0,7.0,6.0,6.5,20.0,18.0,18.027756377319946,191.0026177831079,188.0239346466295,184.13310403075272,175.231275747225
346,2,346,0,14.43108333333344,8.0,67.02984409947557,7.0,12.0,19.026297590440446,20.0,27.0,54.0,42.0,38.0,36.0,34.0,8.0,19.0,6.0,3.0,7.0710678118654755,6.0,6.5,21.0,19.0,18.027756377319946,190.0,189.02380802428036,184.06792224611002,176.1817243643619
347,2,347,0,14.472791666666774,13.0,67.02984409947557,6.0,13.0,19.026297590440446,20.024984394500787,26.0,58.0,45.0,38.5,36.0,34.0,9.0,23.0,9.0,4.0,8.0,7.0710678118654755,7.0,21.0,18.0,19.1049731745428,191.01047091717248,188.0239346466295,184.09780009549272,175.231275747225
348,2,348,0,14.514500000000108,4.0,65.03076195155643,5.0,12.041594578792296,18.110770276274835,19.026297590440446,28.0178514522438,49.0,37.013511046643494,35.0,36.0,34.0,7.0,14.0,1.0,4.0,7.0,6.0,6.0,20.0,17.0,20.09975124224178,191.0,188.0239346466295,183.06829326784035,175.18276170902203
349,2,349,0,14.556208333333442,1.0,66.007575322837,4.123105625617661,12.0,18.0,18.027756377319946,29.017236257093817,46.04345773288535,34.058772731852805,33.5,34.0,33.0,4.5,12.5,0.5,1.5,7.0710678118654755,7.0,7.0,20.0,18.0,20.09975124224178,190.01052602421794,188.0026595556563,183.04371062672436,174.14074767268
350,2,350,0,14.597916666666777,1.4142135623730951,66.007575322837,4.0,12.0,18.0,18.027756377319946,29.068883707497267,46.010868281309364,34.0147027033899,33.5,34.0,33.0,4.5,12.5,0.5,1.5,7.0710678118654755,7.0,7.0,20.0,17.0,21.095023109728988,191.02355875650522,188.0,183.0109286354233,175.07141400011596
351,2,351,0,14.63962500000011,2.0,67.0,5.0,13.0,18.0,19.026297590440446,29.017236257093817,49.01020301937138,36.013886210738214,35.0,34.0,34.0,5.0,15.0,1.0,1.0,7.0,7.0,7.5,20.0,17.0,21.02379604162864,192.01041638411183,190.0026315607234,186.02419197512995,178.07021087200408
352,2,352,0,14.681333333333445,3.1622776601683795,65.0,5.0990195135927845,13.0,17.0,18.027756377319946,29.017236257093817,50.00999900019995,37.013511046643494,35.5,35.0,35.0,6.0,15.0,2.0,2.0,7.0,6.0,6.5,19.0,17.0,22.090722034374522,191.01047091717248,189.0026454841307,185.02432272541898,177.0706073858674
353,2,353,0,14.72304166666678,4.0,65.00769185258002,5.0,12.0,16.0,17.029386365926403,29.0,50.0,38.0,36.0,35.0,34.0,5.5,15.5,2.5,1.5,8.0,6.0,6.5,19.0,17.0,18.027756377319946,193.00259065618783,191.01047091717248,187.06683297688022,179.13681921927719
354,2,354,0,14.764750000000111,1.0,68.00735254367721,4.0,11.0,17.029386365926403,18.027756377319946,29.017236257093817,45.0111097397076,34.0147027033899,33.5,34.0,33.0,4.5,11.5,0.5,1.5,6.0,6.082762530298219,6.0,19.0,17.0,18.0,195.0102561405425,193.0,189.04232330353963,181.13530854032848
355,2,355,0,14.806458333333447,1.0,67.00746227100382,4.0,9.0,17.029386365926403,18.027756377319946,30.0,44.0,35.0,34.5,34.0,33.0,3.5,10.5,0.5,1.5,6.082762530298219,5.0,5.5,18.0,17.0,19.0,194.0,191.02355875650522,188.09572031282372,179.17868176767013
356,2,356,0,14.84816666666678,4.0,67.02984409947557,6.0,14.0,16.0312195418814,17.029386365926403,28.0,52.0,38.0,36.0,35.0,33.0,6.0,18.0,3.0,1.0,6.0,6.0,6.0,19.0,18.0,21.02379604162864,194.0,191.02355875650522,187.09623192357455,180.13605968822566
357,2,357,0,14.889875000000115,7.0710678118654755,72.02777242147643,6.0,14.0,18.027756377319946,20.024984394500787,28.0178514522438,55.0,41.0,37.5,35.0,33.0,6.0,21.0,6.0,2.0,6.0,6.082762530298219,6.0,19.0,19.0,19.026297590440446,193.02331465395574,192.06509313251067,188.09572031282372,180.17769007288334
358,2,358,0,14.93158333333345,10.0,72.06247289678588,6.082762530298219,12.041594578792296,19.026297590440446,20.024984394500787,27.018512172212592,55.00909015790027,43.0,38.0,36.0,33.0,7.5,20.5,7.5,2.5,7.0,5.0990195135927845,6.0,18.0,19.0,20.024984394500787,193.04144632694815,190.09471323527123,187.13097017864254,180.22485955050706
359,2,359,0,14.973291666666784,10.0,72.02777242147643,6.0,12.041594578792296,18.027756377319946,19.026297590440446,27.0,55.00909015790027,43.0,38.0,35.0,33.0,7.0,21.0,8.0,2.0,6.0,6.082762530298219,6.5,19.0,20.0,21.0,191.06543381784158,189.12958520548815,186.21761463406193,179.27911200137063
360,2,360,0,15.015000000000118,0.0,72.02777242147643,6.082762530298219,11.045361017187261,19.026297590440446,20.024984394500787,29.0,46.04345773288535,35.014282800023196,35.0,35.0,33.0,5.0,12.0,1.0,1.0,7.0,6.082762530298219,6.0,18.0,19.0,19.026297590440446,191.06543381784158,190.21303845951255,186.3249849054066,179.47144619688115
361,2,361,0,15.056708333333452,0.0,71.06335201775947,5.0,10.04987562112089,19.0,19.026297590440446,29.0,44.01136216933077,34.0,34.0,35.0,32.0,4.5,10.5,0.5,0.5,6.0,5.0990195135927845,6.0,17.0,18.0,20.024984394500787,192.09372712298546,191.21192431435858,187.32325002519042,180.3995565404749
362,2,362,0,15.098416666666786,3.0,70.11419257183242,7.0710678118654755,11.0,18.027756377319946,18.027756377319946,29.0,50.00999900019995,39.01281840626232,37.5,37.0,33.0,6.0,15.0,4.0,0.0,6.0,5.0,5.5,19.0,20.0,21.02379604162864,193.0932417253385,190.21303845951255,187.2671887971836,180.3995565404749
363,2,363,0,15.14012500000012,7.0,71.11258679024411,6.082762530298219,11.045361017187261,19.026297590440446,21.02379604162864,29.017236257093817,53.009433122794285,42.0,38.5,39.0,35.0,8.0,16.0,5.0,3.0,7.0710678118654755,6.0,6.5,18.0,20.0,21.0,194.06442229321684,192.12756179163884,189.21416437465774,181.33394607739612
364,2,364,0,15.181833333333454,7.0710678118654755,71.06335201775947,7.0,12.041594578792296,20.024984394500787,21.095023109728988,28.0,54.037024344425184,42.01190307520001,38.5,38.0,35.0,8.5,17.5,4.5,3.5,6.0,5.0990195135927845,5.5,18.0,20.0,20.024984394500787,195.0640920313116,192.16659439142902,189.21416437465774,180.33579788827288
365,2,365,0,15.223541666666788,7.0710678118654755,71.11258679024411,6.0,12.041594578792296,20.024984394500787,21.095023109728988,28.0178514522438,53.009433122794285,41.0,37.5,39.0,35.0,9.0,16.0,4.0,4.0,6.0,6.0,6.0,19.0,22.0,22.0,194.09276132818556,191.21192431435858,188.26576959181932,179.27911200137063
366,2,366,0,15.265250000000124,3.0,72.11102550927978,6.0,11.0,19.1049731745428,20.024984394500787,28.0178514522438,48.010415536631214,37.013511046643494,35.5,36.0,32.0,6.0,14.0,3.0,2.0,6.0,5.0990195135927845,5.5,19.0,21.0,22.02271554554524,195.12560057562922,192.21082175569617,189.31983519959022,182.4636950190366
367,2,367,0,15.306958333333457,3.1622776601683795,72.17340230306452,6.0,12.0,19.1049731745428,20.09975124224178,27.0,48.010415536631214,36.013886210738214,34.5,36.0,31.0,6.5,14.5,2.5,2.5,6.0,5.0990195135927845,5.5,18.0,21.0,20.0,194.164878389476,192.26024029944412,188.38258942906586,181.54062906137568
368,2,368,0,15.34866666666679,1.0,73.10950690573696,7.0,12.041594578792296,19.1049731745428,19.1049731745428,27.018512172212592,47.042533945356304,35.014282800023196,34.5,35.0,31.0,6.0,14.0,2.0,2.0,6.082762530298219,6.082762530298219,6.0,18.0,20.0,19.026297590440446,194.20865068271289,192.31484602078956,189.44656238633627,182.61708572858126
369,2,369,0,15.390375000000123,2.0,74.10802925459562,7.0710678118654755,13.038404810405298,20.09975124224178,21.095023109728988,27.0,49.040799340956916,36.013886210738214,35.0,36.0,32.0,7.0,15.0,2.0,2.0,6.0,5.0,5.0,18.0,19.0,20.024984394500787,193.2097306038182,192.31484602078956,188.32153355365392,181.46625030566977
370,2,370,0,15.43208333333346,3.1622776601683795,76.10519036176179,8.0,13.038404810405298,20.09975124224178,21.095023109728988,28.071337695236398,52.15361924162119,39.11521443121589,37.5,37.0,33.0,7.0,17.0,3.0,2.0,6.0,5.0990195135927845,5.5,17.0,20.0,19.026297590440446,192.31484602078956,190.4442175546425,187.45132701584163,180.54362353736008
371,2,371,0,15.473791666666791,3.0,75.16648189186454,8.06225774829855,12.041594578792296,20.024984394500787,21.02379604162864,27.018512172212592,50.08991914547278,38.05259518088089,36.5,37.0,32.0,7.5,15.5,2.5,1.5,6.0,6.0,6.0,18.0,20.0,20.024984394500787,193.25889371514057,191.3765920900464,188.4489320744482,181.54062906137568
372,2,372,0,15.515500000000127,3.1622776601683795,70.11419257183242,8.0,14.0,20.024984394500787,21.095023109728988,26.0,51.0098029794274,37.013511046643494,35.5,37.0,33.0,9.0,16.0,2.0,3.0,6.0,5.0990195135927845,6.0,18.0,21.0,20.024984394500787,193.2097306038182,191.3164917094185,187.3846311734236,179.4017837146554
