,video_id,frame_seq,gap,time_seconds,m1,m3,m4,m5,m6,m7,m8,m9,m10,m11,m12,m13,m14,m15,m16,m17,e1,e2,e3,b1,b2,b3,m_0_16,m_1_15,m_2_14,m_3_13
0,9,210,1,6.999999999999979,40.23586299752899,163.30216496771976,18.901849841418052,28.352774762127023,44.954027511579866,49.67357948443293,40.16643091301326,127.60936169530106,99.26283543495478,79.03793980952378,72.1146748444404,74.17692398297584,33.07924472216121,54.29095014709765,21.986649976994954,14.916081502016254,23.62731230177258,23.745154989419305,23.818337100042072,71.96096683411469,73.30591192446411,75.6443080324375,400.0000000000002,395.7698234880585,381.83520383112426,360.8796420500819
1,9,211,0,7.033333333333312,36.56952216777561,165.5755537734311,15.032053984436276,23.719209012563983,45.14726243650606,49.43769587648885,36.5695221677756,111.85236819645428,88.1495783707197,69.80618332006077,61.887309835903466,67.77955219141393,28.279010285841878,46.96905291669691,18.85892855824227,13.567169500108662,21.581467553365577,23.719209012563873,24.882526635054035,64.8146659106157,66.05316271145546,69.25273926220795,399.99999999999983,393.56713375362,382.5391183669086,363.1453809061971
2,9,212,0,7.066666666666645,38.76610982655525,175.95747272492184,18.38484525414909,29.732248990779645,47.94181096005107,50.374785678380235,34.205391023431034,120.945068968614,91.24287610256654,71.77257194110769,63.62950968921416,66.84885988182339,31.151947452011086,55.58113420769155,21.683270414925573,13.161461081548737,25.187392839190117,25.495193175117713,25.281367689018225,66.28073925959825,71.01507777814072,78.36610274439732,399.99999999999983,393.17522734869175,381.6452441708046,361.16890553082965
3,9,213,0,7.099999999999978,34.788366590144705,167.44488726111774,17.36030948825092,26.130726077485015,45.622450737567306,47.790144705297735,34.72061897650205,112.92544385632257,86.82866868779742,69.28020663006282,62.70121242043149,66.1605896574207,29.837128669032836,48.36950672433272,18.03818130715854,12.663791671121658,23.96886070847908,24.26177007885249,24.153866065407556,61.15684758248966,64.80154860003205,76.72245351649669,400.00000000000006,393.37600362103694,380.2586473741094,362.8120380819666
4,9,214,0,7.133333333333312,36.33879074003507,166.5662702530761,17.071098140209827,29.874421745367286,44.86241068829993,49.12577410454334,34.14219628041963,117.38319708614578,87.5153971150148,69.21142128612826,59.91069472018887,66.95539574105248,29.40209858882247,53.72045569051204,19.923102974361996,12.620219193571529,23.472759942788425,25.95985902957798,25.86745366125126,59.48039012031069,66.35296930122291,75.44430785777158,399.9999999999998,391.3400315836365,378.0836370565883,362.98670616579557
5,9,215,0,7.166666666666645,34.01479369639353,163.5977057956101,16.974276277624543,29.704983485843016,44.60796530187934,48.847148270945446,34.01479369639364,114.65492255537468,84.97740439184416,67.91549416713053,61.70427643685787,67.52613424971048,30.61110588859742,49.89369227511554,16.14916609870886,13.775924697291316,23.43587618648002,23.435876186480133,23.528463581241795,59.81309969510323,62.779651446875164,76.85430456752013,400.00000000000017,393.4980849063766,380.2791972580038,365.1689196778741
6,9,216,0,7.199999999999978,27.496155735011822,160.49510633077736,18.97972989898401,31.703100528099,44.28603643096259,46.442799188511444,33.807579650691345,111.94843137946644,80.24755316538878,66.463439279937,61.85595415444038,66.6810667824908,30.467850357534985,47.6417692733537,12.100089141992498,11.739449280617464,23.19744765431377,25.655375525493415,25.655173586773344,58.970835263441074,65.20119976512484,74.55942064811465,399.99999999999994,393.20464093360084,382.1750372851224,362.94435439352884
7,9,217,0,7.233333333333311,21.418802058429176,158.0721327379753,19.299293757326456,32.03971984860799,42.625009235766626,44.958777744045484,34.16654405166492,106.90297930215215,74.86728262129758,64.14974032426574,63.578823319912885,68.76099305173113,32.027816562872886,40.71077407962434,4.435585956895466,10.596470553318795,23.54043076849909,23.828104548182587,23.752656906373545,61.34534580837834,63.76703771695213,77.46149939991601,399.99999999999994,393.1276201985209,382.08869024192245,364.7490557482898
8,9,218,0,7.266666666666644,17.34069505766665,159.6851119893048,19.357636581630615,32.33434310183181,43.070707829063345,45.37219900435918,36.816596088284676,105.74215280472562,73.41296850658492,64.73381990209919,64.05833656399034,67.8860754799407,29.158364095032653,39.74093639207126,5.17870559216783,9.569347289875623,23.756898275957973,26.166201438638403,25.049173788203632,60.230597648040145,65.9722060219654,78.17380147560917,400.00000000000006,395.1068316685464,383.8707255556068,368.30415424970084
9,9,219,0,7.299999999999978,17.349978018509365,157.62573102654306,19.367999267889704,32.35165258336592,43.093764788021424,45.396488016149576,36.83630504566586,105.79875954745712,73.45226852943475,64.76931417313574,64.13468688728926,67.64380246785106,29.055974753942678,39.881969630144,3.173136429231363,9.693620699495227,23.769616010495472,26.18020894079166,25.173549005236055,60.42647255038355,63.935588130945405,78.21565010599099,400.00000000000006,395.31834344675866,383.92547059117237,366.3523097749221
10,9,220,0,7.333333333333311,8.736917968150095,152.93643982494663,21.190138602964716,33.97037640670232,40.48370295744851,44.54971520825699,36.271674676772975,99.95368388301644,65.99631162364048,61.666054392600245,61.101691478696125,66.82056900625878,27.691406975566792,35.96872971282846,0.2257451655617615,6.471361412768374,23.405273087398136,23.69129518443568,23.627993995456393,59.521475319764306,64.78886251620372,81.87733552096017,400.00000000000006,395.4161625060561,384.3835071239781,364.86440612278227
11,9,221,0,7.366666666666644,6.418213634536099,154.40810490413153,21.5007495789571,34.29726394731534,42.84154262405306,44.97840480136299,36.432746587191076,98.62167656668282,64.32460519179762,61.05534251536517,58.61812822867182,65.9922637627692,25.93445971737617,36.18325825629108,0.5624340661598808,4.0620238111553135,23.63049555962862,26.026979605070537,25.996952391393847,60.867864493311856,64.49243958634264,78.46103924719213,399.99999999999983,395.1359148742404,386.0958433939244,368.37539543143225
12,9,222,0,7.399999999999977,4.781187655867044,159.1496433671276,21.382121223404067,32.14437655497313,45.1056341342734,45.1056341342734,36.6002959889147,94.4692992903036,62.339060131709616,60.07217717437845,60.25423309851442,62.79046045544305,24.92282823516382,32.895622154221314,1.8331148223345508,5.047343551907147,25.747483500682137,26.012473159203232,25.06093962588767,59.60134288782001,65.85402221331697,78.41730805610501,399.99999999999983,395.106656019378,385.8806482949621,370.4109230496645
13,9,223,0,7.4333333333333105,6.753520134531822,158.95898512185218,21.463022748345686,32.105868203337536,42.92604549669158,45.051598442618086,34.43633095141919,94.57339852250095,62.520236176656844,59.19794439462896,58.95397104247945,64.2588275199862,27.174877993265113,32.930146813201645,2.0894128107161123,4.841932681120511,23.589031716707094,23.877299420036397,23.859342694823567,57.002184225283656,62.0067658078371,76.22806804608649,400.00000000000006,395.0491792775813,385.9328020628668,372.485870952568
14,9,224,0,7.466666666666644,4.778389384393602,159.30035115471227,21.47618921502311,34.258086090683626,42.952378430046224,45.07923529398819,36.57887504257948,96.75501069527513,62.558589143800695,60.29293082015647,63.280194114301366,66.34213899079987,28.242085060061072,31.901482595388416,5.24015769514574,5.912291936328302,23.603502381146555,25.997248916433353,24.931201575717125,56.95715347502818,61.836350188798065,76.27483006696175,400.0,395.0777428865579,385.814627646286,368.3081364182511
15,9,225,0,7.499999999999977,4.784059281368243,159.76179556190826,21.50167223251278,34.29873573286511,45.13272499506707,47.26301921234085,36.62227846499949,96.8698173588357,62.632819334516995,60.30937623345915,61.20150831180649,66.89118981847002,27.475172538755828,32.65328180468873,3.3189808788869186,4.516808564500138,23.92029640684058,23.92029640684047,23.919121597091305,60.627549212450276,63.4848673375069,78.46440621617131,400.00000000000006,394.8805537294547,385.59636518792615,369.58212633083525
16,9,226,0,7.53333333333331,8.746250185865408,156.93151215684017,21.632868239610502,32.10074979869098,42.90017753721937,42.90017753721914,36.12404997406399,98.40531796341968,66.30476151411105,61.77847949196473,63.23453793116926,68.64275499107202,30.16121052638016,32.24129401095797,3.9521586206981283,8.528342286769657,21.31857257622026,22.146784738353816,22.880918330357304,58.658354265097955,61.986487840422456,78.22883985526045,399.99999999999994,392.7113885816329,383.394090316306,367.31800768907965
17,9,227,0,7.566666666666643,13.422932156677907,159.84001460653752,21.329372866988372,34.22189649826656,42.92191137468613,45.37070205844017,34.549386223179205,103.27810210698358,69.09877244635852,62.38841232833386,65.93566462904823,70.79247602285784,33.8323955992862,34.77324387976216,2.2631215395239224,12.218313480238294,21.64382775701251,20.134398235016928,21.06101590011923,56.50175349238157,60.22700411642904,78.75613044061829,400.0,394.6547501758703,386.61773023703097,370.3975374446382
18,9,228,0,7.599999999999976,19.771653963663457,164.85859539188218,22.266540371017545,31.261729816936434,44.53308074203508,46.67605843048484,35.20649159225311,108.40380756920334,77.1953394566276,66.98879097182112,67.78312446160544,75.19690369959358,36.53934053008413,36.539340530084246,2.1182226394251984,15.357114135832376,22.266540371017488,22.795510563035183,23.83000469353317,60.89890088347363,61.4284565433299,79.47746636533786,399.99999999999983,392.23741243320165,381.216817367429,364.37508595621364
19,9,229,0,7.63333333333331,20.153213350777335,165.04803577680738,22.292127037996032,30.91361810563545,44.58425407599205,46.729694277950685,35.24694766494525,108.52837528727981,77.62335022738077,67.33853822430774,67.97244561182333,75.16509775135705,36.57206284211395,36.59716808518397,0.5711442798407234,15.395790312631789,22.292127037996032,22.821705074066617,22.795560707492314,60.830003958429586,61.65847697973709,79.56879458383546,400.00000000000017,394.40010261624695,384.18799837794984,364.79379240204133
20,9,230,0,7.666666666666643,21.50263937190783,159.6350278990118,21.190235753895653,30.189229722932627,46.816458878452366,47.14765574349697,32.732835121567476,105.44644618677658,75.25923780167739,64.31348984490467,65.70782024804612,75.6175256132309,37.93325659261018,34.49722809915431,1.9296536829190245,14.82720991197857,8.945638709218288,11.354659116073265,11.577922097514772,57.615724158385376,60.03090360668409,80.81388764878992,399.99999999999994,392.02361421415816,381.70970373356465,366.7833083393167
21,9,231,0,7.699999999999976,24.07683510060779,158.76955038368558,21.534975987204827,28.173300228054377,45.14252240039058,47.64163015740034,30.746497680963436,104.48006374993022,76.31313774035482,64.22555989116586,67.96745020001117,75.41442533925431,40.94609477302117,32.68939910792972,0.0184027392238022,17.537810480309645,9.443711692581045,5.972727702904102,5.250914925199368,56.373724488998505,57.968628555063674,73.45483835134316,400.00000000000006,393.9567456578786,387.22097012936104,370.0742281845329
22,9,232,0,7.733333333333309,24.571804673358034,167.9101287020969,22.412934271119205,29.321895997797714,42.67295551137122,47.99999999999984,32.00000000000004,108.22757295241281,78.90572354111693,66.49860970926397,67.35163147352091,74.99173944904157,39.177187984505736,36.77883693717445,5.303570099511944,14.649721603546595,7.924168904698423,6.216229519086417,5.489009613480732,60.7499847762266,61.26921541533966,82.730752193429,399.9999999999999,391.8752208028025,382.72114090825113,366.8694693582036
23,9,233,0,7.766666666666643,24.223302276623865,169.34150092130994,20.554153563038494,29.468919089666922,47.319215040750414,49.40603639686449,33.14257676466533,107.19734987605284,77.78660208725199,65.48955650502535,71.45654646780042,75.8028724900687,40.700764869546106,33.33411059451521,0.6998321561279681,19.705800185707858,7.811780258763526,7.811780258763518,7.513987360531587,54.43957509247889,58.785901114747276,76.0781389959938,399.99999999999983,389.39137352785315,380.4894048184666,362.8776808190525
24,9,234,0,7.799999999999976,24.478869016212954,170.52479847215463,20.185792509900967,29.779829447179633,47.263872308038124,49.927292313740736,33.98950683059839,108.32833015642777,78.60728574351566,66.17952027337867,70.11043385440155,76.61929541181678,39.41883572411939,34.72611718553378,0.3290997416670507,16.784086825019358,9.79154760648525,6.192718450892693,6.551522635038452,59.20138686210532,61.4685184158115,72.01947851155647,400.00000000000006,393.49962774605314,386.63596773098874,368.4147045018888
25,9,235,0,7.833333333333309,24.20449136644441,164.448100294744,22.07789298643529,29.446034629746823,45.204763236314406,49.36766951763499,32.18378298586159,107.65966211755905,78.23706371865512,66.02055580133208,68.99269890382755,77.59242443809694,41.11058594640156,34.11874110692452,1.717508923982905,18.307914274797554,10.824577611235398,9.184958678861411,9.281856738120837,57.201573808681815,57.61572489673455,82.15276790584333,399.99999999999983,390.76575251374015,379.1013730851529,363.49956683192886
26,9,236,0,7.866666666666642,24.586653929690517,164.93228857815095,22.426478876840235,29.910955453786197,45.91849722591933,48.02900740557851,32.69192987540481,109.3594909555284,79.4723417651512,67.03647902260354,71.70759446045372,80.6474681517359,43.48601007215143,32.88641299514575,0.8738695099074221,20.212161685986302,10.995485905209877,11.842500746816157,12.196452152663483,56.59405272076134,56.506037086669835,81.36659569855443,400.00000000000006,389.06622227274636,379.78223678572147,363.78278887993747
27,9,237,0,7.899999999999975,21.860610061416896,162.8296594286835,23.966279201637253,30.691812647416906,44.191635315077335,46.81713113753816,31.21142075835878,107.6510199777043,76.96124180264196,65.6408950860407,69.13784319697857,78.66225823367836,42.74542209060951,33.004832079778794,0.5150050854290384,18.025177990016005,14.379767520982258,15.605710379179376,15.933367210927713,57.24821961978978,59.053916462528605,86.09199893311045,399.9999999999998,392.2043331519119,384.20868348346954,366.66370771437585
28,9,238,0,7.933333333333309,20.03184058149673,165.04383218035306,22.15787265658964,31.10916275121073,44.79255725466537,50.1620176868058,33.730277468188106,106.99593147432978,75.89118039439538,65.49737504011546,71.99177340041058,81.9146543426831,43.329913447923445,29.336106990872395,5.393976307081516,18.242834963101018,14.575304928184414,14.57530492818447,15.488599419508773,58.1887915768649,57.61631767634913,85.20980279376032,399.99999999999994,391.27145994066285,383.64412676825475,367.8897304503095
29,9,239,0,7.966666666666642,20.31493258691263,167.99876306200088,22.471009963198423,32.082917396002216,43.90370545078492,48.12437609400352,32.0829173960023,106.88503067939095,74.82049486215085,64.33557060114651,70.79905710616117,79.05194233818008,42.9073616460978,31.508700716071644,1.668407354003989,20.250135060046205,15.889403525087927,16.781080449204232,16.747753210038127,57.095192122130015,56.16546894012782,86.41399638025783,399.99999999999983,391.72108540592143,381.1037018439246,362.8764397892284
30,9,240,0,7.999999999999975,22.273509814088563,168.61457720118182,20.136382436223283,29.706935426973264,45.02631994832805,47.70140572151273,33.90630850999983,105.94560652661117,76.28724009362985,64.82270445556458,70.46941443756793,78.78686562727546,40.82418703205076,30.904291117720618,1.907672291217409,17.703198862496833,15.749749830367028,15.900468573837518,17.264434235516774,57.57354974893883,59.48122204015624,82.88066634481805,399.99999999999983,396.9172523443025,391.4655564590601,375.7218785563842
31,9,241,0,8.033333333333308,19.896688398657613,162.47489181351781,24.12827878460794,31.42239373018498,44.49034778652994,47.13359059527718,29.353318022320423,104.68447979388583,73.28008920219715,63.04328199658232,69.76518282335849,76.2833896856871,43.692355374045064,31.267023542731522,1.1203168044627319,18.84169171141798,16.43559127071494,18.43880475711298,18.434303782522477,56.728769098701775,56.932463063149385,82.60192110903319,399.9999999999998,394.8554304655759,387.3291483058323,369.61499064709966
32,9,242,0,8.066666666666642,17.426817550046593,162.73326082043624,22.043374330537322,29.39999592770364,42.46733991961564,45.134085854733755,30.9484096358231,99.64164144075818,70.37434061644613,61.100341427788635,68.92552890808565,74.5468880776051,41.010370304903745,27.27636778846386,4.343777540083352,16.927956590030476,15.587019469356344,13.670720422693664,14.021458383062793,56.98014067285675,58.38548046523664,86.13638775776245,400.0000000000001,394.89811021047257,390.041010755976,369.7291768099355
33,9,243,0,8.099999999999975,19.674871822732772,162.3594944398095,20.031545063420023,27.483053092759633,44.79189645615758,46.902710782636426,31.10870381585212,98.03787119213374,70.73883744704038,60.46271680407108,66.64640374994201,74.89131967776984,39.85042698450138,26.795976765440628,2.74830530927602,17.17690818297467,10.863630603556954,11.70048824079683,12.02383572808236,58.40148782211418,58.40148782211412,82.44915927827878,399.99999999999994,391.53706293148434,386.96490098859664,369.446506002973
34,9,244,0,8.133333333333308,19.674871822732772,162.3594944398095,20.031545063420023,27.483053092759633,44.79189645615758,46.902710782636426,31.10870381585212,98.03787119213374,70.73883744704038,60.46271680407108,66.64640374994201,74.89131967776984,39.85042698450138,26.795976765440628,2.74830530927602,17.17690818297467,10.863630603556954,11.70048824079683,12.02383572808236,58.40148782211418,58.40148782211412,82.44915927827878,399.99999999999994,391.53706293148434,386.96490098859664,369.446506002973
35,9,245,0,8.166666666666641,13.611257118116765,168.79264127588337,22.819916215405154,29.854333299356686,45.63983243081033,50.48429165665911,29.432044229284358,95.67213629966777,65.85008227344647,58.66741336087398,66.80624527220914,71.8427755136371,40.14780278484989,25.904846940013385,5.884325232192168,15.429868831906106,7.076155627814305,3.164553000632156,4.16361539908587,57.800778481426164,61.053799260802464,77.8377119059584,400.0,393.48770225001203,384.46388704354735,371.27908199263334
36,9,246,0,8.199999999999974,17.822857390754294,166.21114700255433,22.544329506859736,29.49379483934979,43.43244777644229,43.43244777644252,29.493794839349892,99.28270538967492,69.8020589110548,60.77335738202089,67.26929163390002,71.76156836604434,40.04762609508214,29.544376803733257,0.9443990857348581,18.671025167974904,9.379008000915919,6.990699817187509,7.274425390120086,66.17174675047835,64.85724532033379,75.61597992673886,400.0000000000001,392.53261909755906,386.7695886727037,367.2147474423609
37,9,247,0,8.233333333333308,26.619455062804573,153.50550902098055,14.90711984999844,22.893427324781555,39.38734166503444,43.77376563253371,25.32803652007532,89.20802250260903,66.31985261709374,53.14315043628142,41.324647000504115,54.01333789552143,22.340982996090816,41.238245408806506,12.96023875463834,8.961079367492857,7.382908473373136,7.382908473373136,8.189636584478649,58.962914791340495,47.829452546879736,64.00340661793086,399.9999999999999,389.1882645212855,378.03974145794945,359.9499149878914
38,9,248,0,8.26666666666664,39.69872902182343,158.188931543126,17.2296897852369,26.429137667955697,43.07422446309234,46.72055616481102,27.48185560417712,109.92742241670837,83.99311347071732,63.64761764962236,62.3747919459538,71.39222379682042,39.59057860366522,42.28820919950033,9.76466286098082,23.392130096279516,11.25179991664699,10.447033953111426,10.005296576102182,54.94047664193846,49.9884880833867,59.831505113048685,399.99999999999983,390.9480553626204,382.7437386041146,362.3901254192285
39,9,249,0,8.299999999999974,39.54045244832308,157.55824127501828,15.150465205034967,27.76502281626779,40.40719547943966,44.92426618774745,29.79648015347786,111.5464739515228,83.89087345334835,64.0347952187625,63.707701962242254,70.60182136889875,37.38927532223215,43.75501331450994,12.731475984555573,21.512671871136263,10.405382223242855,9.306856793215596,9.372479850290404,53.542649990383666,47.2020730178383,61.62938447485304,399.9999999999999,393.0370581258198,381.60950203033997,361.2990852699332
40,9,250,0,8.333333333333307,38.62875659323923,163.1367252607546,19.314378296619502,30.538713503720558,43.5031267362011,47.69345771114417,28.456652357688142,116.76620853319474,86.27112409393455,66.69002748088087,67.71641779552112,76.64981497850044,43.7356317405015,44.14111927221143,9.839408386643413,23.42324069891845,9.53869154222876,7.690338979496425,8.5595883646846,54.46204410275999,50.93937117103201,69.44272262737638,400.00000000000006,391.9520201817284,381.93497445057113,365.37671267695674
41,9,251,0,8.36666666666664,34.895341507058724,169.9787383080551,20.068289348558796,32.93962362002232,44.02126773268596,48.67275100562679,33.29728474115097,120.97895963197732,88.0425354653715,70.54518923810656,68.67561708515314,79.51913557228261,40.81899200614828,46.42770846500832,8.163798401229656,20.50297461072182,11.721950692885166,9.73455020112549,10.531923128303902,56.834993449781905,57.458184167433046,66.59456948230194,400.00000000000006,394.8737227170431,386.8549932590638,368.2311556820319
42,9,252,0,8.399999999999974,21.16525609679343,156.15834895883125,21.165256096793208,36.35557123764555,38.43128957511866,42.95458288893731,30.664138747268222,109.06671371293687,72.71114247529133,62.07993613661358,61.181673395087046,71.01266006623882,35.456426547479055,42.74233545097229,4.017230594049352,12.051691782148055,8.935093333974862,9.418415347182782,10.454780241656408,62.828488421218935,64.47530344735094,68.98627603757436,399.99999999999983,392.44401898039763,383.71807765630865,366.6716227755119
43,9,253,0,8.433333333333307,17.648041068700312,160.43909633461632,19.379785933425765,36.63328456669483,43.28163949934344,45.39921110728489,34.8389442954103,108.36800038691254,71.78245553691771,62.91301607781895,64.90354061261257,73.88578257586846,34.57292301369557,38.79034687178944,2.72453045699865,12.78912013604861,7.71638211125884,7.716382111258893,8.465949662043897,52.98527496053606,55.90885787101416,68.01469208692212,400.00000000000006,395.37590001179444,384.94557193209437,368.3838194358192
44,9,254,0,8.46666666666664,15.133070369095059,158.32692369084944,21.825224468390626,36.63328456669478,41.16640206637267,45.399211107285176,34.50870988227617,108.05054633003522,71.430657023259,63.74585924030055,65.23036043318166,73.04748063873296,34.76363552949476,38.6220858873628,2.806145714813397,13.066115984599378,9.570994071589038,9.570994071589038,9.49579665994844,51.67567443573546,55.922475316635825,67.57555613379635,400.00000000000006,394.95284272263996,384.94557193209437,368.3838194358192
45,9,255,0,8.499999999999973,16.96730011983039,159.5287176802529,21.15031063928873,36.02382909930287,40.48153066843596,42.561577617298795,32.19318847338749,106.252946224163,70.24228953240575,61.71519294968175,63.065728412785006,70.59450529307094,34.637262465471395,39.269415773309674,0.684434261844217,11.610938370570807,13.310245292923264,11.333265485922185,12.16704120831929,63.54238798799781,61.599083565976,74.73320482298459,399.99999999999983,393.7898549061283,382.3192745359052,366.41270433241493
46,9,256,0,8.533333333333307,27.537519487215295,163.73351783862077,21.225652200938605,34.05548195244663,44.553349770504894,48.760029681876674,31.750792983981718,114.5375446982417,80.5069111109409,66.4809105712826,62.006874243791685,70.30109585226603,34.56329281954754,48.064106094655585,10.177070455361559,13.688492742160975,12.846985052996205,13.357659001564024,13.198104457280408,61.29248143371865,62.98765081355282,77.08191031797746,399.99999999999983,395.49725269704294,384.41871286509803,366.5028607379524
47,9,257,0,8.56666666666664,29.62009528618636,163.58232289970735,17.057488766171257,31.806262228063176,46.73780654277357,48.8452143885773,31.806262228063176,110.2004359282777,78.39596028545022,63.559144030587845,61.921761042210505,64.68260389122634,31.52261045142461,46.76102877391395,12.483551323796291,16.176626823129254,8.723341536128991,8.723341536128991,8.64107956639998,62.292263762208336,58.515526358359864,72.21399611884206,399.9999999999999,393.68902378466544,380.6240458501269,362.9988001588175
48,9,258,0,8.599999999999973,28.49625016912857,163.04248658551185,16.24219008214309,26.471531162316516,44.71214150196432,47.09184865131328,28.496250169128796,99.66969356496426,73.20256145874957,58.86267065628249,56.91922791981085,60.32169443173461,30.143546538688042,40.93916909855466,9.832551530220485,13.604099155302492,8.371033162504428,8.37103316250446,8.292791261265222,60.05641738165235,57.88806584185005,69.2974995652922,400.0000000000002,389.69622684447177,377.00275856686227,360.18338280630604
49,9,259,0,8.633333333333306,28.49625016912857,163.04248658551185,16.24219008214309,26.471531162316516,44.71214150196432,47.09184865131328,28.496250169128796,99.66969356496426,73.20256145874957,58.86267065628249,56.91922791981085,60.32169443173461,30.143546538688042,40.93916909855466,9.832551530220485,13.604099155302492,8.371033162504428,8.37103316250446,8.292791261265222,60.05641738165235,57.88806584185005,69.2974995652922,400.0000000000002,389.69622684447177,377.00275856686227,360.18338280630604
50,9,260,0,8.66666666666664,24.774544158360765,165.48589852196554,16.516362772240495,31.03692208097708,45.466894897510706,47.66373056150241,31.03692208097709,103.30981613403868,72.28857461687556,59.77118026946573,58.160789235262996,64.6957093740566,30.410717645885825,41.68345488530497,8.355362177457664,13.723332291466477,9.232927474944116,8.258181386120304,9.347269698524428,56.10695719164221,57.483958220887985,72.3769649999447,400.0,391.59478491346266,378.6232072388495,363.73515918008604
51,9,261,0,8.699999999999973,18.572251858903005,157.04941812982318,18.572251858903254,31.022462956519785,41.32322818280801,45.586050374158226,31.022462956519778,99.13795527514728,68.12951605876097,58.740856946532176,57.184848485902535,63.925501738273965,29.54571005875198,38.438944185512014,3.2104206183739734,11.144218698263671,10.522252737767397,12.552288634510768,12.52187045787241,59.33742936029131,62.25263888732053,72.69556994298506,400.00000000000017,391.412353236858,378.5874455697003,361.6043763038187
52,9,262,0,8.733333333333306,12.510015007140318,152.2622952277528,18.880500662255667,35.506313166688166,41.70005002380089,43.83466733130531,31.344460550038818,98.19454253506498,62.68892110007763,56.441914176124556,58.555984099831335,68.10057198023537,31.99250786911307,34.83211658320454,2.720770463942131,11.239596606216196,16.809827570441332,16.80982757044134,17.932066483039534,52.61407159237149,59.51919939051436,69.30869462134952,399.9999999999999,391.5032909055021,380.4372604910693,361.30753206448884
53,9,263,0,8.766666666666639,14.54471861946367,153.75845397718768,18.70035251073918,33.309939623358936,41.5563389127533,43.63415585839111,31.236437963776503,97.74577419739663,64.44582977753525,57.152979624257455,55.756279242432925,65.86218244958945,29.572802751163636,36.91013542368137,0.16139648856631084,9.547223054426922,16.751895769513396,18.815432689297534,19.833145421907545,52.30487741001332,57.58130107468372,72.9902521047884,400.0,393.6352776191341,380.60366173837076,363.7663507061892
54,9,264,0,8.799999999999972,16.62253556510125,153.77249263998578,16.62253556510136,31.23643796377673,41.5563389127533,43.6835996769263,33.309939623358936,97.74577419739663,66.52260022780618,58.189641685433685,57.829603364785726,65.86218244958945,28.536140689987064,35.873473362505024,1.1980585497427683,10.583885115603266,16.751895769513396,18.815432689297456,19.833145421907545,58.79798229618399,61.591383059833106,72.99025210478862,400.0000000000002,391.56238445161097,378.7330827591573,357.6803603094615
55,9,265,0,8.833333333333306,18.610678872937605,159.27839844107066,18.72520720851623,33.150208759501616,41.357064162083496,45.539742992021424,31.01779812156262,101.40917424519066,68.27047978731898,58.942296367206836,59.343852730676986,65.68226548329767,31.562330168751714,38.864478193700506,2.156048782324092,11.496867575660076,20.67853208104174,20.781667544182703,21.801421641323998,58.5160288429077,63.359416365378195,76.62226302019668,400.0000000000001,391.61121762459254,378.77855630845755,360.0203105072891
56,9,266,0,8.866666666666639,22.77318014081961,161.49582062816464,20.70289103710898,33.12462565937415,43.4760711779287,47.61664938535019,31.054336555663177,107.6550333929659,74.53040773359176,63.08907658859812,61.02058227421776,65.6746944815734,32.320223662191665,44.21406596987822,8.101602731322714,12.755714938678238,20.7028910371088,22.867090560435773,22.83962472128212,66.53656711256514,70.07024489963152,78.77987317089894,400.0,389.56658175208196,379.06648627641556,362.35382524428627
57,9,267,0,8.899999999999972,31.472561159765554,167.48189015972525,18.957662738244224,31.472561159765615,43.96399616692796,46.05751979392433,31.472561159765643,113.05027585781457,81.67425708923668,65.88513062076129,62.48937740694873,67.50155927235483,33.6693316808645,48.004171815925474,13.833621948520317,14.146883315108312,23.028759896962278,25.209362757415377,25.173683419001406,68.19073427884797,70.04524156904813,79.55389782586934,400.0000000000002,389.53606300539815,378.97982184214203,360.1104063185996
58,9,268,0,8.933333333333305,32.96823628818853,162.7806666729306,18.54463291210585,32.96823628818853,43.270810128247355,47.436612314468114,30.907721520176825,115.38882700865973,82.42059072047121,65.90621954767892,61.53743605493514,66.46792028246034,33.10913775572317,51.33320603974039,15.63400378474762,13.88649038765027,22.665662448129584,22.759129493936037,21.68788948183561,67.1544434027486,73.0835067143297,82.44634313188564,400.00000000000017,389.6334812377815,375.10424892116373,356.49287505015144
59,9,269,0,8.966666666666638,31.07307094949788,163.66461747593556,18.643842569698766,33.14460901279783,43.55159373528674,47.645375455896904,33.14460901279784,116.00613154479231,82.86152253199448,67.29371935520089,61.85214467563401,68.90977865678917,32.25174598365106,50.57129322275,14.677101078878309,12.922161681059606,20.715380632998617,22.786918696298535,22.807899439994458,67.47047584131212,71.38436946234634,80.89614743758024,400.00000000000034,389.6474441718196,375.03993797430115,358.3820720050955
60,9,270,0,8.999999999999972,35.225596002234,165.8193048542218,18.648844942359226,31.08140823726511,45.63313415761724,47.70318354836917,31.150401459200474,116.05575678271951,84.98111486247097,67.29425464832275,60.683484040553026,67.8404436728963,33.22335997750952,51.71845039582831,18.156076540997333,14.125578221730166,22.793032707327836,24.951314462072215,24.89868587883649,66.18304249488006,72.69964258117164,82.98729532137935,400.00000000000006,387.5701916145637,372.99992140199316,356.40617126513524
61,9,271,0,9.033333333333305,37.68342528593809,163.30826237758018,18.84171264296916,29.30933077795203,46.057519793924385,48.15104342092085,31.472561159765565,117.25601379715755,87.95291170302086,69.03788890129101,65.52432011042947,70.53302455697678,36.66820195569392,49.15258468067009,17.343573605955044,19.51152030669948,25.122283523958764,25.209362757415438,25.155657406913292,66.86994220054657,73.48591747695622,81.75471114626448,400.00000000000006,391.6288346645189,378.97982184214226,360.0921496164789
62,9,272,0,9.066666666666638,39.99113867955451,164.1741482634346,18.943170953473285,29.467154816513897,46.305528997379014,46.305528997379014,31.642033698860686,119.99187774778855,90.53073229498352,70.48064057842078,66.37156661650783,68.32588228132022,35.80406519252176,52.591135646678026,20.74581244185299,18.691275460896577,25.25756127129756,25.345109406497638,25.293354661896842,66.54695391976037,70.30525327516847,82.11405427184796,399.9999999999999,391.6336255562045,378.91603533512574,362.0311634321637
63,9,273,0,9.099999999999971,39.578502268040054,164.57642978902325,16.664632533911544,29.163106934345258,45.875057745671825,47.91081853499583,33.39429784198947,118.75377802170976,89.59661844528013,69.7695134703439,66.16138686293868,69.22395480805585,34.37639525440363,51.02833351469701,17.55087014701826,17.575668268031563,24.99694880086732,23.00836031947714,23.961184428903437,65.21905826444089,70.2158796485798,81.34683802942907,400.0000000000002,389.5859098263795,377.06032782545674,360.37869895527984
64,9,274,0,9.133333333333304,39.78839465452953,167.54317053240783,18.84713431004036,29.317764482284886,46.118341973189416,48.16489879232502,31.48161732953738,119.38355207694862,90.07176649255875,70.13960299524365,66.50282647742654,69.58820076341101,36.64656405943526,51.30518968320928,19.74515632416228,17.663458010726913,25.12951241338709,23.130378065979155,24.08822334118082,65.5487147504353,70.5918767359604,83.86968231991501,399.99999999999966,391.6071676693908,379.0368122352553,362.28985629649134
65,9,275,0,9.166666666666638,37.49949138404573,166.71648064286782,18.74974569202281,29.16627107648004,45.8800351029702,47.91601676850262,31.31894266747784,116.68368376148756,87.52361096643482,68.76025005698966,65.0773295399606,68.25183341995876,35.40315850544732,50.01083651575095,16.827350645145998,18.873417599051095,24.999660922697082,25.086315119866278,26.022251531937343,63.94889261386754,67.28460176902178,81.27560264960968,400.00000000000006,391.6613544555887,377.07821891734864,360.43586194930725
66,9,276,0,9.19999999999997,31.243220522753553,164.66623048469577,16.79272644942468,29.234633132698516,45.870703886622906,45.87070388662268,33.32610189093697,110.47128384930876,81.2590725787327,65.6375900989533,63.97280083739531,67.26496836586955,32.298158707379,44.83084191236594,13.966771332920757,16.011905706669722,24.994576418202847,25.081212991386717,24.97183892336932,64.73349106177773,68.4745905259528,81.25907257873273,399.99999999999983,389.54893543937754,377.0533084286138,360.3926516184314
67,9,277,0,9.233333333333304,21.05000778028174,164.31145815985093,21.050007780281625,31.645100572802903,44.2551070247338,46.357833357665776,31.64510057280302,105.33420527943407,73.70509253614713,63.18223614727037,62.98181668288555,65.38685025550183,32.56816296251043,41.1360950649555,7.966673709291058,12.02516786308081,25.260009336337994,25.347565957057547,25.227800079421513,64.7855918623477,67.69167409592558,77.99872961952899,399.99999999999983,393.65765822479926,381.0574715028012,364.26246266918986
68,9,278,0,9.266666666666636,16.566085338670828,161.85084451454694,18.751535371614718,33.19681887672209,43.68274413212605,45.603773139597436,33.19681887672198,101.65726671870814,68.46048763575273,60.18071841505366,61.833026120164845,64.53791503001378,29.99244467685355,38.462051580090815,4.277641058788163,12.355589839332197,16.695006235084374,18.751535371614608,17.532820648680968,61.19658167078882,64.97853041804342,76.64612283531697,400.0000000000002,389.57277175972695,375.17360349670133,358.7260413445387
69,9,279,0,9.29999999999997,16.65221788487252,162.57247417306561,18.733745120481707,31.29221585256641,43.76160405654011,45.84088221012374,35.447131526385355,102.07975948424097,70.80253008825136,62.47846229665004,63.75830473881115,65.35810779151234,29.116415559163784,37.521534674509894,5.107063591315637,11.260152255551475,16.781809083583685,18.849030793962573,18.674624095955608,62.158501686109844,64.70588039310348,79.12541872926474,399.99999999999994,391.526364732648,379.043766307309,362.4787091100096
70,9,280,0,9.333333333333304,14.784021489596276,161.47779371974815,18.93278526535229,33.51769499564188,44.10497583610154,46.186759619086196,33.51769499564189,100.70512559539668,67.1982160509044,59.7689789427734,60.387990232169045,65.21502776159912,29.287362419494798,37.84097296387324,3.3389093791653295,11.492351009186905,10.453881848501101,12.544658218201345,12.530289130800156,63.91447878993927,67.75359931205065,79.44950204860837,400.0,391.4277344220692,380.98627038510864,360.2208066744982
71,9,281,0,9.366666666666635,17.12445219866809,162.55398521972157,19.116241951026495,31.931125654496256,44.80639619200805,46.92128747577524,34.24890439733618,102.30668241971652,70.38193121366251,61.81111040149926,60.59546072643184,69.24839277255205,30.734117426060607,37.36720078129974,2.705599789636949,13.029270876362375,12.744161300684336,15.019138127081675,13.914513203847264,62.95195086579315,68.46289605943161,78.6176925138477,399.99999999999994,391.3977021978728,382.9143919366765,363.8291274834347
72,9,282,0,9.39999999999997,17.022758601145377,165.55419564858983,17.022758601145252,29.635098511833487,42.7006922931959,46.880984339837106,36.14157481246179,99.79639344629224,70.18663175191372,61.62104672952137,61.65274806028049,65.63443520362227,27.5294356311947,36.11415600075668,3.9182844818236617,10.233189569034607,10.557066725346095,12.66848007041533,12.629810174421948,63.49142524430778,69.45127542701692,73.92962397199676,400.0000000000003,393.5393547527404,380.898031124129,366.152192746398
73,9,283,0,9.433333333333303,18.15288443343869,168.22773978266287,17.610884689105443,33.09370612708386,44.08221138408604,46.43775243743145,38.00137566194646,106.4876186543493,73.47401657215781,64.38214480439103,63.61309668807337,65.56135191607802,26.711604573432396,41.849034996284445,6.434369239857574,11.228102498237376,11.006802930690997,11.224780585172617,12.259908720963608,64.67694658231278,71.21385557101269,81.71763614311894,399.99999999999983,397.44161693371353,388.3389755714787,370.6204825075015
74,9,284,0,9.466666666666637,17.546871836089725,166.32190445480822,17.54687183608984,30.54753272492819,43.58280839683628,48.0787243977234,37.25433674105272,102.86902179228849,72.347605979374,63.515797147422404,59.13072076073206,63.728915734698944,24.205105003410154,41.39667104371915,8.188920262626425,8.356831876844353,11.097616162620957,13.238655704233366,13.187519855113067,65.71802254928019,66.81590618070493,74.12624833861882,400.0000000000002,395.10894474383997,386.2642502900885,368.45859795859803
75,9,285,0,9.49999999999997,9.109750373485582,161.96408597349028,20.471617838594554,30.825435420763647,41.19581818200324,43.211340143675876,33.159991891444356,93.10236190629709,62.3202810278154,57.152589728113526,47.86017161753239,64.28762412689957,23.41183162101663,35.77761758918291,1.3438451612579456,3.2360755676926374,18.4458386270617,22.407023202484556,23.411831621016574,66.08343514956698,66.43295541572377,75.36907804472078,400.0,397.966824447712,389.83452176128105,371.53935696764853
76,9,286,0,9.533333333333305,12.26590288935829,160.3341027334461,18.260202363133384,30.515212677240374,40.78122939960118,44.54598545969514,33.25700318201534,94.15142700282725,63.67166975132218,56.39584090592621,45.868696347295554,64.95396462316796,23.19530274298836,37.251264773385515,4.8810366038046595,2.9238773337491466,18.26020236313344,24.281899712637202,24.21539787768404,67.10090903456177,67.91935745658498,72.62207405418064,399.9999999999998,397.86969576147254,387.92383780083213,369.57041460185684
77,9,287,0,9.566666666666636,18.871017545076466,166.22074504651147,17.18473536228582,29.47157800680458,46.59865637041416,46.271316046450934,33.92433390694362,99.35462993514679,69.89798455562114,60.33731204333719,60.623979710553954,63.69007736861238,28.305316184759022,37.0798395639182,4.150449268835246,9.858874989935885,14.735789003402237,18.871017545076352,18.870210789839348,60.69876258026272,64.68718229806228,73.20588108890541,400.00000000000017,393.3820925166439,383.00580634706404,366.6162431421005
78,9,288,0,9.59999999999997,16.792498786938808,162.31560985590943,17.175646916328663,31.519287270260747,46.24684465679072,46.574011861134245,35.652702679781136,101.03448006219546,69.51863604900448,61.11163121395521,61.11163121395521,64.6902402490067,27.25248419000718,38.12595010420182,5.505552361617561,11.148743532275716,19.20295703122272,20.93241489484426,20.921098974146787,59.047049078348664,63.86440739476393,75.2426188804937,399.99999999999983,391.4988277405577,383.4317080423148,364.57070288553973
79,9,289,0,9.633333333333304,18.815432689297584,163.39622712057025,16.751895769513165,31.443075969815567,42.02124716340345,46.135023214175135,32.25639325092868,99.06197943218767,67.64881857914303,57.656517651897616,52.36703891578634,64.69716168386435,26.975142125882485,39.85700190498346,5.55335295877444,9.271580641755122,20.88180186711589,24.933803347652113,25.937636659502573,65.36884152337058,65.78864142306185,76.99145949650564,400.00000000000006,397.6455260430866,389.1069382447171,374.47426719921316
80,9,290,0,9.666666666666636,18.93744233164258,164.7347761354642,17.245224542369105,29.575316094811672,46.76268068952066,48.821671957690825,34.0437454137046,99.70435193991136,70.14402103428087,60.5496955602772,60.83737227952656,64.16441607606316,28.530025939473717,37.0852814162821,6.116257204911221,12.094929891920742,21.32706373357968,23.09906029443396,23.089183640626175,60.91241838020028,61.01247984776529,77.63168379807487,400.00000000000017,395.38116147225105,384.7633821802475,367.6986187331109
81,9,291,0,9.699999999999967,19.068723279949793,167.96218768319653,16.977407329309553,29.78034249042604,46.75608611890031,48.84339329836334,32.69062407802466,98.320241595681,68.55949703643887,58.7030302604893,58.67218263554946,67.12443186906182,30.69338681512704,35.07374955658236,3.1773053688019672,13.66549784834308,19.068723279949793,23.25919102842385,23.259109204628942,62.620678627847155,62.065421378930296,75.9252737400793,399.9999999999999,395.4062474832058,386.8293397423107,369.8641807774317
82,9,292,0,9.733333333333302,16.77340813143131,163.60605643315782,16.773408131431413,29.422504225563287,44.13375633834458,48.25649490679821,34.3122413530283,97.13883326685476,67.73569148526796,58.962765422013945,57.005776976952916,65.22883252528527,27.286715858580465,35.583852988429385,4.0004054018914985,10.062748155992267,16.773408131431434,20.908617750252166,20.823097871265077,60.746896843536604,58.12934762995337,77.23057083359963,399.99999999999983,391.2695281207979,380.4956651133172,365.79876707747536
83,9,293,0,9.766666666666636,16.71472810612003,163.03369764612003,17.09610177113404,31.167133245802102,43.979358978027456,48.08767457402015,33.74936260373661,98.5155093079809,67.49872520747324,58.69675858723201,57.84091277551056,67.39785767306716,29.098757598530597,35.5889216707518,1.7116916234430164,11.76787991117044,18.773686627931124,20.73206864373379,19.64879342743916,61.40693699101678,59.26732246171298,81.09393106023326,399.99999999999983,393.41797513138744,382.735549704215,366.03698705166244
84,9,294,0,9.799999999999969,16.792498786938715,166.13283631667156,17.17564691632861,31.312148417829285,44.18398717586487,48.311418039476024,31.86152626340474,96.91424072365159,65.76672661914323,56.94679541104824,54.7539498084991,65.052383473953,28.27488104234078,36.74085320148595,3.023561485408891,11.013093652914336,18.8610372794801,20.828531301275614,20.767897071496748,60.9110204696957,58.26005949056935,79.25796698197448,399.99999999999966,393.1740455602591,382.4404218031257,367.7400925707672
85,9,295,0,9.833333333333302,12.440709056563673,154.26316534742355,20.554407316454455,30.950096877587217,32.97850359471175,39.074254767313256,33.29409455182923,97.18656675780842,66.2417833109069,59.64203271248232,54.5574965228019,64.55728588990235,26.60766203422554,37.07902550690869,4.975711396084421,6.765274668552252,22.866478019001118,26.588119613375497,24.479532737236752,65.50043410106775,59.66017017808167,83.95454730431173,400.00000000000006,395.6257556859658,387.20449411317276,368.71087916998135
86,9,296,0,9.866666666666635,17.201552004154845,165.85952685600725,18.889484349311132,29.500418309678462,48.38428350611151,50.23740213519643,31.90958125895467,97.39606776898925,67.91506317720595,58.823214920057694,56.28691030913217,67.51571429083538,30.35825636410675,34.716413582880136,2.232662509617626,12.556493954089206,20.963986110118434,22.945940418074844,22.922001765407117,62.10969413421475,57.14425271282528,75.21160431010044,399.99999999999966,395.3331234388256,384.7797811877312,369.9333635942233
87,9,297,0,9.899999999999968,19.31324128800164,166.56085795977094,16.888939571822466,29.40213156389877,46.51244431850149,48.58887472616016,34.101119801843275,99.54230024122327,70.26223570894489,60.209514881794234,57.63188621561085,66.848124559795,28.414708456937205,36.901429254088384,4.6567536752276055,10.809018321873054,21.052631578947423,23.04296651012602,23.988968671603402,61.20652219607274,58.72616253616047,77.62131073841316,399.99999999999966,393.16170010847674,382.3826686802636,365.5137278356039
88,9,298,0,9.933333333333302,19.35682342789542,161.54200875076876,16.92705104757647,29.692011728992863,46.617404010397316,49.014308139587136,34.178072176205355,100.09775644463234,70.42078903203843,60.71502029510316,60.068441461306975,62.85760505807514,27.321125231978954,38.59188176619227,7.949116250789302,11.524316861192005,19.012163996005434,21.100138816128617,21.083541188297488,59.06687816974022,62.98438522156454,78.13570090914858,399.9999999999999,393.2370396011399,380.48085775017245,365.63997548714906
89,9,299,0,9.966666666666637,19.47088113049535,164.2683254200876,17.026791615106536,29.866968258197723,47.22382324992833,48.98547012123456,34.379462265143964,100.68757016990634,70.83573487489261,61.07100598425757,63.02958832459342,63.587372292067585,28.96673558360726,37.33349509572156,4.398887198035823,13.05721560223867,21.537377099517542,23.231049367740443,21.962743719299624,59.50540780282415,63.27044958327542,74.3981323365652,400.00000000000006,393.2131279467027,382.722794433631,365.6966038630846
90,9,300,0,9.999999999999968,21.411214152112308,161.54200875076867,16.927051047576473,29.69201172899274,46.947192688025574,49.014308139587094,34.1780721762053,102.16813709025611,72.48743850259346,61.740038421943495,61.60129676256827,65.4860632250726,29.413231787532595,38.57018130629285,5.41092471563104,13.457940959389816,21.100138816128517,23.19020249833826,23.1698571156507,57.71653030006411,62.57248837819435,73.75342709579914,400.00000000000017,391.15210909506,380.48085775017245,363.5544042263212
91,9,301,0,10.0333333333333,23.23344901286875,165.6931915499567,16.958617652444946,29.747383216877452,46.70433900978107,46.70433900978129,31.83109007634305,101.75170591467035,72.01079013839028,60.3924122690122,62.351422336416135,62.887966495004434,30.788900263179244,39.124051377993396,6.282557763935415,14.904697614738666,23.517371348799752,25.241491674250547,24.107053823084925,55.276526105728124,61.053734138900154,78.08333950885178,399.99999999999983,393.49840318340836,384.9097587377464,366.0862413554058
92,9,302,0,10.066666666666634,23.355512190906754,166.5637053306984,17.436685601070895,29.903669101584182,47.28185237850341,49.36370311406391,34.09542862992267,104.66284185554458,74.7591727539604,63.08839720117112,66.5117985996842,67.76937462362798,33.046303295851544,37.51768471431774,6.4974761237086796,14.601854944678621,23.355512190906765,23.259595924497635,24.243271128246306,58.127958440060354,64.5555692291054,72.38911820722143,400.00000000000006,391.1383914961834,380.62331676298817,365.68164887606395
93,9,303,0,10.099999999999968,27.470207319800444,165.68081294983983,16.986118703315757,29.79562325128848,46.78007740009809,48.86845560961617,33.97223740663163,108.19135034575527,78.40835871996755,64.67687385545946,65.4512586976889,65.72827441360823,31.617566485166776,42.59746213433641,11.533927081008528,15.44992197423312,19.424369876431193,21.173768636948495,20.1214142745107,58.6391904107611,64.17950472914958,74.01079277804638,400.00000000000006,393.70832121921603,383.0215490088418,366.24384504000204
94,9,304,0,10.1333333333333,27.569820671823056,166.56370533069824,17.047714314961343,29.90366910158415,46.9497128259781,49.36370311406383,34.09542862992269,108.58367731083185,78.69268563995635,64.91517978609738,65.09015331651813,68.68960879945928,32.79503884457438,41.69369267740103,10.348434513455686,16.397519422287132,19.147690841252544,21.250549639884742,20.19694465428057,59.64097765484354,61.54069027084023,74.27917310254303,400.0000000000001,395.3452796954185,384.61396588339073,369.6763611434511
95,9,305,0,10.166666666666634,32.01666978522414,164.2786243792296,19.158669331767406,32.01666978522391,44.88122193483007,49.07378472625708,32.01666978522414,115.2048504400139,83.18847451331935,67.1795665070299,67.46129553164951,68.74188200719345,36.08692688082533,47.09997057050248,13.702275288319129,19.490526157777254,16.92576873496361,19.15866933176752,19.157573674135847,59.36798900621261,63.72198302306157,78.73780475693306,400.0000000000001,395.36255360289954,386.7373802121503,365.67715971709885
96,9,306,0,10.199999999999967,38.16252950802919,162.55900655441735,17.45620883809026,29.937151176846317,42.811172923631176,47.33479218781211,34.13360406931794,119.46761424261278,89.53660910005462,70.49633738304988,69.59943741634436,73.23828870983516,37.28541290161297,48.048212502078854,16.733590807390783,20.4236935275502,17.06680203465897,21.274343124891164,20.218687820874777,61.245454869316404,67.95939176294019,78.58145781183408,399.99999999999994,391.5763352487546,382.93817624804035,366.0910896188728
97,9,307,0,10.2333333333333,39.68875371698249,165.85952685600728,16.81782599341997,29.500418309678498,46.31659624043426,50.45347798026014,31.35937481685505,117.28039616427496,87.83498757416623,67.97440587058964,68.84427943748926,70.83256187611721,38.498118717931675,47.43296292651564,16.34119629247266,24.008510446431274,16.817825993420083,20.96398611011843,19.820690560071398,60.418932603803796,61.21424557925491,77.43508602870575,399.9999999999999,393.76704844573317,381.115263623015,362.6152250920923
98,9,308,0,10.266666666666634,35.56821639935492,170.00278261548834,16.839134546423097,29.31542547420564,46.375280379888686,48.44558745051007,31.399107829950207,113.09543404121432,83.78014559240702,65.97157149382883,65.296094652595,63.66994670147676,33.110874050846405,48.54677075607708,15.498440857196556,16.674270914158683,19.25628706249788,22.975013425953147,21.915470848916925,57.71574343430535,61.76860448170771,75.45158103208317,399.99999999999983,389.58550137819105,379.172580912827,360.6091915248244
99,9,309,0,10.299999999999969,37.83544622510735,166.87236675363647,14.84028296979341,29.457120609060514,46.599433756517705,48.67974758756718,33.8410518873511,115.90631525519123,86.45658976204679,67.55836784063843,65.13725906109403,67.03641451933402,32.25419981891798,49.811954916289324,16.45725110666956,17.689815576255796,19.004835114849104,23.181263051038293,23.072852239346787,58.63485262460324,61.439565652335205,77.90795211058142,400.0,393.7236428653167,383.6320788466016,364.6303127402186
100,9,310,0,10.3333333333333,33.31820830641944,162.24133287605258,16.53046049709887,29.002008679489094,45.64622599270211,47.70441446802802,29.22200178408728,107.94355896918184,78.95350108997805,62.29812141806326,63.50718860044674,66.4613012007029,35.79212798158642,42.95927880499289,12.047045688386902,19.276519562431872,20.766133994461953,22.823112996351107,22.722984262730904,58.29698156708315,61.98650616487163,78.7640015855958,399.99999999999994,393.8200079279788,381.4618667547425,363.11203446829705
101,9,311,0,10.366666666666632,25.382385266373433,159.22612069570218,16.994371546483357,29.585679191435666,42.629484863505446,46.80280587909306,33.98874309296705,105.92028041854562,76.3511087531226,63.65062159804563,66.30790466905273,70.2938292755631,34.32737873737756,37.617939549605694,5.829880382419333,17.427555094197828,21.07892364278473,21.184056083709148,21.084423619485335,57.615857240525145,63.19118480539498,78.02049731035667,399.9999999999999,395.6160764905593,383.2076431265754,366.2216548377377
102,9,312,0,10.399999999999968,20.563542372867442,165.78857882811585,20.073863975937563,31.305567473154706,49.523568071577486,51.7344224815373,35.96459230628754,107.63988170203254,76.35760066232297,66.13394547118969,72.37588705301016,72.809887081194,36.647472968111515,35.03911992248902,1.3402942046853923,18.904530639419477,20.07386397593764,22.30429330659732,22.210589677643327,61.47482752156907,68.1635338382847,80.41927317992479,400.0000000000002,395.4155543294721,386.50836938802445,364.11374558665244
103,9,313,0,10.4333333333333,19.02605976617976,152.45480549590698,16.9394228328784,31.586110476185603,42.231121325768115,44.57056991402631,31.586110476185603,99.10759515659899,67.52927563726729,58.01787131197682,61.213423811180746,66.43219594005814,32.24545677697688,35.28343765393231,1.4118417353485029,15.114270006096717,21.115560662884057,25.212921782045605,24.064338149823755,62.259699382912174,68.6129871919805,77.76822990815869,400.0,393.70950407775,381.27453125316424,364.6745521287609
104,9,314,0,10.466666666666631,19.74343728191814,162.28213797257484,19.743437281918133,30.601939439951867,45.99343477655915,46.251103093933466,32.777064659222354,102.8444466790893,72.246532589944,62.37706844191962,67.97694213859745,71.41722328857463,36.9265213944617,33.14723443773505,0.08789039434248025,17.08840381430207,21.911722802492612,21.91172280249255,21.90981973251803,60.65692786693097,66.26935733422931,80.70048073993893,400.00000000000006,393.47582113705323,380.4291855298742,360.6993029727291
105,9,315,0,10.499999999999966,14.833954621207273,154.5723696191025,18.996730874406346,29.444559195781935,42.42614754345518,44.253940687422975,34.15032813065492,97.31797812152581,67.94534185351276,60.365830756329956,65.33098566702381,73.51913587062404,35.45294822197161,27.787445903707408,4.2682910635789995,16.289192426311388,20.978379808938403,25.17405577072609,24.041802725464777,56.09753969275113,61.49823450789182,75.55129833247572,399.9999999999999,391.4646617027978,379.09969728542546,362.58627724966993
106,9,316,0,10.5333333333333,12.919951139979926,158.0938193507388,21.240268834473866,30.038276254163446,42.955785319993524,46.921287475775046,31.93112565449624,95.95807158066653,65.98172508013842,59.53102432177752,61.41948985806562,65.22176946133004,31.39415525762047,32.63623326135337,0.19011398016323255,9.885926968487638,21.24026883447381,25.48832260136866,24.340926593564802,59.214167688172154,62.3193626975048,78.61769251384769,399.9999999999999,391.51871293720876,383.1735078539553,366.2206721546171
107,9,317,0,10.566666666666633,11.29703594884953,162.27914090527366,22.26581127422924,28.88699042357991,44.531622548458486,46.736678252973704,35.5176643246313,97.8853602317482,69.00232175377829,63.37945511915791,65.72777755982793,67.00294189589079,30.850139160092226,31.506659412322392,0.32194743138234116,10.232878162166912,22.265811274229247,24.3708413168605,23.199153143715648,62.82393798265548,65.98028534914727,79.78988236776091,400.0,392.9055483324441,379.50306910169013,363.8938054998845
108,9,318,0,10.599999999999966,16.994371546483485,152.94934391835162,19.0877771882807,25.38238526637347,40.54611918756109,42.62948486350559,33.98874309296698,95.4388859414034,70.06958892714282,61.531523031432016,67.43059995329259,73.65670459363571,36.58308150795585,24.860395599269395,3.1382082985163606,15.062142033961436,21.184056083709123,25.382385266373326,25.118244377303654,56.83993307012287,61.84597276074231,80.12764046825019,399.9999999999998,391.6030611624512,379.0105359916379,360.1289534230554
109,9,319,0,10.6333333333333,14.911884129622967,150.92712709440454,18.97972989898397,27.73770786315502,40.56471044374921,42.38753884605723,36.097849373757086,97.57888513815232,69.879322914327,62.433363760932934,67.74105371892495,73.16894166166287,34.37029742761672,27.10780866507207,3.068211715883308,15.265144062734976,21.193769423028677,25.306306531978624,24.153468724211336,55.999608472163175,62.56621416512587,84.38071172498803,399.99999999999994,391.4192057570266,377.0849609747283,360.0903550371145
110,9,320,0,10.666666666666632,17.39009580426776,150.9271270944045,18.979729898983905,25.39402362872744,38.48306328824003,40.28969228668416,34.004327653043795,95.48264669617875,70.10171732080556,61.43869008409354,65.95880449441495,75.17336279644769,36.621643197673166,24.81704688642037,5.653256039355256,16.810342848302867,18.979729898983976,21.19376942302869,21.112545406887023,58.66187048767017,59.86972475158535,75.94820365472842,400.0000000000001,389.49430297064066,377.29129700421026,358.41295923584386
111,9,321,0,10.699999999999966,14.918312783511535,154.71951853708296,18.987912239549257,25.40497123181555,38.20952406628288,40.5821982730046,34.01898723940416,93.21259806599566,67.80861393138818,60.35218573645079,64.54806338374442,68.17350449288654,32.388118999502694,26.835870028159206,1.4070767941075246,14.818673624430062,23.207448292782438,25.317216319398966,24.199185585146893,56.13095535412822,60.6690949243129,80.17118501143051,399.99999999999983,389.48512051137556,377.2475258578525,358.35017020919014
112,9,322,0,10.7333333333333,11.254646713730132,164.28581830337407,19.98720740621133,28.77859938769171,42.456682395492074,44.36452903587637,35.31548505347832,95.14107359101494,66.36351919436738,60.775382920001675,61.01211196179975,66.3097240323084,28.445873509035437,31.478564476935276,1.996201649756813,7.933621941341357,22.07217815842393,26.578422085461543,26.494458434753824,62.61163251448954,68.07559472247794,79.49049126206214,400.00000000000017,397.69140754619764,388.97791490195044,373.43751174477046
113,9,323,0,10.766666666666632,12.699666702479169,153.3227751255522,16.832481255494855,23.342451638451166,40.159872304833954,39.887598844764334,37.811889760322394,90.64568567384215,67.32992502197953,60.91838218079988,57.84580017001326,63.38152643738067,22.828522542950736,29.837056716315146,3.986738642094906,5.459546548091566,20.982254387522183,22.96593579503438,22.904702262226465,57.236362415807776,64.14332363013762,79.36433557073397,400.0000000000001,389.2804360444973,377.10884722688,358.21043667097376
114,9,324,0,10.799999999999963,14.833954621207175,154.05902822839556,16.913310516136473,23.171377854539713,38.28195079445261,42.1660215624928,37.99346174881262,92.89893618654823,69.73536573690015,62.257033396866746,60.215819187133434,65.77812790865676,25.030389246855066,29.827242639728297,3.85279182087163,7.578007753635006,18.996730874406314,25.26131445791586,23.907721431501727,57.51121035923666,64.45133867233,77.73331922974138,400.00000000000006,389.05704817059103,376.6597844800813,357.83975512926673
115,9,325,0,10.833333333333298,6.609539078176228,145.43989997631135,16.720958216741167,23.36824951347945,34.02468487565105,35.7770876399966,44.09112499987123,90.48070335259827,67.17711295612108,63.96000123342833,61.621241251919855,69.85774379549332,21.658951133100572,24.65866502242659,1.5252782488099683,4.118251271786789,18.811077993833887,22.991317548019197,21.811478957981535,57.299619546958525,60.04512039481631,75.2733358190281,400.0000000000001,391.5280295869229,376.9234176840637,360.23503893492995
116,9,326,0,10.866666666666632,8.665711650253805,142.08161116113055,16.94480016778948,23.214518942516918,32.15049781597086,36.281723161614686,44.136619621057875,92.69142865963644,69.48480677649741,65.22544533640098,64.90758254236391,75.26990962797163,26.032962831633654,22.600044656033788,3.9097123666555262,8.04192868913708,21.12226369182645,21.017437914789465,20.97894440644484,56.83386757382323,58.93176201446755,77.79291704312011,400.00000000000006,393.5876514021963,383.0943370579031,364.2086097727434
117,9,327,0,10.899999999999965,10.719940628185496,150.74034607132117,21.128389427000936,27.652140676228004,36.292245340061235,40.43957363798622,35.80178704759172,95.18809526754374,67.5703030654265,62.24172645513613,62.56984585656221,70.97475052386176,30.98204348081083,28.382328223357945,1.8046567078436055,9.351402940643993,21.023533249105444,25.228239898926518,23.044077961694768,56.638456676936585,61.736927376019025,79.91708410278564,400.00000000000006,389.622284863018,379.4092529386569,362.6361432285681
118,9,328,0,10.933333333333298,15.14636594220792,151.23486222284777,18.72462030835407,25.05269848833561,39.748152077178084,42.07577892268987,33.28821388151823,91.7551212329935,66.70633311146545,59.3031628299874,58.48891753801297,69.40353381822024,30.729990255891153,27.808652185448636,2.237620649700716,11.337277958484037,16.644106940759173,20.80513367594891,20.760147138890943,53.640739463661305,57.071757793202494,79.05950796860584,400.0000000000001,391.5844523111861,379.34440168437453,362.60668177845537
119,9,329,0,10.966666666666631,14.86588292494334,152.8224333420872,19.037619053508745,25.315686399948902,38.364348090641265,40.43957363798609,35.74000652347927,94.81590187631399,69.50495828730016,62.09258808957452,61.33888481517147,72.36807606393677,31.190753839047943,27.962391480354654,0.3014813097612432,11.456289770927015,18.921179924194917,23.125886574015997,23.075881917974527,54.203827150822235,59.76866966016496,79.88942634660074,400.00000000000017,393.5951309046177,381.10626989105833,366.19591411403303
120,9,330,0,10.999999999999964,12.911216770164856,149.80440414805616,19.22087865068933,27.675200208095397,40.828852357884045,42.66355032312154,36.146421586934416,95.89320033813377,68.22074714072478,61.76226140106496,63.63999654637257,73.82797844962965,32.58758595082884,27.119316710101998,5.7664231320426325,12.541494534706658,10.823132734078566,15.008984628412732,13.899046295165704,61.96525979515229,66.05060247615944,78.53586559011707,400.00000000000017,389.26836797246324,376.87198773936973,362.06200715295336
121,9,331,0,11.033333333333298,10.823132734078504,154.0158788610622,19.103318657055556,27.67520020809542,42.926745603773796,42.926745603773796,34.22575085801386,91.66546138094861,63.995325484682056,58.59092159984118,59.81631239315368,69.12681932525675,30.308409470774336,27.15564521863371,3.399073959339148,10.480478041295783,4.245181923790025,9.492515358448035,7.5493925256337775,59.299062008036856,64.3730419763258,74.32100020856691,400.0000000000001,391.68561591663195,381.4585928628115,364.7522958413613
122,9,332,0,11.066666666666633,17.11890206570142,158.28487860598398,17.118902065701402,25.56838105960209,40.84323104373585,42.941863104120536,36.34570014246261,96.13823831153097,70.58304141149131,61.88102679036854,63.477519064370426,74.35092590351883,32.64487676878093,27.060235841191115,1.7382657191835733,14.559516413870938,6.3700154225337435,8.754748807973423,8.592703590574104,60.629722035069676,63.0213784146556,72.22472693783187,400.00000000000006,391.5242692112774,378.9608971741221,362.5627646916427
123,9,333,0,11.099999999999964,16.851084367737364,159.34336248251915,16.720958216741188,27.171557102204567,42.01088758605235,44.091124999871134,33.70216873547457,94.26417022599786,67.17711295612106,58.70292829825712,62.05321949145787,67.20004364333158,31.026609745728933,29.618516345688136,0.7283241724350091,13.206944993487127,6.270359331277988,8.617784611145499,9.492491714068933,57.97460412582228,63.60697772598587,73.18404496104365,399.99999999999994,389.5705169970012,377.20147882981485,358.7829256156299
124,9,334,0,11.133333333333296,16.893106558011436,148.40617723876235,16.388720631410767,26.710346739621652,39.13825850352235,41.176150983743554,33.03252247382279,92.75386077422655,66.06504494764566,57.586007136387934,58.6212070974517,68.05837883552203,30.405989554037546,29.22634308677891,2.744483617704077,12.95203672214734,6.145770236779024,11.03199519727903,9.352911276123223,56.8637746054132,60.45086284258781,71.7299123648486,399.99999999999994,389.88388351270805,379.9237196950004,361.6907473537463
125,9,335,0,11.16666666666663,14.570039651961535,153.15877098064064,18.658754807166577,26.865825663155928,41.41583426800205,43.4666066491464,31.18124651141403,91.24614564534046,64.40550848866236,56.92015103465235,58.8344355274927,66.74262720283298,31.7331881829532,28.230989012445207,1.8577974094450838,14.084112793225245,12.363088608070706,14.570039651961478,14.454417006594326,55.48286857937228,60.24033626977541,70.05750211240044,399.99999999999994,385.7622647139971,375.69801473414213,355.2700341066473
126,9,336,0,11.199999999999964,14.639154642505932,153.7041525622107,18.632601933397883,29.057892278518278,43.67279648660119,43.67279648660119,33.18925913675406,95.43561215555775,66.37851827350812,59.082145474713684,63.092016172739704,68.92916972049932,32.82764397403014,29.401488630780023,2.893197845411237,15.100462438769227,14.492023725976123,16.562312829687066,16.547061361474846,53.739881032090295,58.48574065570347,78.67098594101367,400.00000000000017,387.49817451589035,375.29379508314975,356.8171949070027
127,9,337,0,11.233333333333295,14.726398631920114,156.5437647537655,18.74364540315634,29.15678173824336,46.006740056890166,48.08118411251801,31.308752950753146,93.8107425634986,64.69566880138078,57.33165084754944,60.13532632065562,66.71342595003921,32.143277121055576,30.367828871571646,2.3821661764660575,13.967285329574565,16.661018136139095,18.743645403156457,18.738004187001252,55.74141122840723,60.9527988959577,70.80932707859132,399.99999999999994,389.65171416024475,377.32355497817787,360.89593064122425
128,9,338,0,11.26666666666663,16.882227094460944,159.36294110983823,18.845843012425853,29.390445741845333,44.02346219175492,46.11518220873962,33.56909408711443,98.61746407373461,69.22821608988004,60.7723351944004,62.11554442926672,67.61450430158357,31.32893652026371,33.64959848472756,2.623357003307092,12.864539150833025,18.961818525599046,20.939825569362025,19.889586510650474,54.71212827089522,60.589456941765945,77.50564650263703,399.99999999999994,391.6643100438518,381.24861571973713,364.56951943710726
129,9,339,0,11.299999999999963,16.87852708299923,155.2739814442118,18.841712642969135,29.309330777951857,41.922777960124684,46.10507532522365,33.757054165998234,98.59585047113572,69.37117277456512,60.8217508091667,62.53180423099377,69.2188788059002,32.28682953151315,32.644154127118895,1.7610997926281016,13.961182414021778,18.841712642969078,20.935236269965657,20.903488842932234,56.15100788089245,63.34854616380676,73.39285936845914,399.9999999999999,391.6288346645191,379.21104811249063,362.6693586664771
130,9,340,0,11.333333333333297,19.057371041239115,155.8634838746275,18.940811103527555,29.538550261600417,44.24530550039785,46.34756612609937,33.73825567799522,101.21476703398544,71.67786452577795,62.116949147337436,64.03344304117536,68.492736022916,32.56787009136451,34.822568789997604,1.4029236347049618,13.878923100473799,18.94081110352767,23.149880237644936,22.096047246602836,57.720286685003146,62.35494512108198,77.89621344586736,400.0,391.6470411534993,381.2055181379509,362.2795953270226
131,9,341,0,11.36666666666663,23.253069552686135,160.12238747318125,18.94710599757923,29.548367266971244,44.260010230247005,46.36296953288679,31.57850999596519,103.24235814656885,73.71325862680574,62.10440299206505,63.1570199919305,69.47272199112354,34.73636099556188,36.84159499529267,3.1578509995964623,15.789254997982653,18.947105997579115,21.052339997310128,22.104956997175577,56.8413179927374,63.15701999193044,78.00737141991773,399.9999999999999,391.5961602204127,381.0996904289484,364.35756248470636
132,9,342,0,11.399999999999965,22.773637692382863,160.8754644344243,18.556454507237127,28.865595900146594,45.40705768297039,47.422050407383836,32.989252457310535,103.11203015046502,74.25444901093101,62.87835975205883,63.453161927852534,68.55140731315475,33.01363800972558,37.07474033870392,3.9486410337143525,14.332567296425168,18.670649151262065,20.6182827858191,21.64879933832316,58.342420843076866,61.20393602257218,70.22334075232831,399.9999999999999,389.69099918597124,377.3202083490321,362.9344904020631
133,9,343,0,11.433333333333296,25.4848562514123,162.97670525442066,19.047619047619037,31.74603174603169,44.44444444444457,46.60892178951376,33.9285069669447,110.13428005297504,78.42119497840802,65.60846560846562,69.84126984126976,71.95767195767189,37.03703703703695,39.153439153439194,5.291005291005376,17.989417989417916,21.164021164021165,23.376425433200552,23.280423280423292,57.142857142857224,61.375661375661366,72.0820586917519,400.0,389.4237404682304,378.85962504902466,362.00376132857434
134,9,344,0,11.46666666666663,27.65957446808513,163.88504180129092,19.14893617021274,29.863125207698374,44.6808510638298,48.98240184349489,31.98573697526148,108.59404387382851,78.75215116307122,64.87980301820528,65.47503056883124,70.70543436475509,36.188568636447826,40.393154738740236,8.352182332716438,16.900663112979828,21.276595744680865,23.50076812167506,23.416505129935956,58.06634722593628,61.06781381100666,70.24499582646477,399.99999999999994,391.4951433430612,378.7293807800006,361.7584436759515
135,9,345,0,11.499999999999964,29.785548624607372,159.62216335620178,19.147852687247564,27.73971717626002,44.728949947982585,46.85419033769519,34.107047798318845,110.71383593919789,83.00129997305021,68.0812539991025,70.20879318657444,74.46387156151832,38.29570537449513,38.29570537449513,8.510156749887756,19.147852687247564,21.275391874719617,25.618964346030435,24.46670065592741,57.44355806174275,63.826175624158566,72.36761295167017,399.99999999999994,389.3629224074958,378.7975830401421,364.0330836641596
136,9,346,0,11.533333333333296,27.65331593774859,163.80652974017974,19.144603341518387,27.65331593774859,46.846239291394866,46.797919279266864,34.29971702850172,108.5694723057181,80.94464898370387,66.97976542578715,69.70477138551325,72.80108300718837,37.243845888359374,37.20608599053401,7.287660280283944,17.948538099628422,21.27178149057585,23.49545060421324,23.411136651689162,58.0495495901024,63.18489569434399,70.32568063990594,400.0,391.4527993483338,380.77083047335225,363.75368325482
137,9,347,0,11.56666666666663,31.734928551158745,165.03518984407057,19.04095713069518,27.584856338619733,44.42889997162209,48.66022377844332,33.91664044996976,112.1300808807608,84.65291777935455,68.6880935668238,69.97496009441602,71.83518299568789,37.11526925619705,41.19247013569668,13.136231583638505,19.634270485341517,19.040957130695237,23.272280937516353,23.265527518645854,57.53949741194151,60.90318813752884,71.963610665399,400.00000000000017,389.4254907360359,376.6828927340733,363.8999975146006
138,9,348,0,11.599999999999962,34.09161997991177,168.01302810934473,19.256972190706392,27.645498745807867,44.65811335861282,48.91126701181403,31.96945970566675,112.7286320701689,85.08965112218382,67.96915000662307,67.24809258053392,71.1190324469078,37.3811349841003,43.37729673789511,12.789281715372454,17.41922939868232,15.03716894803465,17.14501049761289,17.039725490214323,56.77378470681646,60.037518319641435,70.30580058844437,399.99999999999994,391.4345779690998,378.5844330913306,363.65085535643914
139,9,349,0,11.633333333333296,35.96625235797992,167.19084285090295,19.040957130695116,27.503604744337515,46.54456187503286,48.6602237784434,29.694729869792642,112.15003817928687,84.65291777935455,66.52344030619872,66.86732942897629,68.67593148210301,38.248112433374445,44.208857228185934,13.768301545280565,18.378963117335843,14.809633323874026,17.057011573552046,16.990669992048424,58.63946375066803,61.79814902655107,74.16896305630964,400.0,389.4887021637309,378.7980236311645,361.80292922070424
140,9,350,0,11.666666666666629,35.765209127877775,166.2562837882656,16.8306866484131,25.246029972619596,46.28438828313583,50.49205994523897,31.62758757963959,109.41969053541143,84.17972708218265,66.10561575264455,61.500019669232984,73.29322789324908,35.968084145548346,41.792631995495185,11.216758127526532,18.098131154371004,6.652913049196313,6.31150749315493,6.352960438395712,57.248700207622164,62.35268543695719,71.80832725164599,399.9999999999999,389.300594798847,378.7138248215367,364.0183187119191
141,9,351,0,11.699999999999962,27.488613365315413,162.8309014686808,16.916069763271125,27.56982067182305,48.63370056940435,48.63370056940435,31.788036288560672,103.61092730003506,76.15167644841905,62.17898700060243,65.65683685281363,72.15296354105055,37.34341278811655,34.561132906347666,3.6579527909864282,19.109542848666933,8.718342800535394,8.458034881635498,8.446206783941193,60.489745643814274,64.09180441931869,74.12853580878348,400.0000000000001,389.27640371001013,378.5915523413875,363.70164668606003
142,9,352,0,11.733333333333295,23.495840506076792,158.12064584033587,19.223869504972004,23.495840506076895,44.90652351149067,44.90652351149067,29.90379700773401,96.11934752485969,72.6235070187828,60.82404496705715,58.99116352945339,69.76248047098795,34.49834377078912,31.66114373723815,2.9501858755952526,14.32409397469803,6.754579230840634,6.407956501657331,7.513558495930624,59.882496283356545,66.1218255606791,72.65491178004255,399.99999999999994,386.99082414518347,378.2865900967886,363.1426634656338
143,9,353,0,11.766666666666628,15.027506919812705,163.16991240058658,19.321080325473574,25.850735122625796,42.93573405660766,45.082520759438026,30.13158724739744,90.1650415188764,64.43937092998262,56.6073339546607,61.37076910153041,70.45452914904922,36.076559213113796,24.038730857458745,5.428100516200288,15.324229348456697,9.600722001442836,10.733933514151964,10.708497616993839,63.06935837870867,65.58031644062464,73.11692041546365,400.0000000000002,391.3045120246614,380.27828439271485,365.0547507589049
144,9,354,0,11.799999999999962,19.009341954834554,162.6354811691402,16.89719284874186,23.233640167020067,44.40539201600177,46.51525895325802,31.682236591391003,90.82241156198748,67.58877139496742,57.96288617144535,60.70294988136823,71.20446102301821,34.33758572231386,24.679171106794115,4.22168186981321,16.111822583912954,8.708613861474259,10.560745530463635,10.60689820741635,61.62043727745095,67.2245494805511,72.09207675618099,400.00000000000006,389.3292999223879,376.4428073823297,363.51061790466275
145,9,355,0,11.833333333333297,15.011301023802886,169.42682647274978,19.30024417346091,25.733658897947734,42.88943149657963,45.03390307140853,30.022602047605645,90.06780614281718,64.33414724486944,56.695361100727496,59.04875344830475,68.4989990829921,33.821610023754715,26.08292246003282,3.343650945778677,13.099531950281175,6.781414553947802,8.57788629931595,7.56141904922913,65.10033377064656,67.6921217066797,73.03806999701867,399.99999999999983,391.1412689771812,382.3178454212795,364.78715874983726
146,9,356,0,11.866666666666628,14.863369319245521,165.67483661626744,19.227647662306104,27.603400164313083,44.59010795773669,44.59010795773668,29.726738638491042,91.32824103452266,63.735533375094235,56.24679698211571,57.555695987437616,67.30968309558898,32.81212574984761,28.72405762363701,2.868819737691638,13.91377572780425,6.714585821868836,8.493353896711684,8.552668842993057,63.9746801505226,60.85483868578291,72.22472693783202,399.9999999999999,387.03049744342826,376.21459448045107,363.24606072358085
147,9,357,0,11.89999999999996,23.39378680252963,169.490856351903,19.179069747629477,25.503783525085556,46.59542670038622,48.75942181420423,29.651635172972835,97.44982001922126,72.01111399150572,60.23217150174878,56.976378447600155,67.22609732177159,32.5579305414858,35.15050649201169,5.366029292948724,13.686389320217131,5.990534944022434,4.73593370648517,5.4564679888971455,66.20112543435448,65.17615354693748,74.15933853068496,400.00000000000006,389.2580278795803,378.16363922049015,367.2899029747266
148,9,358,0,11.933333333333294,26.428737053483243,172.13937689004464,19.943532727821328,30.912083445289095,46.30269812085559,48.65249033067276,28.631131807940335,105.80667486738473,74.91380280835841,61.63277420227189,61.70716499792945,65.24072779166261,34.94507626012944,42.23537423456821,9.280251758277927,15.157124615223893,9.080706201932266,8.809579017827785,8.871102382161553,64.16206125462821,61.66996960010056,70.78566636019349,400.00000000000006,391.22119436300227,382.25985594303734,368.7482369211576
149,9,359,0,11.966666666666628,26.45119955867646,176.56161945944052,19.838399669007345,30.85973281845588,48.54393697659857,50.746028702668085,28.74012063056963,105.82775685453427,74.97747409470132,61.72720921463099,60.60896267088765,63.74005299336898,33.43557165792515,43.53706543640658,10.958816128684589,14.20173110553992,9.088424142059429,9.08842414205954,7.920913018181864,62.137232947337,59.11796727922996,63.96172557313749,400.00000000000017,393.40447593848,384.45342194748406,370.97224548984514
150,9,360,0,11.99999999999996,28.40398736428856,176.94084303158542,19.60637746686513,30.498809392901393,50.29426370844151,52.46489969216855,28.403987364288444,106.83471368395479,76.37140696376768,62.11341466559486,59.88957823851183,63.84443415592841,33.46843021701659,44.80321976226048,11.93233008105301,15.776302187701049,7.85464436476498,4.356972770414471,4.441512642457042,64.47277575028437,57.376211861088166,69.84758702051363,399.99999999999994,393.14889754969346,386.477238181856,368.6858927818299
151,9,361,0,12.033333333333294,29.996747977838364,176.33425059520835,17.27439384343481,30.073172937314332,47.18641771481034,51.60123969019122,29.996747977838478,107.21691351761729,77.16424774043321,61.99269314260857,59.62655981655473,64.12221313605698,32.061106568028436,45.07483986132411,12.422199961782212,14.315106622625194,8.834268595547254,8.834268595547197,8.754693306398906,65.06866646647853,60.57301314697628,73.35165962941173,399.9999999999999,388.81409835018036,381.87442045046174,366.69570606568374
152,9,362,0,12.066666666666627,27.840945487973926,174.11707283409848,19.393114154114695,27.923193659740573,47.30973753453846,49.442933750581695,29.98255667935628,105.02632470294158,77.12774175409642,62.989833355877636,59.22305934403835,64.77409472990678,32.22484178549621,42.714135923728236,12.039258564156398,14.310136676557022,8.83008915107541,10.92011725538855,9.6962890831079,63.65667851586829,66.3240591558311,75.71738980458146,399.99999999999983,390.76629127378965,381.80789432230694,368.58117887859447
153,9,363,0,12.09999999999996,29.651635172973045,172.61162772866473,19.06176546833968,29.727180862731124,46.64353763390494,51.226955447790594,27.533661232046335,105.91987466819077,76.24706187335906,60.845182375000945,56.72131151248607,61.27927404473951,31.724866196715766,46.19458852132948,11.25020910738715,11.75664938874877,9.471867412970143,8.471895763706542,8.681833394768319,63.01564072369314,61.06222820987023,76.71627899051765,400.00000000000006,391.0000176392282,379.8325123890243,364.78988592406273
154,9,364,0,12.133333333333294,25.492635832886744,170.7985462500269,19.119476874664965,31.93652916180955,49.04526670094758,53.15212873006059,29.741408471701092,106.24055770959367,74.3535211792528,60.915172579960085,56.1035089880387,64.70099926395915,30.99492943222515,44.94142644231215,9.623327183842889,12.481015713055285,9.50054444133029,8.759069184533095,8.719613717339882,66.60612495010065,72.34592669680922,84.17503820915539,400.0000000000001,390.638773979365,381.2666850248835,365.7894680771155
155,9,365,0,12.166666666666629,34.056503478186556,170.7985462500271,19.11947687466506,29.817182883610123,49.0452667009475,51.161997574069034,29.74140847170108,112.67261193155974,82.87829770378197,65.35782917966208,61.12602729033142,68.05529354186706,35.14127884707318,47.490221202488215,14.18024843617809,14.749438163982859,13.435798798857569,12.92213750356841,13.066616360038438,63.229554545261976,65.08560800549463,77.21201827582088,400.0000000000001,390.63877397936506,381.42644975825164,363.8906960410985
156,9,366,0,12.19999999999996,40.151549461924446,165.69737868106148,17.037481092399585,27.55327134997802,50.89354529798105,52.99977565722716,31.768954900632174,116.40094249081406,88.8566301729331,68.6016640647797,61.76191482022591,67.91258484984337,33.15236667416252,51.144990619724126,18.324402826827395,16.78035495632173,13.36529977732521,17.42621889091854,17.182317831701198,62.80829436883289,69.03552875566567,86.20359335045829,400.00000000000006,390.9036030583518,379.5956904969176,364.09098014375274
157,9,367,0,12.233333333333292,36.091669366593045,166.0862807593924,19.224939199577456,29.79827761101342,48.87603685264722,53.24555662969164,29.722551243076747,114.72273036432573,84.94810882713439,66.52844259714925,59.71693937558496,69.96286751428943,35.40197558373325,49.29259955287307,14.234703645439367,14.769938697461043,17.507031176862604,17.50703117686263,18.45923744889774,63.3106604391603,70.03932966457853,86.21213029626563,399.9999999999998,392.7163780466984,385.5874375307372,370.018417023858
158,9,368,0,12.266666666666628,29.776704871683656,170.8027226817237,19.259966482696463,27.97510030545529,46.840278662338676,49.10347246320576,29.85256921087225,106.68513698736767,78.81046127629276,63.8193936915643,58.37139666911355,65.70234197121317,32.23607454758803,44.51289733089823,11.39811358614088,12.05086898975253,17.147676397895133,19.25996648269635,18.201833369938697,64.42193714105196,68.71505921865116,79.7235745671768,400.00000000000017,390.899906446602,381.5709976517807,366.22357836435907
159,9,369,0,12.29999999999996,32.16230259589881,169.67514804153672,17.115236358763134,27.894422508915195,49.39198935928014,51.52368433810797,30.0279737225393,107.16260067076283,79.27352729840864,63.002357776439226,58.8338182563657,65.67321842702518,32.27497963745475,44.65579162521783,11.656933867510816,14.128104002164946,17.24843086842495,17.248430868424894,17.248268313597237,60.40638106932761,67.17089729651263,84.41842016247674,399.99999999999994,393.1967140250925,383.8129914325045,368.28219639587076
160,9,370,0,12.333333333333291,25.686451962717488,169.58949155886285,17.257566363559683,30.04387780157956,47.14045207910312,49.41814943621305,29.96752728983701,102.83495824321764,72.80975225139493,59.767845553753546,55.16253315291385,62.39945263994764,29.023589691005668,43.75046780797618,10.95659488771173,11.108418373453787,17.257566363559796,19.734782151699246,18.57307308910032,63.66464835446391,68.6242155553681,82.34812811409014,399.99999999999994,390.8987500115545,381.7425531184563,364.29410471597447
161,9,371,0,12.366666666666626,27.8269896262772,169.31909997815148,14.983763644918504,30.043877801579484,49.2323662618751,53.55623523165041,29.967527289837008,102.76810269931497,72.7782805610327,58.49190299743486,51.37665419125335,61.87227920962414,26.84677062901733,45.71104237494342,13.046732908843524,9.071309198628,17.25756636355973,19.7347821516993,19.623906849788682,62.83448367451706,67.15174318147058,84.81500656083932,400.00000000000006,395.16551551296834,390.28875849264114,372.67492260433147
162,9,372,0,12.39999999999996,29.862950619573557,170.97839912526746,17.197343215693845,29.93903469350793,49.10691087969942,51.23804927716865,29.86295061957367,106.73868368415131,76.82006468072987,61.76184997614973,54.28964567850653,60.75718385209689,27.810414146438234,49.021427690504424,16.746528455306134,10.392015220671738,19.197611112583086,19.665914347364406,19.52819778627753,63.52001569324233,66.15726426888108,77.26300549183387,399.9999999999999,393.1852303147889,384.3312472425259,367.04266577403104
163,9,373,0,12.433333333333293,36.470170682809474,171.8387291265973,15.16959117696784,27.88895405156022,47.196691471871176,51.5319742425708,32.17956236718474,111.57644222401997,83.69436153493149,65.40358388396191,56.271762737899394,60.87880764041756,26.4905081894791,52.816479061010796,21.06077669722538,9.543164440930468,19.4265553874381,21.56003995548727,20.567164743384183,61.70149423015289,67.13122572240627,77.97228890384665,399.99999999999983,391.2931280964417,382.3519454787951,367.00379796063714
164,9,374,0,12.466666666666626,36.27608354794594,170.9242369273467,14.937210872683663,27.822486013776565,49.125774104543254,49.12577410454325,32.00830901289336,110.98265416149971,83.22160343352296,64.88725874112492,55.89973325926303,60.6387261426828,26.357463106977093,52.523837791235565,20.752202707233323,11.605436873105873,19.323171048817645,21.761465633846804,21.605730995376007,61.30116600810709,66.51151033423258,77.55733559080306,399.9999999999999,391.0839646745686,380.12552935301744,364.9508733548035
165,9,375,0,12.49999999999996,36.09675406102487,169.98647376305703,14.8633693192454,27.68494657584006,48.88292264421039,50.960123380270176,31.85007711266892,110.43401548605884,82.81020049293919,64.59917884102379,54.0404809705102,59.71773929139158,25.10902217634907,53.40758572723303,21.950812249501155,8.478289744097992,21.233384741779282,23.7396458375127,22.539843466016464,62.587699899519464,66.91143968032333,79.0212901195309,400.00000000000006,391.27084796248755,380.2910470058722,363.14675211377636
166,9,376,0,12.533333333333292,31.86984024237995,163.61230913016675,17.129524428744414,27.620528210062606,46.742432355490536,48.86708837164932,31.940583593006195,108.35745682409187,80.73692861402927,64.66677481358681,54.5645399825346,63.00801279811776,27.120135358176412,49.34505198649106,15.89542999034063,10.76948120569557,23.467592735811305,21.352528700060777,23.528229640468908,63.96834870181033,65.3652009253633,81.18299238768448,400.0000000000001,391.4040828570805,380.52701947348453,365.4964174829456
167,9,377,0,12.566666666666626,21.25735831240679,161.55592317429176,17.0058866499254,29.76030163736966,42.56782684742598,46.76618828729518,34.01177329985092,102.03531989955277,72.27501826218311,61.578986740231244,53.85522595127702,61.405140034370675,23.655569618903087,44.293657128938435,11.449047343112284,5.674853184167318,23.38309414364748,23.76644910430595,24.617935312060695,60.17579547149853,67.32834565548171,81.02930243802183,400.00000000000017,391.41833695573905,380.53046428919004,363.5008271421568
168,9,378,0,12.59999999999996,19.151705172511726,160.73635421433715,16.91961623308821,29.6093284079043,42.351881378566375,44.413992611856116,33.90526029962697,99.40274536939272,69.79341696148842,60.161907979954094,53.504546990747144,60.972582934359366,23.534139585461844,42.056833998236584,7.173245051101048,5.650158773127487,21.1495202913602,21.255004837454106,21.224944260792256,61.95521924272947,64.90312816783933,78.70918363496061,400.00000000000006,391.4090014677348,378.6295786672864,361.6567969822585
169,9,379,0,12.633333333333292,19.15518630266764,160.77948671442994,16.922691645212588,29.614710379121963,44.47240220304026,46.58545304593646,33.91142312549558,99.4208134156239,69.80610303650194,60.171794190629726,53.49290421013154,63.1189084558448,24.59635616314779,41.006283811809226,8.223499134174858,6.604748741121512,23.26870101216727,23.364654825488984,23.391561023279905,59.88140766973845,64.88594132765087,82.93090177235092,399.99999999999994,389.31386812654506,378.66885986822456,361.72871905785337
170,9,380,0,12.666666666666623,16.79067782032874,162.44492682735586,16.661018136139056,31.239409005260743,43.784730892507845,45.81779987438255,35.404663539295605,99.98780049742325,68.75824752946727,60.3404300005019,53.96810297306945,58.688345215612,20.938510460509065,43.53515729852677,9.622032263644428,3.67936831213558,20.82627267017385,23.00337002844505,21.918868464729485,57.2117566166628,63.6506511629002,79.57707613787709,400.00000000000006,389.54038509678384,376.9612884002424,360.29451719400754
171,9,381,0,12.699999999999958,21.047967726081414,162.12401231919048,16.838374180865,29.46715481651381,46.35334060433069,46.305528997379035,33.74245915272438,101.05216767307668,71.5940364713202,60.97270585346098,52.8776693881415,60.898439463871,23.270135404893836,44.0647244901179,9.852674352284794,7.99601461253269,23.152764498689404,23.248240221267384,24.247976201163112,61.393548727804955,64.90882450173558,82.32957709469822,399.99999999999983,391.5431188962895,380.97403015342866,366.24068665046144
172,9,382,0,12.733333333333292,23.404255319148987,170.26594913823448,15.044825131628631,29.78723404255322,44.73148093963525,48.93617021276582,36.23273694877956,104.34212625735513,74.58956656577915,62.712237529861,54.32586730397429,60.55998322410255,21.299896060438073,46.75586940096139,14.595747590776227,6.1599002544124914,23.404255319148984,23.500768121674977,23.42741181095795,62.91014597176985,66.86831480994647,76.71385692476579,400.00000000000006,391.49514334306116,380.87483582056194,363.92931325053485
173,9,383,0,12.766666666666625,23.402931062191502,170.32276703368947,17.020313499775536,29.86143549568703,46.854190337695194,48.97963032671105,34.305538598009036,104.44462368208056,74.58534614726406,62.78595295295952,51.55199584346417,56.95069006466679,20.186689212081774,50.033228790346925,16.116147555548537,5.429438493532871,21.38150421315368,25.6189643460304,24.453994211528823,61.08272026586053,66.55520074065566,78.74769521765995,399.9999999999999,395.77375824489434,383.05159937131333,366.09132526750886
174,9,384,0,12.799999999999958,23.402931062191502,170.32276703368947,17.020313499775536,29.86143549568703,46.854190337695194,48.97963032671105,34.305538598009036,104.44462368208056,74.58534614726406,62.78595295295952,51.55199584346417,56.95069006466679,20.186689212081774,50.033228790346925,16.116147555548537,5.429438493532871,21.38150421315368,25.6189643460304,24.453994211528823,61.08272026586053,66.55520074065566,78.74769521765995,399.9999999999999,395.77375824489434,383.05159937131333,366.09132526750886
175,9,385,0,12.833333333333291,23.771285005970057,173.09804046610304,15.280760750217835,30.331444038740866,47.73862267879816,49.750552564943796,34.64388079303088,103.93164237909288,73.60189032385779,61.67230206627369,51.677093054123475,56.34566272936388,19.394430406184824,49.83946456493311,15.768839062646975,4.817566579769391,21.61025909633644,23.771285005970057,22.659945897110845,64.54049247845603,69.4573903279113,82.11898456607851,399.99999999999983,393.52038535087263,382.8005941904778,365.5265292945344
176,9,386,0,12.866666666666625,23.137394217399002,166.50104221249637,16.958148709514948,29.522618475655374,46.46561311420979,48.56074775745299,33.91629741902965,103.40941618334877,73.88892377127891,62.21054196892044,55.127225381833455,60.69626404129224,24.147101333540945,45.359507013951315,12.34574525293499,7.953087793451687,16.827195794472033,18.930595268781026,18.922216748543065,64.0877460114346,68.24262429219931,82.05954172704463,400.0000000000003,391.43580408294554,378.89809325230914,362.17582830031824
177,9,387,0,12.899999999999958,21.042246044210323,165.739720767655,14.656472165676947,31.476441418284885,44.16837414886492,48.338705071389235,35.83977031306663,102.93657946657649,71.46515997750353,60.74958000677293,50.75783201544789,60.2478245279774,19.884383789307776,47.14023695845242,11.682849790228829,5.35205844048653,10.468908689769222,14.656472165676892,14.650021078415193,64.31142445501348,61.35044767891094,75.37614256633846,399.9999999999999,391.5595777445981,381.12004212024885,364.4142755159259
178,9,388,0,12.933333333333293,17.047714314961492,167.52728293253332,14.951834550792064,29.678544175059816,42.34300412822363,46.567224068139865,38.586163243475944,100.18844895444923,70.5751932434856,61.47997748267824,54.46817010063705,64.1883740896576,21.160521296561228,40.263161568419946,6.8116487413407185,6.6990595059464795,19.14769084125261,19.030578483679903,20.084668602795773,63.738017148081326,61.11093498888664,76.12231393471961,400.00000000000006,391.4640426508631,383.0997317919862,366.1093397111372
179,9,389,0,12.966666666666624,19.498894257661306,165.45360426278071,14.804664203952141,29.609328407904286,42.51000967490845,44.61496193059243,38.59425286862018,102.06698015145703,72.68176582218179,62.48628785286644,53.91510482865283,64.66329370081621,21.148056808654815,42.345873750977034,8.75778352546638,6.56833764409987,14.954969216863274,19.034568262224077,19.033251127789242,62.225047151112506,62.598248153618044,78.25322507803247,400.0000000000001,391.5461134528376,378.9543165824504,364.26940602765194
180,9,390,0,12.999999999999956,8.668224820974682,168.5164385312263,16.818826599284414,29.432946548747584,44.19944751035913,46.44250291864196,38.36434809064125,92.88500583728391,63.62875752779081,59.0226918765278,52.56901672790025,59.121598775357256,17.865058601085593,36.83045645164975,3.7460987931688123,1.5454202942115671,12.614119949463227,14.716473274373794,15.763287000957916,62.731700582635426,61.37173072372923,73.58236637186896,400.0,393.499668297543,382.99777129596913,368.2960615459747
181,9,391,0,13.03333333333329,2.097837980893786,162.1996449817778,18.9967308744065,29.44455919578186,42.166021562493036,44.25394068742277,40.07913834951375,90.59648791184227,61.16196174885694,60.06724757604843,55.704551343316325,60.10960385015255,17.86224587936897,32.6506364380333,0.4840717040478921,0.2178322668214605,12.760650264817533,12.760650264817476,12.694780438657176,60.47265762818864,63.44969860808334,81.84257219437127,399.99999999999994,391.3016158418692,382.9344515015212,364.1124020775491
182,9,392,0,13.066666666666624,3.016613555619961,168.997680824285,17.197343215693845,27.811802786510377,42.874134200912614,44.997116674614496,42.874134200912955,90.22145999795858,62.44462924769879,61.18345401656836,60.12620791138261,60.113769721909875,17.257987893471864,30.01957029253674,0.42911753681062237,1.6978128630333913,17.197343215693905,17.064543211184947,17.015443198752905,60.1386461008554,65.67364041623921,78.9235123517304,399.9999999999999,395.5906551524025,382.82478110006673,367.93411832456025
183,9,393,0,13.099999999999955,2.1068687250668483,164.99620629778738,18.961818525599,27.47020731980043,42.34753727389705,42.34753727389705,42.608783041615034,89.11332465082431,61.67765982701287,61.49940111676051,61.896973002767936,63.02756805360127,19.94692696827451,26.593831937459868,1.2362000830540865,2.789215262770199,21.17376863694847,23.17555597573224,23.096441752738997,58.66670142895828,65.56208882689805,75.84727410239623,399.99999999999983,391.22572375832607,378.6330921210676,363.9459457226614
184,9,394,0,13.13333333333329,0.0,162.32935748914562,16.905639711167467,27.580236276551982,42.146897729379084,42.14689772937863,42.14689772937886,86.60928319392252,59.04886094866186,59.03242553053212,57.291056045855726,60.599658066741085,16.804215527127894,27.600706332121945,0.2612054227014369,1.654301010442623,21.07344886468943,23.160868787127313,23.073145671963232,58.51001468512925,63.38584924222346,77.613132913287,399.99999999999994,391.28711815984366,380.67010056804725,366.03735685819754
185,9,395,0,13.166666666666623,2.1179739409268925,163.96182784832808,19.06176546833974,25.503783525085556,40.463835325784004,42.57074935017604,42.833372133276306,87.4802722117508,62.00276016097019,61.82130360085182,60.03134972263217,63.61125747907124,19.08461169467182,25.59016820378713,2.4071793534676544,1.6418197641598908,21.285374675087965,23.297713350192996,22.164566816160004,59.08082249075011,61.759581053326826,78.39365185899108,399.99999999999994,391.366970840925,380.62885112102066,363.75547306571787
186,9,396,0,13.199999999999957,2.200261296544276,165.73679076296065,19.802351668899316,26.4946545003952,42.035933047465186,44.22470472847436,44.497530911120045,90.87904881136966,64.41168648251599,64.2446676598812,63.23730321205869,63.46396021281873,18.925859563465565,27.48845736995702,1.3725340601581593,1.0199565034203033,22.438350572165362,24.20287426198798,24.10119441415378,64.82390221737916,67.04010400258875,79.23995996763993,399.99999999999983,397.4198175059273,388.30092670801,372.78036997138946
187,9,397,0,13.23333333333329,2.212377198109309,164.66983719428774,17.83675520761513,26.640549274995493,39.88419714225061,42.555925094915224,46.67014812155129,91.37948101523315,64.76637419814038,64.6078448320485,63.86755320092993,65.56326394571397,18.04539941837254,26.637844162464376,0.2657457137347592,2.1512748254721146,24.436504859309515,24.33614917920135,25.321770151587145,64.53824476416543,68.00559360051471,81.88784786155752,400.00000000000017,395.0193136934303,385.72211151228083,370.12878775697277
188,9,398,0,13.266666666666625,3.0913618105636056,162.48040049041904,19.794373735893664,26.321997334478137,39.588747471787556,39.5887474717871,43.936506511666934,88.11736916236296,61.827236211270645,62.74752035388451,62.89130763774813,62.391177954744194,18.704850144348143,25.444097622826575,1.1377950288339207,0.8252139769565474,24.439360982606843,24.144307579063984,24.143760447016234,63.97908969828177,67.40497802685888,78.8145709781949,399.9999999999997,397.3933282894559,385.93767257632805,370.5123193988835
189,9,399,0,13.299999999999956,3.091361810563637,162.70081262045244,19.794373735893643,28.500947646067964,39.588747471787286,39.588747471787286,43.93650651166693,90.28681919732516,61.82723621127064,62.748381291738724,62.937003680391285,64.5214317450725,19.792775982604553,26.532882670454683,2.2131693601895677,1.9239483642556934,24.144307579063998,24.14430757906405,24.14366574752279,66.09328498384355,69.42561385003802,78.81457097819495,399.9999999999999,397.19488267668834,386.11715401205413,372.6918413392841
190,9,400,0,13.33333333333329,2.1859228993505466,158.61126449225335,19.673306094155418,26.32199733447817,39.588747471787286,41.76199835371215,44.20755477358234,90.28681919732529,63.991936180059966,63.836103732968354,62.937003680391285,67.12442070847737,20.88049842383407,25.231388188752362,1.3392189594328556,1.0499979634989813,26.592899812581358,26.231074792207174,25.017616148279387,63.9178401013844,67.25016896757887,78.9659920034343,399.9999999999999,397.1948826766885,385.9376725763282,368.021397667862
191,9,401,0,13.366666666666625,2.1728543429673044,159.56800840107127,17.518111762510248,23.999960655834496,39.17168873841175,39.65087094358736,45.83641257896529,87.59055881255183,63.60935991156064,63.46267604244554,63.1214788594217,63.803873225469374,17.628521122901475,24.11126760035563,2.1609154924846052,2.160915492484719,26.164631076777443,26.07425211560485,26.04471830415787,62.78028167639769,67.78450702741492,76.32875774409374,400.0,395.0175093075814,383.80874972233454,368.1369331621422
192,9,402,0,13.399999999999956,2.2208175195831945,163.34712964453436,17.766540156666345,24.829494697053494,38.01427262751982,40.220715922699306,49.31015123133384,92.02334644930933,67.21413465219851,67.0761100682987,67.65283923897937,69.20750048168384,19.132363357798795,23.545595272572996,1.1785335226952611,1.278834248031103,26.742184204301026,26.64981023499946,26.479391488644353,63.23960732420528,69.65885374569484,77.85541361748105,400.0,396.8992979861526,385.45741329692044,371.68020266435855
193,9,403,0,13.43333333333329,2.1859228993505444,158.35498988714946,17.6234738324726,24.439360982606885,39.588747471787244,39.58874747178747,48.288615158128174,90.57742858412054,66.15803180616307,66.01287270361456,65.20512293645402,67.03687043993625,17.834097221402317,24.35969770255747,0.22896843793523658,0.012720468774205074,26.592899812581383,26.231074792207167,27.19000200481281,63.79315090251987,69.32655481928873,78.81457097819509,400.00000000000017,395.2170364472709,385.93767257632805,370.5123193988831
194,9,404,0,13.466666666666622,2.1833163425739137,158.4221318991304,17.602459099903392,24.41021879190747,39.54154072079272,39.54154072079249,48.231034436907535,90.46942147629402,66.0791430831492,65.93956024726515,65.59672024597944,68.6822802575499,18.913340070922573,23.25598008720715,3.371260012641642,1.1999400044994672,24.41021879190747,26.19979611088703,26.055840097706152,62.85400023569463,70.05364026269245,78.72059023708763,400.00000000000006,394.9570383197112,385.65673691102853,370.2443623197852
195,9,405,0,13.499999999999956,2.2099447513813004,162.54740816294597,20.011900857762217,26.88513825546178,40.023801715524435,40.023801715524435,44.41933976186031,91.57281482917412,64.69516538477093,64.54931222236087,66.95452375847037,69.21453879764931,23.66702899967038,23.42713913517673,3.453151470477337,5.814172768390563,26.88513825546186,28.729281767955808,28.559519657111025,63.17941483827758,68.87364267442126,77.4742459357264,399.99999999999994,397.3601114208725,385.9565854893585,370.0123373050469
196,9,406,0,13.533333333333289,3.1082555139232553,165.7752462844177,17.719782759521074,24.276251620254513,39.80509243467306,39.805092434673064,46.364087887212754,90.78021946370741,66.51957284622492,65.27787676311823,68.0373363585934,69.50821003818601,22.408823366443585,21.98138998946797,2.558314476898431,4.431478393644625,26.73822494384679,26.374422618667595,26.249437974268744,64.11500654634625,67.34590001348568,77.20746527168176,400.00000000000017,397.1761928978355,388.0467484320173,370.0325644944039
197,9,407,0,13.566666666666622,3.1287738386509805,166.86956762313952,17.83675520761506,26.64054927499556,40.06785519942472,40.06785519942449,46.93160757976551,93.86321515953102,67.28682561772435,65.95841970535571,69.65349885805665,69.33929144711283,22.591512846870614,24.313369458843454,2.3691238785174846,4.945624648257876,24.436504859309544,26.640549274995678,26.512821335451235,63.31907745342653,68.88683277535347,77.55952045488027,399.9999999999999,395.19893973031276,385.86801293373213,370.1287877569727
198,9,408,0,13.599999999999955,7.658287838733501,166.77331049334143,16.992215067579064,25.57667060492916,38.46776294674761,40.85647286042535,42.692411989126526,91.94853254844222,66.39070663105083,62.96153750965016,64.10719349856379,70.60956532753312,24.678049274707973,24.517038162752556,3.8456884817047694,6.904899608858045,21.34620599456332,25.48832260136867,25.334479192680135,62.162674684948115,65.39528239420724,74.46221496688969,400.0000000000002,397.7605433928354,389.16670729644164,374.21471892202226
199,9,409,0,13.633333333333288,12.969598699439532,165.29621629155528,17.19025641491761,23.838596516291943,38.61558320763639,40.73541158366236,40.735411583662476,94.6845526824676,70.87724293015685,64.36024478433785,62.692240744044966,68.49936592136089,24.871793578589404,28.949136788194096,4.831033924107487,6.956194627295531,23.550796068366182,25.586266703336957,25.50192843825556,63.95251046337734,64.07606631821386,79.1498844657719,399.9999999999998,399.6816372434787,388.90096687843806,373.7417564233389
200,9,410,0,13.666666666666622,16.870871021319076,169.55015538422927,17.002163826521787,25.655375525493497,44.48642675949809,48.686787871330175,42.38753884605743,101.77292640380873,76.18207088618237,67.77872935563994,67.06605870939916,68.8664898156918,25.58112530190715,33.7955922243674,8.364502847984454,10.465005805325632,23.577759027062974,25.306306531978592,26.25628696676705,60.31444206080204,61.889819278808034,71.82514523793854,399.9999999999999,395.308395107421,384.6456848323671,367.6739662068073
201,9,411,0,13.699999999999957,25.65537552549342,171.86876405312188,16.870871021319108,25.39402362872747,42.64903138707308,44.48642675949783,40.28969228668403,108.06744385460935,82.6769509730343,69.86880332611827,68.70684925778801,69.16152693669994,28.64469377144553,39.12754025746824,12.04895849116349,11.821619651707692,23.577759027063014,25.306306531978517,26.207116215056942,60.37109181107121,64.00851324236572,80.38598272000777,400.00000000000017,393.52120356419533,382.8435672529498,365.8611853999255
202,9,412,0,13.733333333333288,33.867167412359194,172.85531520142155,14.70246792448092,25.291594007756853,42.47700177161659,46.398304591287896,38.3278375688331,112.02974203629866,86.75244307541297,69.75738821843152,63.95802012386673,65.08743754272086,26.338268009342414,47.441876633546826,19.777494913302803,11.072097729776601,23.199152295643948,25.20423072768161,25.126365048661967,61.34386295213733,60.92509020132621,75.72928853940084,399.9999999999999,395.66985408735735,387.1548602631256,370.38334316472196
203,9,413,0,13.76666666666662,27.993550877432046,189.3728305895996,16.27092094778234,27.708379934922924,46.250647318615634,50.83198202364749,41.67389131443938,113.59387047791297,85.91292785997202,71.87030851625673,66.77166248034894,65.92188814103099,24.682081946554035,47.18822656970269,19.248676322429787,8.201609911296373,25.726584911768768,27.61266849198507,27.501787708836332,63.24381143530161,67.38968018167111,85.26335185006171,400.00000000000006,399.20498132616837,387.26159135865475,370.8199642591759
204,9,414,0,13.799999999999956,27.849231939829433,186.1157360573657,16.18703726917054,27.565531177635666,48.29057426068054,50.56992103417134,41.45904426818203,113.00824463939996,85.47000932743647,71.50117046262119,66.4776690249663,65.74346496869373,24.6602397497187,46.84093071290249,19.05710353079587,10.761885772206824,25.284960517085782,27.47031316883975,27.35876167584354,65.13806864159164,67.09594612498529,84.9780915192553,399.99999999999994,399.42969956493874,389.8354804543067,371.1952714092311
205,9,415,0,13.833333333333288,22.897987580619464,187.7187032259506,13.859178573504733,27.718357147009467,48.33290352296551,52.60175487266657,39.331884994864865,103.76263803700886,76.04649883295512,64.43410857730828,61.06714261701302,63.4528784974508,23.087766584882047,41.25014296498921,13.467863841181156,9.119667801028527,25.1661362717247,27.341219068419452,27.2435645701608,63.41439888647602,66.18493087666184,84.42516094078064,399.9999999999999,394.96523156955794,387.8763606103624,369.5562445912067
206,9,416,0,13.86666666666662,20.90497536134891,184.5581118729212,18.280870640165627,27.30386942078085,50.08989348467321,50.08989348467344,36.911622374584255,103.2629608066229,76.053018984509,65.30995981961712,62.38638722013127,66.14977657065731,27.568721316102483,38.6947146644701,8.81491868009141,11.252281581606667,25.044946742336663,27.303869420780625,27.21511426303283,63.85133072570517,70.05208297774652,81.75453887858069,400.00000000000006,395.0659702158896,383.5298106813004,367.5808499281934
207,9,417,0,13.899999999999954,22.737876549557438,181.47891575026594,15.765880729730645,24.627092971952248,47.29764218919179,51.715933987319886,36.295783150053204,99.33756041301017,74.7841386367596,63.15650748961741,59.709517996551426,61.969211108672425,24.722574641933306,38.24243343140256,11.08781620269508,8.866422973830481,24.525954585815892,26.755586820890073,26.656718746375816,59.671218113295254,64.91830211940658,82.61682545193322,400.0,395.15474636482156,385.9582918060271,372.51543451429626
208,9,418,0,13.933333333333287,22.873307105869817,185.02327169154196,15.85978492493243,24.77377601398069,49.80073483142649,52.0239626501927,36.16587403753166,99.60146966285262,74.860872896559,63.31698495588637,59.65032339770664,65.10560035012065,26.247930910385207,37.06905404550116,9.79266928343145,10.150392362278467,24.77377601398069,24.67203523087582,24.593461670718625,60.72349263424701,66.89421574435454,83.1089049390983,400.0000000000002,392.91956988428393,383.70192277340664,367.94701025843364
209,9,419,0,13.96666666666662,22.873307105869984,184.7920180174676,15.859784924932416,27.008240516717052,49.80073483142649,52.0239626501927,36.51196684218905,102.1448952510354,75.2295653447838,63.49584649530982,61.886092640499214,65.10560035012065,27.1869539923581,38.365800206320955,8.853646201458673,11.268276983674696,24.77377601398069,24.67203523087582,24.593461670718625,62.95926187703964,69.30884652657062,83.1089049390983,399.99999999999994,397.50835344035954,390.67901096495075,372.6543259635265
210,9,420,0,13.999999999999954,24.93581094733154,188.04454049933912,15.963517161464372,27.184890150167313,52.36422968562238,54.36978030033441,36.402419931300024,104.46045542997702,77.28716679405954,64.71143377610508,62.73674770289722,66.68611984931295,28.377210029081425,39.64263221721774,9.666250187866467,11.919334625493775,18.060657978334817,20.318240225626766,20.277759938645488,63.00867168674887,65.55957763049923,79.14427821668573,399.99999999999994,395.392828467129,390.7248148363109,374.9286131735863
211,9,421,0,14.033333333333289,28.11495376828233,173.6151277290932,17.100322821739052,25.739394323231302,47.219809769138394,51.34548124449378,30.229385569326755,101.03129192835299,75.30090796619544,61.17671488619453,62.57624487262274,66.06548401686837,34.2086028189492,36.57310553574541,7.8412022527274985,18.398387355829414,8.550161410869475,13.002150364509689,12.921687819898182,58.511856418886225,63.38145390591012,70.66826079739137,399.9999999999999,395.6528874898579,387.1840313068643,368.0544077463428
212,9,422,0,14.06666666666662,29.538550261600385,173.03318880800214,14.881306636086528,25.341952033574056,46.490688132624705,48.58695340852818,31.84738694717854,101.56423641049557,76.22948416495652,61.28643609046378,64.85596965628736,70.24489511015861,35.833836078779655,33.819284507238876,7.45384081470047,19.893696768964105,10.731062824462429,12.801384008221596,12.704265848028342,60.86463935517247,65.38478944381677,71.55417527999336,399.99999999999983,389.4298911722214,383.11778705030815,362.132859062053
213,9,423,0,14.099999999999952,29.930026825827426,171.63506909446068,16.930979943710202,23.28009742260167,48.860253150623684,48.72255371340954,32.0265272724814,101.9379981519115,78.76204703173126,63.62710875214691,65.69124853323842,69.97433857900353,35.99343743278371,33.92929765169242,6.992273508447738,19.63512966763335,12.698234957782653,16.930979943710263,15.868074567141264,56.71224048549021,61.820986443691766,71.95666476076855,400.00000000000017,393.65097282352093,383.0692675146856,366.187487296352
214,9,424,0,14.133333333333288,27.83653404273701,173.7488971052277,16.93097994371019,25.3964699155654,48.86025315062367,50.83701180456866,32.0265272724814,101.9379981519114,76.65827207818839,62.568523633995596,65.72932721546499,69.9864744326976,36.019055822910786,33.903304946876574,7.014034722368251,19.65724904824583,12.698234957782704,16.93097994371025,15.868131570257106,58.79222888858891,66.0370727974335,71.98778115779507,400.00000000000006,391.5346310821756,383.0692675146855,366.187487296352
215,9,425,0,14.16666666666662,29.704703469447743,175.7099064430232,16.930979943710362,25.3964699155656,48.722553713409596,50.837011804568526,31.816054933760412,103.78859875815775,78.42009731109067,63.52498779441396,66.70572612936542,68.80911760893025,35.9885151930398,35.9885151930398,8.785507094523268,19.340941165753293,14.814607450746438,19.047352436674053,17.987844817618736,57.97152126605124,62.67850097946723,74.07303725373252,400.0000000000001,391.55179023245734,380.9470487334811,364.0222209834014
216,9,426,0,14.199999999999951,29.538550261600307,174.6890465248996,16.836276536469075,25.2544148047035,48.45002419288,50.508829609407,31.638091885122957,103.20805740922958,77.98145463144408,63.094260353787945,64.1651319524509,68.33655038910365,34.70993699155008,36.81432420287615,9.158442567635916,17.600895403607524,16.83627653646896,18.940811103527626,18.93948490193634,58.113462220471376,59.78202959513243,73.68876849341497,400.0000000000001,389.48106722933767,378.90974539553514,362.03500184450877
217,9,427,0,14.233333333333286,27.793184002359318,175.3238886559332,19.35984502742175,27.793184002359318,47.03461908091576,49.2190112644209,30.007378990618044,104.84615074661507,77.08442309916298,62.98275231943853,64.66229238129029,69.92994075709782,37.407937741242336,37.36976637620023,6.985359802701396,19.92545255196785,17.236601005608396,21.379372309507158,21.37596442356704,55.42482204110593,60.08172857624021,74.94987135868438,400.0,391.45274568821446,378.56584403730295,363.54992415124815
218,9,428,0,14.26666666666662,30.97977833772698,183.21237472529407,17.65774252673904,26.486613790108784,50.76600976437527,52.97322758021757,30.901049421793598,105.96944451844892,79.4904912620621,63.96600327968997,66.28875506309623,68.36632749158719,36.43494255804012,38.538323339680005,11.491169239573082,18.162628528578693,11.036089079211983,13.243306895054332,13.265493518563915,62.15941855926303,68.18566901954455,81.78628123385647,399.99999999999994,395.59107225728445,386.6665126726261,368.84320223846487
219,9,429,0,14.299999999999953,30.970820897350837,180.952983474087,17.652636997121192,26.570737245740325,50.75133136672347,52.957910991363455,30.892114744962058,105.91582198272715,79.46750751672378,63.93071369887787,65.77954712395956,68.89337183988664,36.45769771564619,38.53358085959769,9.08198875478729,18.03423481307766,11.032898123200644,13.239477747840928,13.23375504269012,62.795465104529455,67.46620217842002,79.5593598003413,399.9999999999999,395.5936356658038,386.66176266352596,366.61774292688847
220,9,430,0,14.333333333333286,26.182250949873403,178.92535165216245,17.454833966582086,26.1822509498733,48.00079340810087,50.23005687342878,30.5459594415189,100.36529530784769,74.1830443579744,61.054782189190405,62.37324094078417,66.4300370995345,33.87424792556408,35.90264600493924,6.643003709953405,15.5933102351961,13.271701253062782,15.428039327819477,15.301728011285945,60.5730376453389,64.02131438027652,78.6678735890285,399.99999999999994,393.33936794514153,384.50809388569706,368.9656812043302
221,9,431,0,14.36666666666662,24.24693292878672,176.39642844919646,19.83839966900737,28.655466188566066,48.49386585757343,48.54393697659841,30.859732818455804,103.60053160481596,74.94506541624989,62.75296254341981,64.13717173053737,67.97432836087273,35.22973335770939,37.431591692566144,7.674313260670601,16.481746600098063,15.586518815382219,17.77136571614418,17.71787759510528,62.39886251880836,67.81981198649675,77.27518748387529,399.99999999999994,393.25006281504767,384.17528138416446,368.5346595958287
222,9,432,0,14.399999999999952,21.68507479288374,171.5315459940947,19.516567313595306,26.112287906669337,47.7564233747551,49.92279123302997,32.599815634860526,99.75134404726509,73.76113721807145,62.610664750001206,67.9044280111101,70.44182791971957,36.856699687744936,30.365077586531015,0.5345284071435117,17.987202905446793,17.483066227136007,19.63667039988781,19.616548532041122,59.017088229686294,60.421030311099514,73.85670340440565,399.99999999999983,393.3615186437824,382.2728732147826,366.88813920084704
223,9,433,0,14.433333333333286,21.784588756612425,171.46352840098066,19.62888384931704,26.101933572346788,45.572181003638775,49.90299529356286,30.424383872648935,97.54414193816903,71.565206363802,60.49557729646267,65.89045423086645,68.360706302847,36.98338529527757,30.212590756014038,2.5662463234826873,18.1301143003152,19.628883849316974,21.784588756612386,21.771496240618433,59.09406122453572,62.460259643867175,75.99143057896617,400.0000000000001,388.87984565828975,379.8396540776387,364.48077476012406
224,9,434,0,14.46666666666662,21.685074792883672,171.4355689415415,17.348059834306984,26.022089751460474,47.75642337475535,49.92279123303007,32.59981563486045,97.60692812162557,71.59359545116635,60.48207979188055,66.40916899176659,70.09427227691333,35.91042956539661,29.029852102920017,1.636392018229344,19.340349758758634,19.516567313595385,23.951947977210832,22.857948349125706,58.394713595399026,63.08484504922177,76.02157549814191,400.0000000000001,393.22401831770776,382.15599370782945,364.5415225666875
225,9,435,0,14.499999999999952,21.56843569094272,170.5134558756157,19.411592121848372,25.882122829131156,45.3450392903364,47.49955239840149,30.195809967319722,97.05796060924196,71.17583778011081,60.23814670067736,63.00418404917775,68.68992748776225,35.72798241813132,30.96425142904718,3.45754668562563,16.980395944961288,21.6760096036119,21.676009603611785,22.742973754337356,57.31844061059354,63.618859015511305,75.61267267539705,400.00000000000006,391.1089554555182,382.2545082039908,364.8191076875685
226,9,436,0,14.533333333333283,23.963350237279716,172.44477713958653,19.606377466865183,26.232449846084304,45.800053442061746,47.976185981262226,30.576513491813525,100.21037371953302,74.10056673620679,61.73690194767414,67.33415828122509,69.67331018181358,38.26184180248276,31.411468379330927,3.508727850882792,19.047379761934508,21.784863852072437,24.062168595641253,24.05984812033853,58.47879751471169,63.658348151729,78.54644364764899,399.9999999999999,393.14889754969334,381.8570348188389,366.3032708766989
227,9,437,0,14.566666666666618,27.866519172374154,169.55962571440875,15.005048785124533,25.812102015067037,47.15872475324858,49.348880679840626,30.01009757024916,98.6279033152838,72.88166552774786,58.76846890775175,64.32990999606477,69.00306535499442,36.74799441340133,31.804491223789796,4.1517702569002495,19.947807792455933,19.410927966549092,23.67659727317259,23.67474574399904,53.580365299904145,60.184576592275846,79.57267912618046,400.00000000000017,389.3177448842022,380.2843408443801,364.91864634276664
228,9,438,0,14.599999999999952,29.57131173043783,164.6730536331615,16.98611870331594,27.470207319800277,44.29437836228563,46.39897062394641,29.571311730437763,103.32252638372702,75.87653052551036,61.133071620576516,64.61926226965181,69.09693833268454,37.292644924972365,36.3331429114653,6.946794577790797,20.49496300850967,21.173768636948544,23.271125684181282,22.222066632822248,55.945364067548496,59.83454556229691,78.40835871996748,399.99999999999994,391.41289004380025,380.38171394105547,363.1217433198302
229,9,439,0,14.633333333333283,31.855763391716863,165.62231852152414,17.084035913927206,25.51630581253167,44.549715208257105,48.92123385083945,27.628560509404956,101.8009192503518,76.31392404369403,60.41672691036308,62.442761230746555,67.84978026874171,37.52317821757549,36.50057414419598,6.832273465268031,20.509602946721202,19.18848661803576,23.40527308739803,23.507111136815354,58.940342279421316,61.89311154130502,78.6608085510003,399.99999999999994,391.36987080671474,380.46184271556524,363.2424907189094
230,9,440,0,14.666666666666618,37.20178132117033,152.71912444650928,14.591739145927638,26.90583755302025,43.335254337440425,45.39883787731868,26.905837553020138,105.32365428941272,78.44332223109129,59.87158214351143,61.637232019057365,73.83626752282908,40.83466621262551,37.43177736157338,6.548955902024886,24.14124920746417,19.02530018724422,20.73875790956758,20.738360356412045,52.96949626637735,56.50079601746933,74.74617487326967,400.0,385.0726508391553,372.2695554782375,353.25874192802297
231,9,441,0,14.699999999999951,27.077090691658135,146.0375654646077,20.932414894844445,29.234236792695448,37.54916879967788,41.709101426841656,29.23423679269533,106.40913208926408,77.17807035025952,63.61795433344457,70.21219026713356,76.95801783148227,44.36581723968584,32.71852695067935,1.3516920400473964,23.572498567555158,17.175646916328553,23.00586476803743,22.07553121479242,52.387541028751855,53.91608997123541,75.44414911792035,400.0000000000001,385.0744257754552,367.7400925707677,350.6685987479932
232,9,442,0,14.733333333333285,27.441292905988465,145.35812030981177,19.05842620823195,27.4412929059887,37.88371963367817,42.14560524833598,31.569766361398404,105.42180296559431,77.9857723023754,64.15310543523333,70.74828449866845,80.31575896206596,44.150705490424116,29.761223897474565,2.0538178514759693,25.117809624572374,16.968239563943985,21.151481687993403,21.26530657397774,51.689875367581294,58.017165146041236,76.03006549423078,400.00000000000006,384.71387000331777,371.5886520034238,358.5389112519846
233,9,443,0,14.766666666666618,29.63626764917674,148.4230697903393,17.066802034658966,29.937151176846385,40.220648952454454,40.220648952454,31.823628222775845,108.29223921574133,78.43876392650795,63.573709268339144,76.85434380274364,85.39371533638177,49.33717493539302,27.0965729559922,5.251076226655073,30.091725658089103,17.066802034658966,23.3816625276533,22.444527269756463,54.65197781528428,57.77458382385356,76.93906095713855,399.99999999999994,387.15114666328213,371.63690564488576,356.26467741736275
234,9,444,0,14.799999999999953,31.369359849565342,150.70357626325563,18.937442331642718,29.352663120684774,41.87806276353506,43.9171037893916,29.27806919292765,108.82751867676969,79.49655717218492,63.59182968271023,69.27294415004167,80.63517308470466,45.87652650501002,33.536901532956676,0.5497852710320785,26.572954766550424,7.540255694405907,10.663531866789892,9.59069861689295,54.24548007516495,58.88811125276908,73.93829023702939,400.0000000000002,386.84355174004344,369.4014993817194,352.0891384660424
235,9,445,0,14.833333333333284,30.922494981835097,152.60668127999094,16.6203416509349,26.87866715472623,41.22999330911361,43.340548506425684,28.93452663381147,103.26035156109388,76.38683875796401,60.91170872201849,65.06600595106659,76.93542660549008,42.08249141113765,32.155339591074494,0.8632305930490247,23.307226012322303,4.609653387551922,6.519034338515028,6.258421799605117,54.05981588969223,55.24675795513451,68.52742416065706,399.99999999999983,385.0371484330538,372.19061952242305,350.9457214627342
236,9,446,0,14.866666666666616,18.941859816839067,151.7685484939204,16.96823956394398,25.343355164743684,42.09302181519812,42.14560524833605,29.46511527063854,90.5978347657362,65.27812097258182,55.64876431128812,63.63978747410533,72.58012015551287,38.83757422891017,22.278732246410755,7.546409843983724,19.466853419193853,7.588427424695974,8.418604363039618,9.529144914457277,54.314924354787706,59.31382004761781,69.96184400292545,400.0000000000001,387.00979865949733,371.58865200342376,352.1063033645932
