,video_id,frame_seq,time_seconds,m1,m3,m4,m5,m6,m7,m8,m9,m10,m11,m12,m13,m14,m15,m16,m17,e1,e2,e3,b1,b2,b3
0,112,0,0.0,11.813347023697846,153.20959252334285,22.414250030913877,29.885666707885093,37.54340415856488,41.26224725349072,44.983885276657816,108.33554181608349,78.4498751081984,72.8463126004699,74.71416676971273,78.4498751081984,31.753520877127926,31.753520877127926,1.8678541692428325,9.339270846214049,22.41425003091382,22.41425003091382,20.546395861670987,52.29991673879891,52.29991673879891,59.887960518700226
1,112,1,0.04,3.7324542365279285,160.5389269348227,19.031856985647966,29.859633892223542,37.510700838631635,37.510700838631635,41.22630452258114,93.31135591319844,63.4517220209749,61.585494902710934,67.18417625750283,70.91663049403076,27.993406773959464,24.26095253743165,9.331135591319821,9.331135591319821,22.703632776004987,22.703632776004987,20.528498300903664,48.521905074863184,48.521905074863184,59.83579329580476
2,112,2,0.08,3.5964592306287386,158.2850697264348,21.876407449813748,28.995581298576514,36.14396794425119,39.7241905858903,39.56105153691635,93.78418266611301,64.83609083073877,62.938036536003324,71.92918461257511,75.52564384320385,34.166362690973074,19.780525768458233,12.587607307200528,12.587607307200528,21.87640744981373,25.430807102385476,23.376984999086915,50.35042922880257,50.35042922880257,61.24549378767954
3,112,3,0.12,14.921374499089438,152.9895738474876,18.651718123861883,33.77969821990925,37.489489453003635,41.202992053773784,41.20299205377367,108.17996511839851,74.70007287219211,67.14618524590264,70.87652887067497,74.6068724954473,31.707920810565156,35.43826443533737,1.8651718123861656,13.056202686703273,22.690794425902144,22.382061748634158,22.382061748634158,48.4944671220407,44.76412349726837,55.95515437158542
4,112,4,0.16,19.04097761818163,156.88265244320505,22.405457638382586,29.873943517843486,41.246061395205295,41.07667233703478,44.96623953895149,115.76153113164355,85.88758761380006,76.55198026447397,74.68485879460877,78.41910173433916,31.741064987708683,39.20955086716958,5.601364409595703,9.335607349326096,19.040977618181582,22.405457638382643,20.53833616851739,48.54515821649568,48.54515821649568,56.01364409595658
5,112,5,0.2,3.6980013081682728,155.49205052920792,22.494063794319302,33.4868260867989,40.845759490748534,40.84575949074831,48.21603804530526,107.3057776381585,73.96002616336398,72.11102550927978,70.2620248551957,77.65802747153214,25.886009157177455,33.28201177351366,0.0,3.6980013081682728,22.494063794319302,22.188007849009125,22.188007849009125,51.77201831435474,48.07401700618652,55.47001962252284
6,112,6,0.24,3.8052119532359256,171.40357499294464,22.831271719415668,34.457659768795665,42.029939770407424,45.82081962724159,45.66254343883145,99.00866089452322,64.68860320501119,66.5912091816291,72.29902711148316,79.909451017955,30.441695625887633,22.831271719415668,11.41563585970789,7.610423906471965,22.831271719415668,22.831271719415724,20.928665742797705,53.27296734530336,49.46775539206743,57.20487907552328
7,112,7,0.28,3.769393801826368,166.0245749535296,26.38575661278503,30.389824385163628,41.63431535712105,41.634315357120826,45.2327256219171,105.61031560458127,75.3878760365285,73.50317913561526,71.61848223470213,79.15726983835498,30.1551504146114,30.1551504146114,3.769393801826368,3.769393801826368,22.616362810958606,22.616362810958606,22.616362810958606,56.54090702739637,52.77151322556995,56.66641418965865
8,112,8,0.32,11.312702970075634,162.1925843300492,26.664296612298813,41.47991089027721,41.479910890277324,45.40766091865008,45.40766091864997,124.43973267083163,82.95982178055442,77.3034702955166,79.18892079052921,82.95982178055442,35.82355940523939,43.365361385289816,1.8854504950126056,9.427252475063028,22.93749524758976,22.62540594015121,20.739955445138605,52.792613860352844,52.792613860352844,56.56351485037817
9,112,9,0.36,15.53402364819323,162.04863064558518,26.64063077235409,37.86345045101906,41.61399557114537,45.367359445440535,41.61399557114549,120.56173231499895,82.971773014106,75.35108269687441,75.3510826968743,79.11863683171805,35.791764281015276,43.326872550702774,1.8837770674218746,9.41888533710926,22.605324809062267,26.372878943906017,24.489101876484142,56.51331202265578,52.74575788781209,60.28086615749953
10,112,10,0.3999999999999999,7.606638738468405,163.58695154297973,26.62323558463936,38.22288660820359,42.009035496852654,45.6398324308102,45.63983243081043,117.96422835701132,79.8697067539182,76.06638738468405,79.8697067539182,83.67302612315234,36.131534007724895,36.13153400772478,1.9016596846171296,9.508298423085535,23.13468854993522,22.819916215405158,22.819916215405158,57.04979053851298,53.24647116927878,60.971847796083374
11,112,11,0.4399999999999999,15.0775752073057,162.25915940373764,26.38575661278503,37.88193887537969,41.463331820090616,45.38951196940636,41.463331820090616,120.67948406451978,82.92666364018135,75.3878760365285,75.3878760365285,82.92666364018135,37.69393801826436,41.46333182009073,0.0,11.308181405479331,22.928327379688195,22.616362810958606,22.616362810958606,56.54090702739637,52.77151322556995,64.19046341663046
12,112,12,0.4799999999999999,11.1973627095839,160.53892693482294,26.1271796556955,37.3245423652794,41.05699660180744,44.78945083833537,44.789450838335256,119.43853556889405,82.11399320361465,76.51531184882276,78.38153896708673,82.11399320361465,35.458315247015435,39.19076948354336,1.8662271182639643,13.063589827847863,22.703632776004987,22.394725419167685,22.394725419167685,52.25435931139117,48.521905074863184,59.83579329580476
13,112,13,0.5199999999999999,11.1973627095839,156.80750561763145,26.1271796556955,41.22630452258116,44.78945083833537,48.5219050748633,41.22630452258116,119.43853556889405,78.47035660347615,72.78285761229483,74.6490847305588,78.38153896708673,35.458315247015435,42.92322372007129,1.8662271182639643,9.331135591319935,22.394725419167685,22.703632776004987,22.394725419167628,55.9868135479191,48.521905074863184,55.986813547919155
14,112,14,0.5599999999999999,7.541801980050423,162.32403856018936,30.167207920201577,41.47991089027721,41.65096279489732,45.40766091865008,41.479910890277324,120.66883168080653,79.18892079052932,75.41801980050411,75.41801980050411,82.95982178055453,37.709009900252,41.47991089027721,0.0,7.541801980050423,22.93749524758976,26.66429661229887,24.510856435163817,52.792613860352844,49.02171287032763,56.56351485037817
15,112,15,0.6,11.415635859707777,160.0,26.636483672651707,38.24190684202388,45.820819627241605,49.61389383568337,45.66254343883145,121.82622443167165,83.71466297119093,78.0068450413371,76.10423906471908,83.71466297119093,34.24690757912356,41.85733148559552,0.0,7.610423906471851,23.14620068898658,26.906911759852516,24.733877696033744,57.07817929853928,49.467755392067374,57.078179298539226
16,112,16,0.64,11.308181405479218,162.12775771442676,26.38575661278503,41.63431535712093,45.2327256219171,49.00211942374358,45.38951196940636,124.38999546027208,83.01228747676468,77.27257293744174,79.15726983835498,82.92666364018135,35.80924111735101,43.34802872100397,1.8846969009131271,9.423484504565977,22.616362810958606,26.653639182340097,24.50105971187179,56.54090702739643,52.771513225570004,52.77151322557006
17,112,17,0.68,3.7709009900252113,158.55730661493064,26.39630693017648,41.650962794897204,41.65096279489732,49.02171287032775,45.40766091864997,116.89793069078132,75.5122334784623,73.5325693054915,75.41801980050411,82.95982178055453,33.9381089102269,37.709009900252,7.541801980050423,7.541801980050423,22.93749524758976,26.66429661229887,26.396306930176422,52.792613860352844,49.02171287032763,56.56351485037817
18,112,18,0.7200000000000001,7.53878760365285,154.72890949018546,26.385756612784917,37.88193887537969,37.88193887537968,41.46333182009084,45.38951196940648,116.85120785661934,79.24696649017797,75.38787603652861,75.38787603652861,82.92666364018146,33.92454421643788,37.69393801826425,1.1368683772161603e-13,7.538787603652963,22.616362810958606,22.616362810958606,22.616362810958606,52.771513225570004,49.00211942374358,56.54090702739654
19,112,19,0.7600000000000001,8.428620774850282,154.95830755460722,26.385756612784917,41.46333182009073,41.63431535712082,45.38951196940635,41.46333182009073,116.91198872307356,75.48205205830214,71.61848223470213,71.61848223470213,82.92666364018135,35.80924111735101,39.57863491917749,1.8846969009132408,9.42348450456609,22.928327379688195,26.653639182340097,24.501059711871847,56.54090702739643,52.771513225570004,56.66641418965865
20,112,20,0.8000000000000002,11.296150355272175,158.19092461619292,26.357684162301553,41.419217969331044,41.41921796933116,45.18460142108847,45.18460142108859,124.25765390799336,82.83843593866231,77.19036076102623,82.83843593866231,86.60381939041963,39.536526243452386,39.536526243452386,1.882691725878658,13.178842081150833,26.62528172505247,26.35768416230161,24.474992436422895,56.48075177636059,52.71536832460322,60.246135228117964
21,112,21,0.8400000000000002,15.541608789478888,158.49393298035594,22.61636281095855,33.92454421643788,37.693938018264134,45.2327256219171,45.38951196940636,116.85120785661923,82.92666364018135,75.3878760365285,75.3878760365285,82.92666364018135,33.924544216437766,37.69393801826436,1.1368683772161603e-13,11.308181405479218,22.928327379688195,22.616362810958606,22.616362810958606,52.771513225570004,49.00211942374358,56.54090702739654
22,112,22,0.8800000000000002,3.734242939730393,157.01592386956887,22.405457638382586,33.60818645757399,37.52867708333975,44.96623953895137,48.54515821649568,108.29304525218265,74.68485879460866,72.81773732474346,70.95061585487827,78.41910173433916,26.13970057811298,33.60818645757399,3.734242939730393,3.734242939730393,22.405457638382643,22.405457638382643,22.405457638382643,52.27940115622613,52.27940115622613,56.01364409595635
23,112,23,0.9200000000000004,3.734242939730393,156.88265244320505,22.714513032822932,33.60818645757399,41.24606139520531,44.96623953895137,48.68857110860334,108.29304525218265,74.68485879460866,72.81773732474346,74.68485879460866,78.41910173433916,28.006822047978176,31.741064987708796,5.60136440959559,5.60136440959559,26.139700578113093,26.405085052813828,24.272579108247896,52.27940115622613,52.27940115622613,56.13798086181398
24,112,24,0.9600000000000004,3.7709009900252113,162.32403856018936,22.625405940151268,34.14696078246186,41.65096279489732,45.250811880302535,45.40766091864997,105.58522772070569,71.74628442030607,69.7616683154663,67.87621782045369,75.41801980050411,26.39630693017648,33.93810891022679,3.7709009900252113,3.7709009900252113,26.396306930176422,22.62540594015121,22.62540594015121,52.792613860352844,49.02171287032763,60.33441584040315
