,frame_seq,video_id,gap,time_seconds,m1,m3,m4,m5,m6,m7,m8,m9,m10,m11,m12,m13,m14,m15,m16,m17,e1,e2,e3,b1,b2,b3,label_measures,label_inf
0,0,17,0,0.0,2.23606797749979,88.45903006477066,11.04536101718726,17.11724276862369,25.179356624028344,26.30589287593181,19.1049731745428,46.52956049652737,29.42787793912432,29.5,26.0,35.0,11.5,15.5,3.5,0.5,9.055385138137416,11.04536101718726,11.0,42.0,35.0,36.12478373637688,{},{}
1,1,17,0,0.0333333333333333,2.23606797749979,88.45903006477066,11.04536101718726,17.11724276862369,25.179356624028344,26.30589287593181,19.1049731745428,46.52956049652737,29.42787793912432,29.5,26.0,35.0,11.5,15.5,3.5,0.5,9.055385138137416,11.04536101718726,11.0,42.0,35.0,36.12478373637688,{},{}
2,2,17,0,0.0666666666666666,2.23606797749979,88.45903006477066,11.04536101718726,17.11724276862369,25.179356624028344,26.30589287593181,19.1049731745428,46.52956049652737,29.42787793912432,29.5,26.0,35.0,11.5,15.5,3.5,0.5,9.055385138137416,11.04536101718726,11.0,42.0,35.0,36.12478373637688,{},{}
3,3,17,0,0.0999999999999999,2.23606797749979,88.45903006477066,11.04536101718726,17.11724276862369,25.179356624028344,26.30589287593181,19.1049731745428,46.52956049652737,29.42787793912432,29.5,26.0,35.0,11.5,15.5,3.5,0.5,9.055385138137416,11.04536101718726,11.0,42.0,35.0,36.12478373637688,{},{}
4,4,17,0,0.1333333333333332,3.1622776601683795,88.45903006477066,11.04536101718726,17.11724276862369,23.345235059857504,24.186773244895647,19.026297590440446,46.52956049652737,29.42787793912432,29.5,26.0,35.0,11.5,15.5,3.5,0.5,10.04987562112089,10.198039027185567,10.5,41.0,34.0,43.18564576337837,{},{}
5,5,17,0,0.1666666666666665,3.1622776601683795,88.45903006477066,11.04536101718726,17.11724276862369,25.179356624028344,26.1725046566048,18.110770276274835,45.70557952810576,28.635642126552707,28.5,25.0,34.0,11.5,15.5,3.5,0.5,10.04987562112089,11.04536101718726,10.5,41.0,34.0,42.01190307520001,{},{}
6,6,17,0,0.1999999999999998,2.23606797749979,88.45903006477066,11.04536101718726,17.11724276862369,25.179356624028344,26.1725046566048,18.110770276274835,45.5411901469428,28.442925306655784,28.5,25.0,34.0,11.5,15.5,3.5,0.5,11.04536101718726,11.04536101718726,10.5,41.0,34.0,40.049968789001575,{},{}
7,7,17,0,0.2333333333333331,2.23606797749979,87.36704184073076,11.04536101718726,17.029386365926403,24.186773244895647,25.179356624028344,18.110770276274835,45.39823785126467,28.442925306655784,28.5,26.0,34.0,12.0,15.0,4.0,0.0,10.04987562112089,11.04536101718726,11.0,40.0,34.0,38.01315561749642,{},{}
8,8,17,0,0.2666666666666664,2.23606797749979,90.448880590088,11.04536101718726,18.110770276274835,25.179356624028344,26.1725046566048,19.1049731745428,47.51841748206689,29.42787793912432,29.5,25.0,34.0,10.5,17.5,2.5,0.5,10.04987562112089,10.04987562112089,10.0,40.0,34.0,38.01315561749642,{},{}
9,9,17,0,0.2999999999999997,2.0,89.27485648266257,11.04536101718726,17.11724276862369,25.079872407968907,26.0768096208106,19.1049731745428,47.51841748206689,30.4138126514911,30.0,27.0,34.0,11.5,16.5,2.5,0.5,10.04987562112089,11.04536101718726,10.5,39.0,33.0,41.04875150354759,{},{}
10,10,17,0,0.333333333333333,1.0,90.35485598461214,11.04536101718726,18.110770276274835,24.186773244895647,26.0768096208106,20.09975124224178,49.36598018878993,31.25699921617557,31.0,26.0,34.0,10.0,19.0,1.0,1.0,10.04987562112089,11.04536101718726,10.5,41.0,35.0,40.049968789001575,{},{}
11,11,17,0,0.3666666666666663,2.0,89.27485648266257,11.04536101718726,18.027756377319943,25.079872407968907,26.0768096208106,20.09975124224178,49.36598018878993,31.400636936215164,31.0,27.0,34.0,10.5,18.5,1.5,0.5,10.04987562112089,11.0,10.5,40.0,34.0,41.01219330881976,{},{}
12,12,17,0,0.3999999999999997,13.038404810405298,90.27181176868004,10.04987562112089,16.1245154965971,25.079872407968907,27.073972741361768,17.029386365926403,56.22277118748239,40.11234224026316,33.5,28.0,35.0,14.5,24.5,6.5,4.5,9.055385138137416,10.04987562112089,10.0,38.0,34.0,41.01219330881976,{},{}
13,13,17,0,0.433333333333333,16.1245154965971,91.19758768739445,10.04987562112089,16.1245154965971,26.0768096208106,29.017236257093817,17.029386365926403,59.30430001273095,43.18564576337837,35.0,30.0,36.0,16.0,26.0,8.0,6.0,9.219544457292889,9.055385138137416,9.0,39.0,35.0,39.0,{},{}
14,14,17,0,0.4666666666666663,18.110770276274835,92.13576938409967,9.055385138137416,16.0312195418814,26.0768096208106,28.0178514522438,18.027756377319943,61.20457499239743,45.17742799230607,36.0,31.0,36.0,15.5,27.5,9.5,6.5,10.198039027185567,10.04987562112089,9.5,39.0,37.0,38.0,{},{}
15,15,17,0,0.4999999999999996,20.09975124224178,91.08786966440702,9.055385138137416,15.033296378372908,26.0768096208106,28.0713376952364,18.110770276274835,62.28964600958975,47.265209192385896,37.0,32.0,36.0,16.0,28.0,11.0,7.0,8.246211251235321,10.0,9.5,39.0,37.0,41.01219330881976,{},{}
16,16,17,0,0.533333333333333,20.09975124224178,91.08786966440702,9.055385138137416,15.033296378372908,26.0768096208106,28.0178514522438,18.110770276274835,62.28964600958975,47.265209192385896,37.0,32.0,36.0,16.0,28.0,11.0,7.0,8.06225774829855,9.0,9.0,39.0,37.0,42.0,{},{}
17,17,17,0,0.5666666666666663,25.079872407968907,91.0494371207203,9.055385138137416,16.1245154965971,26.019223662515376,28.0178514522438,17.029386365926403,67.26812023536856,51.15662224971465,38.5,33.0,36.0,17.5,32.5,14.5,8.5,8.06225774829855,10.0,9.5,39.0,38.0,44.01136216933077,{},{}
18,18,17,0,0.5999999999999996,27.073972741361768,90.08884503644168,8.06225774829855,15.033296378372908,25.019992006393608,28.0,18.027756377319943,68.18357573492314,53.150729063673246,39.5,34.0,38.0,18.0,32.0,15.0,10.0,8.06225774829855,10.0,10.0,38.0,37.0,41.0,{},{}
19,19,17,0,0.633333333333333,28.0713376952364,90.08884503644168,9.055385138137416,16.0312195418814,25.079872407968907,28.0178514522438,17.029386365926403,70.178344238091,54.147945482723536,40.0,34.0,38.0,19.0,34.0,17.0,10.0,10.04987562112089,10.0,10.0,40.0,38.0,45.0111097397076,{},{}
20,20,17,0,0.6666666666666663,29.154759474226505,89.05054744357274,8.0,15.132745950421556,26.019223662515376,28.0178514522438,18.110770276274835,70.34912934784623,55.22680508593631,40.5,35.0,38.0,18.5,33.5,16.5,10.5,8.06225774829855,10.0,9.5,40.0,38.0,44.0,{},{}
21,21,17,0,0.6999999999999996,29.068883707497267,89.08984229416954,8.0,15.132745950421556,26.019223662515376,28.0178514522438,18.110770276274835,70.25667228100119,55.14526271584895,40.5,34.0,38.0,18.0,34.0,17.0,10.0,9.055385138137416,10.04987562112089,9.5,38.0,37.0,43.0,{},{}
22,22,17,0,0.733333333333333,32.0624390837628,89.02246907382428,8.06225774829855,15.033296378372908,27.0,29.017236257093817,18.0,73.10950690573696,58.077534382926416,42.0,36.0,38.0,19.0,36.0,19.0,12.0,7.071067811865476,8.06225774829855,7.5,37.0,37.0,43.0,{},{}
23,23,17,0,0.7666666666666663,28.0713376952364,89.02246907382428,9.055385138137416,16.0312195418814,22.02271554554524,25.019992006393608,19.1049731745428,72.24956747275377,56.22277118748239,42.0,34.0,36.0,16.0,37.0,20.0,7.0,9.219544457292889,9.0,9.0,38.0,37.0,41.04875150354759,{},{}
24,24,17,0,0.7999999999999996,32.0624390837628,92.00543462209176,8.06225774829855,14.0356688476182,25.019992006393608,27.0,17.11724276862369,71.25307010929424,57.21887800367987,41.0,36.0,37.0,19.5,34.5,18.5,11.5,9.055385138137416,8.0,8.5,32.0,37.0,45.0,{},{}
25,25,17,0,0.8333333333333329,29.017236257093817,93.00537618869136,9.055385138137416,16.0312195418814,26.019223662515376,28.0,16.0312195418814,70.11419257183242,54.08326913195984,39.5,34.0,35.0,18.5,35.5,17.5,9.5,6.082762530298219,6.0,6.0,36.0,36.0,43.01162633521314,{},{}
26,26,17,0,0.8666666666666663,30.01666203960727,92.0,9.055385138137416,15.033296378372908,25.019992006393608,28.0,17.0,71.06335201775947,56.0357029044876,41.0,35.0,35.0,18.0,36.0,19.0,10.0,7.071067811865476,7.0,7.0,35.0,36.0,45.0,{},{}
27,27,17,0,0.8999999999999996,21.095023109728988,94.04786015641186,9.0,17.029386365926403,27.073972741361768,29.017236257093817,15.033296378372908,62.12889826803627,45.09988913511872,34.5,28.0,31.0,14.5,32.5,13.5,5.5,9.055385138137416,9.055385138137416,8.5,37.0,35.0,43.0,{},{}
28,28,17,0,0.9333333333333328,20.024984394500787,97.082439194738,9.0,17.11724276862369,27.018512172212592,29.017236257093817,14.0356688476182,60.13318551349163,43.04648650006177,33.0,26.0,30.0,14.0,32.0,13.0,5.0,9.055385138137416,9.0,9.0,38.0,36.0,42.0,{},{}
29,29,17,0,0.9666666666666662,17.11724276862369,95.08417323613853,9.055385138137416,17.029386365926403,26.0768096208106,29.068883707497267,14.0356688476182,57.21887800367987,40.19950248448356,31.5,25.0,29.0,13.0,30.0,11.0,3.0,10.198039027185567,9.0,9.0,37.0,34.0,44.04543109109048,{},{}
30,30,17,0,0.9999999999999996,16.1245154965971,95.13148795220224,8.06225774829855,17.029386365926403,27.073972741361768,29.017236257093817,16.0312195418814,57.21887800367987,40.19950248448356,32.0,25.0,30.0,11.5,29.5,10.5,3.5,9.219544457292889,9.0,9.5,37.0,33.0,43.10452412450461,{},{}
31,31,17,0,1.0333333333333328,12.041594578792296,94.0850678907126,9.055385138137416,15.132745950421556,26.0768096208106,28.0713376952364,16.0312195418814,52.23983154643591,37.12142238654117,31.0,25.0,29.0,11.0,25.0,8.0,2.0,10.198039027185567,10.04987562112089,10.0,37.0,35.0,49.01020301937138,{},{}
32,32,17,0,1.066666666666666,2.23606797749979,91.26883367283708,10.04987562112089,12.041594578792296,25.079872407968907,26.0768096208106,21.095023109728988,41.30375285612676,29.27456233660889,30.0,25.0,32.0,7.5,12.5,1.5,1.5,10.04987562112089,10.04987562112089,10.0,40.0,37.0,39.0,{},{}
33,33,17,0,1.0999999999999992,2.23606797749979,89.27485648266257,9.055385138137416,12.041594578792296,24.186773244895647,25.079872407968907,21.095023109728988,40.311288741492746,28.284271247461906,29.0,25.0,32.0,7.5,11.5,2.5,1.5,10.04987562112089,11.0,11.5,38.0,36.0,40.01249804748511,{},{}
34,34,17,0,1.1333333333333324,1.4142135623730951,90.27181176868004,9.055385138137416,12.041594578792296,25.079872407968907,26.0768096208106,21.095023109728988,41.30375285612676,29.27456233660889,29.5,25.0,32.0,7.5,12.5,2.5,1.5,9.055385138137416,10.04987562112089,10.5,38.0,36.0,36.013886210738214,{},{}
35,35,17,0,1.1666666666666656,1.4142135623730951,90.19977827023745,10.04987562112089,12.041594578792296,25.179356624028344,26.0768096208106,21.095023109728988,42.2965719651132,30.265491900843116,30.5,26.0,32.0,8.0,13.0,2.0,2.0,10.198039027185567,11.04536101718726,11.0,39.0,36.0,39.01281840626232,{},{}
36,36,17,0,1.1999999999999988,2.8284271247461903,91.19758768739445,10.0,12.041594578792296,25.079872407968907,26.1725046566048,22.09072203437452,42.2965719651132,30.265491900843116,31.0,26.0,32.0,7.0,13.0,1.0,2.0,10.198039027185567,9.055385138137416,9.5,39.0,37.0,40.01249804748511,{},{}
37,37,17,0,1.233333333333332,1.0,90.19977827023745,10.04987562112089,13.038404810405298,25.079872407968907,26.0768096208106,21.095023109728988,44.28317965096906,31.25699921617557,31.0,27.0,33.0,9.0,14.0,2.0,1.0,9.055385138137416,10.04987562112089,10.5,39.0,36.0,39.01281840626232,{},{}
38,38,17,0,1.2666666666666653,3.1622776601683795,90.08884503644168,10.0,16.1245154965971,25.019992006393608,27.018512172212592,21.213203435596427,50.35871324805669,34.23448553724738,32.5,30.0,34.0,11.0,18.0,0.0,2.0,9.055385138137416,10.04987562112089,9.5,39.0,36.0,41.04875150354759,{},{}
39,39,17,0,1.2999999999999985,20.024984394500787,92.13576938409967,10.04987562112089,18.110770276274835,27.073972741361768,28.0178514522438,17.11724276862369,65.27633568147036,47.16990566028302,37.0,31.0,36.0,16.5,31.5,11.5,6.5,10.198039027185567,11.04536101718726,10.5,39.0,36.0,45.044422518220834,{},{}
40,40,17,0,1.3333333333333317,20.09975124224178,92.0869154657707,9.055385138137416,17.11724276862369,26.019223662515376,28.0,18.027756377319943,64.28063471995279,47.16990566028302,37.0,32.0,36.0,16.0,30.0,12.0,7.0,9.219544457292889,10.0,10.0,39.0,35.0,45.044422518220834,{},{}
41,41,17,0,1.366666666666665,24.08318915758459,94.13288479590966,9.0,16.1245154965971,25.019992006393608,28.0178514522438,17.11724276862369,66.27216610312357,50.15974481593781,38.0,31.0,36.0,16.5,32.5,14.5,7.5,10.198039027185567,10.04987562112089,10.0,39.0,36.0,47.01063709417264,{},{}
42,42,17,0,1.399999999999998,19.1049731745428,93.1933474020544,10.198039027185567,17.11724276862369,26.0768096208106,28.0713376952364,16.0312195418814,62.39390995922599,45.27692569068709,35.5,29.0,35.0,16.0,30.0,11.0,6.0,10.198039027185567,10.04987562112089,10.0,39.0,35.0,47.042533945356304,{},{}
43,43,17,0,1.4333333333333311,20.024984394500787,95.13148795220224,9.055385138137416,16.1245154965971,27.073972741361768,29.017236257093817,16.1245154965971,61.29437168288782,45.17742799230607,35.0,29.0,34.0,15.5,29.5,12.5,6.5,10.198039027185567,10.04987562112089,10.0,39.0,35.0,45.0111097397076,{},{}
44,44,17,0,1.4666666666666646,20.09975124224178,94.13288479590966,10.04987562112089,16.1245154965971,27.073972741361768,28.0178514522438,15.033296378372908,61.29437168288782,45.17742799230607,35.0,29.0,34.0,16.5,29.5,11.5,6.5,10.198039027185567,9.055385138137416,9.5,40.0,36.0,47.042533945356304,{},{}
45,45,17,0,1.4999999999999978,21.095023109728988,94.13288479590966,8.06225774829855,16.0312195418814,27.018512172212592,29.017236257093817,16.1245154965971,61.29437168288782,45.27692569068709,34.5,29.0,34.0,15.5,29.5,11.5,7.5,9.055385138137416,10.04987562112089,10.0,39.0,35.0,46.01086828130936,{},{}
46,46,17,0,1.533333333333331,22.09072203437452,95.13148795220224,10.04987562112089,17.11724276862369,26.0768096208106,28.0178514522438,15.132745950421556,64.38167441127949,47.265209192385896,36.0,29.0,34.0,16.5,32.5,14.5,6.5,10.04987562112089,10.04987562112089,10.0,39.0,36.0,51.0881590977792,{},{}
47,47,17,0,1.5666666666666642,18.110770276274835,91.08786966440702,9.055385138137416,17.11724276862369,26.0768096208106,27.018512172212592,19.026297590440446,63.28506932918696,46.17358552246078,37.0,31.0,35.0,14.0,30.0,12.0,5.0,4.123105625617661,5.0990195135927845,5.0,39.0,36.0,38.01315561749642,{},{}
48,48,17,0,1.5999999999999974,3.1622776601683795,85.09406559801923,10.04987562112089,16.0312195418814,24.08318915758459,25.019992006393608,24.020824298928627,53.150729063673246,37.12142238654117,35.5,30.0,34.0,8.0,21.0,3.0,1.0,7.071067811865476,8.06225774829855,8.0,39.0,38.0,40.01249804748511,{},{}
49,49,17,0,1.6333333333333306,2.23606797749979,83.05419917138447,7.0,14.0356688476182,23.0,24.020824298928627,26.019223662515376,49.09175083453431,35.05709628591621,34.0,31.0,34.0,6.5,16.5,0.5,0.5,8.06225774829855,9.055385138137416,8.5,37.0,37.0,39.01281840626232,{},{}
50,50,17,0,1.666666666666664,1.4142135623730951,84.0535543567314,8.06225774829855,14.0356688476182,22.02271554554524,24.0,26.019223662515376,49.16299421312742,35.12833614050059,34.5,31.0,34.0,6.5,16.5,0.5,0.5,7.071067811865476,9.0,8.5,38.0,38.0,40.01249804748511,{},{}
51,51,17,0,1.699999999999997,13.038404810405298,87.02298546935747,10.0,16.0312195418814,24.0,26.0,17.0,56.0357029044876,40.01249804748511,33.5,35.0,33.0,17.0,22.0,5.0,7.0,8.0,9.0,9.0,35.0,38.0,39.05124837953327,{},{}
52,52,17,0,1.7333333333333305,13.038404810405298,89.08984229416954,9.0,16.0,27.0,29.0,17.0,55.00909015790027,39.01281840626232,32.5,36.0,32.0,17.0,21.0,4.0,8.0,8.0,7.0,7.5,33.0,37.0,47.0,{},{}
53,53,17,0,1.7666666666666635,14.0356688476182,89.05054744357274,9.0,16.0,26.0,28.0178514522438,16.0,55.00909015790027,39.01281840626232,32.0,35.0,32.0,17.5,21.5,4.5,8.5,8.06225774829855,8.0,8.0,34.0,39.0,39.05124837953327,{},{}
54,54,17,0,1.7999999999999967,13.0,91.13725912051558,10.0,16.0,26.019223662515376,28.0713376952364,16.0,55.0,39.0,32.5,36.0,31.0,17.5,21.5,5.5,8.5,8.06225774829855,8.0,7.5,33.0,39.0,43.10452412450461,{},{}
55,55,17,0,1.83333333333333,12.041594578792296,90.27181176868004,11.0,16.0,25.079872407968907,27.073972741361768,15.0,54.00925846556311,38.01315561749642,32.0,36.0,29.0,17.5,21.5,5.5,8.5,7.071067811865476,8.06225774829855,8.0,34.0,40.0,36.22154055254967,{},{}
56,56,17,0,1.8666666666666631,14.0,90.19977827023745,9.0,16.0312195418814,25.079872407968907,27.073972741361768,16.1245154965971,55.08175741568164,39.05124837953327,32.0,36.0,30.0,17.0,22.0,6.0,9.0,8.06225774829855,7.0,7.0,32.0,40.0,38.2099463490856,{},{}
57,57,17,0,1.8999999999999964,16.0,90.19977827023745,9.0,16.0,25.079872407968907,27.16615541441225,16.0312195418814,57.0087712549569,41.01219330881976,33.0,36.0,30.0,17.0,24.0,8.0,10.0,8.06225774829855,8.06225774829855,7.5,32.0,43.0,37.33630940518894,{},{}
58,58,17,0,1.9333333333333296,15.0,90.27181176868004,9.0,16.0312195418814,26.019223662515376,28.0713376952364,16.0312195418814,56.0357029044876,40.01249804748511,32.5,37.0,30.0,17.5,22.5,6.5,9.5,8.06225774829855,7.0,7.0,30.0,40.0,42.190046219457976,{},{}
59,59,17,0,1.9666666666666628,17.0,88.2779700718135,8.0,16.0,25.079872407968907,27.073972741361768,15.033296378372908,56.00892785976178,40.01249804748511,31.5,36.0,29.0,17.5,23.5,7.5,10.5,9.055385138137416,9.055385138137416,8.5,30.0,41.0,43.28972164382672,{},{}
60,60,17,0,1.999999999999996,17.0,86.20904824900923,8.0,17.0,25.079872407968907,27.073972741361768,14.0356688476182,56.00892785976178,39.01281840626232,30.5,37.0,31.0,20.0,22.0,5.0,13.0,9.0,9.055385138137416,9.0,33.0,44.0,38.2099463490856,{},{}
61,61,17,0,2.033333333333329,16.0,82.09750300709517,8.0,18.0,25.0,27.073972741361768,14.142135623730953,56.0357029044876,38.05259518088089,30.0,37.0,33.0,21.0,21.0,3.0,14.0,9.0,9.0,9.0,32.0,42.0,38.2099463490856,{},{}
62,62,17,0,2.0666666666666624,16.0312195418814,83.09632964216891,8.0,18.027756377319943,25.019992006393608,27.073972741361768,14.142135623730953,56.0357029044876,38.01315561749642,30.0,36.0,32.0,20.0,22.0,4.0,13.0,9.055385138137416,9.0,9.0,31.0,42.0,37.12142238654117,{},{}
63,63,17,0,2.099999999999996,15.0,84.0535543567314,8.0,17.029386365926403,23.0,24.020824298928627,17.029386365926403,57.0350769263968,40.01249804748511,32.5,36.0,33.0,17.5,22.5,5.5,10.5,10.04987562112089,10.0,10.0,31.0,42.0,40.11234224026316,{},{}
64,64,17,0,2.133333333333329,17.0,84.09518416651456,8.0,18.0,24.0,26.0768096208106,15.132745950421556,58.034472514187634,40.049968789001575,31.5,37.0,33.0,20.0,23.0,4.0,13.0,9.055385138137416,9.0,9.0,31.0,41.0,37.21558813185679,{},{}
65,65,17,0,2.166666666666662,19.0,86.09297300012354,7.0,18.0,25.019992006393608,27.018512172212592,16.0312195418814,60.00833275470999,42.01190307520001,32.5,36.0,32.0,18.0,26.0,8.0,12.0,9.0,9.055385138137416,9.0,31.0,42.0,45.09988913511872,{},{}
66,66,17,0,2.199999999999996,20.024984394500787,89.05054744357274,8.0,17.0,25.0,28.0178514522438,15.033296378372908,60.0,43.0,33.0,34.0,31.0,17.5,27.5,10.5,10.5,10.0,10.0,10.0,33.0,42.0,45.09988913511872,{},{}
67,67,17,0,2.2333333333333285,21.02379604162864,89.02246907382428,9.0,17.0,26.019223662515376,28.0178514522438,15.033296378372908,62.0,45.0,34.5,34.0,32.0,18.0,29.0,11.0,10.0,8.0,10.04987562112089,9.5,33.0,41.0,42.1070065428546,{},{}
68,68,17,0,2.2666666666666617,21.02379604162864,88.05112151472007,8.06225774829855,17.0,25.019992006393608,27.018512172212592,16.0312195418814,62.00806399170998,45.0111097397076,34.5,35.0,32.0,17.5,28.5,10.5,10.5,9.0,10.04987562112089,9.5,33.0,41.0,40.049968789001575,{},{}
69,69,17,0,2.299999999999995,24.020824298928627,90.0499861188218,8.0,17.0,26.0,29.068883707497267,16.0312195418814,65.0,48.0,36.0,35.0,32.0,17.5,31.5,14.5,10.5,10.0,10.04987562112089,10.5,33.0,42.0,48.0936586256442,{},{}
70,70,17,0,2.333333333333328,25.019992006393608,90.0499861188218,8.0,17.0,27.0,28.0178514522438,17.11724276862369,67.00746227100382,50.00999900019995,37.5,36.0,33.0,17.5,32.5,14.5,10.5,10.04987562112089,10.0,10.5,33.0,39.0,44.04543109109048,{},{}
71,71,17,0,2.3666666666666614,22.02271554554524,90.0222194794152,8.0,15.0,26.019223662515376,27.018512172212592,16.0312195418814,61.0,46.0,35.0,35.0,33.0,18.0,27.0,11.0,11.0,11.0,10.0,10.0,35.0,41.0,43.10452412450461,{},{}
72,72,17,0,2.3999999999999946,18.027756377319943,90.0499861188218,9.055385138137416,16.0,26.0,28.0178514522438,16.0,59.0,43.0,34.0,35.0,32.0,17.5,25.5,9.5,9.5,11.0,10.0,10.0,33.0,39.0,39.11521443121589,{},{}
73,73,17,0,2.433333333333328,19.026297590440446,90.00555538409837,9.0,16.0,25.019992006393608,27.0,15.0,59.00847396772772,43.01162633521314,33.5,34.0,33.0,18.5,25.5,9.5,10.5,10.0,9.055385138137416,9.5,35.0,39.0,42.04759208325728,{},{}
74,74,17,0,2.466666666666661,17.029386365926403,89.02246907382428,9.055385138137416,16.0,25.0,28.0,16.0,58.0,42.0,33.5,35.0,33.0,18.0,24.0,8.0,10.0,10.0,10.04987562112089,10.0,34.0,40.0,37.01351104664349,{},{}
75,75,17,0,2.4999999999999942,18.027756377319943,90.00555538409837,7.0,16.0,25.0,27.0,17.0,58.00862004909271,42.01190307520001,33.0,34.0,33.0,16.5,24.5,8.5,9.5,10.0,10.04987562112089,10.0,37.0,42.0,42.04759208325728,{},{}
76,76,17,0,2.5333333333333274,17.029386365926403,90.0222194794152,8.0,16.0,26.0,28.0,16.0,57.0087712549569,41.01219330881976,32.5,33.0,31.0,16.0,25.0,8.0,8.0,10.0,9.0,9.0,35.0,39.0,39.05124837953327,{},{}
77,77,17,0,2.5666666666666607,17.029386365926403,92.00543462209176,9.0,16.0,26.0,28.0,16.0,58.00862004909271,42.01190307520001,33.5,33.0,32.0,16.5,25.5,8.5,8.5,10.04987562112089,10.0,10.0,36.0,39.0,40.01249804748511,{},{}
78,78,17,0,2.599999999999994,15.033296378372908,91.00549433962765,8.0,17.0,26.019223662515376,28.0,17.0,57.0087712549569,40.01249804748511,32.5,33.0,32.0,15.5,24.5,7.5,7.5,10.04987562112089,9.055385138137416,9.5,35.0,39.0,40.049968789001575,{},{}
79,79,17,0,2.633333333333327,13.038404810405298,90.00555538409837,9.0,16.0,25.0,27.018512172212592,16.0,54.00925846556311,38.01315561749642,31.5,32.0,31.0,15.5,22.5,5.5,7.5,10.0,10.0,10.0,35.0,39.0,39.01281840626232,{},{}
80,80,17,0,2.6666666666666603,13.0,90.0222194794152,9.055385138137416,16.0312195418814,26.019223662515376,28.0178514522438,16.0,54.037024344425184,38.01315561749642,31.5,33.0,31.0,16.0,22.0,5.0,7.0,9.055385138137416,10.0,10.0,36.0,40.0,39.05124837953327,{},{}
81,81,17,0,2.699999999999993,14.0356688476182,91.00549433962765,10.0,16.0,25.0,27.0,15.0,55.00909015790027,39.01281840626232,32.0,31.0,30.0,15.5,24.5,7.5,6.5,6.082762530298219,7.0,7.0,35.0,39.0,34.058772731852805,{},{}
82,82,17,0,2.7333333333333267,14.0356688476182,92.00543462209176,9.0,15.033296378372908,27.0,28.0,16.0312195418814,54.08326913195984,39.05124837953327,32.0,31.0,30.0,14.5,23.5,6.5,6.5,3.0,3.1622776601683795,3.0,37.0,40.0,37.12142238654117,{},{}
83,83,17,0,2.76666666666666,18.027756377319943,92.02173656261871,9.055385138137416,16.0,26.019223662515376,29.017236257093817,16.0,59.033888572581766,43.04648650006177,34.0,33.0,31.0,16.0,27.0,10.0,7.0,3.0,3.1622776601683795,3.0,37.0,40.0,38.01315561749642,{},{}
84,84,17,0,2.799999999999993,17.029386365926403,91.00549433962765,9.0,16.0312195418814,25.0,28.0,16.0,58.034472514187634,42.01190307520001,33.5,32.0,31.0,15.5,26.5,9.5,7.5,6.0,7.0,6.5,35.0,39.0,41.04875150354759,{},{}
85,85,17,0,2.8333333333333264,17.029386365926403,91.0,9.055385138137416,17.029386365926403,26.019223662515376,28.0178514522438,16.0312195418814,59.033888572581766,42.01190307520001,33.5,32.0,32.0,16.0,27.0,9.0,7.0,7.0,7.071067811865476,7.0,35.0,38.0,40.049968789001575,{},{}
86,86,17,0,2.86666666666666,12.0,90.00555538409837,9.055385138137416,16.0,26.0,27.018512172212592,17.0,54.00925846556311,38.01315561749642,32.0,33.0,32.0,15.5,21.5,5.5,7.5,8.0,7.0,7.5,35.0,39.0,38.01315561749642,{},{}
87,87,17,0,2.899999999999993,12.041594578792296,91.0,10.0,17.029386365926403,25.019992006393608,28.0,16.0,55.03635162326805,38.01315561749642,32.0,32.0,32.0,16.0,23.0,5.0,7.0,6.0,7.071067811865476,7.0,36.0,40.0,37.05401462729781,{},{}
88,88,17,0,2.933333333333326,13.0,89.00561780022652,9.0,17.029386365926403,26.0,28.0,15.0,54.00925846556311,37.0,30.5,31.0,30.0,15.5,23.5,6.5,6.5,8.0,8.0,8.0,35.0,39.0,40.01249804748511,{},{}
89,89,17,0,2.9666666666666592,14.0,91.02197536858888,9.0,17.029386365926403,26.0,28.0,16.0,56.00892785976178,39.0,32.0,33.0,31.0,16.0,24.0,6.0,8.0,8.0,9.0,8.5,35.0,38.0,39.01281840626232,{},{}
90,90,17,0,2.9999999999999925,18.027756377319943,91.00549433962765,9.0,16.0,27.0,29.017236257093817,16.0,59.00847396772772,43.01162633521314,34.0,34.0,33.0,17.5,25.5,8.5,9.5,8.0,9.0,9.0,36.0,38.0,40.049968789001575,{},{}
91,91,17,0,3.0333333333333257,21.02379604162864,90.00555538409837,8.0,15.0,26.019223662515376,28.0,16.0,60.00833275470999,45.0111097397076,34.5,35.0,34.0,18.5,25.5,9.5,10.5,9.0,8.0,8.5,36.0,39.0,43.01162633521314,{},{}
92,92,17,0,3.066666666666659,20.0,90.00555538409837,8.06225774829855,16.0312195418814,27.018512172212592,28.0,17.029386365926403,61.00819617067857,45.0,35.0,36.0,35.0,18.5,25.5,8.5,10.5,9.0,9.0,9.0,35.0,39.0,41.01219330881976,{},{}
93,93,17,0,3.099999999999992,20.024984394500787,89.02246907382428,8.0,16.0,26.0,28.0178514522438,17.0,61.00819617067857,45.0111097397076,35.0,36.0,34.0,18.0,26.0,9.0,10.0,9.055385138137416,9.0,9.0,35.0,39.0,43.04648650006177,{},{}
94,94,17,0,3.1333333333333253,18.027756377319943,90.0222194794152,9.0,16.0,26.0,28.0,16.0,59.00847396772772,43.01162633521314,34.0,35.0,33.0,18.0,25.0,8.0,10.0,9.0,8.0,8.0,36.0,40.0,41.04875150354759,{},{}
95,95,17,0,3.1666666666666585,17.029386365926403,89.00561780022652,8.0,16.0,26.0,28.0,16.0,57.0087712549569,41.01219330881976,32.5,34.0,33.0,17.5,23.5,7.5,9.5,7.0,7.0,7.5,35.0,38.0,40.01249804748511,{},{}
96,96,17,0,3.199999999999992,18.027756377319943,89.02246907382428,9.0,16.0312195418814,25.0,27.018512172212592,15.033296378372908,58.00862004909271,42.0,33.0,35.0,33.0,19.0,24.0,7.0,10.0,8.0,9.055385138137416,9.0,35.0,38.0,40.049968789001575,{},{}
97,97,17,0,3.233333333333325,17.029386365926403,90.00555538409837,8.0,16.0,23.0,26.0,15.0,56.00892785976178,40.01249804748511,31.5,32.0,31.0,16.5,24.5,8.5,8.5,10.0,11.0,10.5,35.0,39.0,41.0,{},{}
98,98,17,0,3.266666666666658,18.027756377319943,91.02197536858888,9.055385138137416,16.0,25.0,27.018512172212592,15.033296378372908,58.00862004909271,42.01190307520001,33.0,35.0,33.0,19.0,24.0,8.0,10.0,10.04987562112089,10.0,10.0,36.0,40.0,40.01249804748511,{},{}
99,99,17,0,3.2999999999999914,18.0,90.0499861188218,8.0,15.0,25.0,27.018512172212592,16.0,57.0,42.0,33.0,35.0,32.0,17.5,23.5,7.5,9.5,13.038404810405298,14.0,14.0,34.0,39.0,46.01086828130936,{},{}
100,100,17,0,3.3333333333333246,16.0312195418814,90.0222194794152,10.0,17.0,25.0,27.018512172212592,15.0,58.00862004909271,41.01219330881976,33.0,35.0,33.0,19.0,24.0,7.0,10.0,7.0,7.0,6.5,33.0,37.0,38.11823710509184,{},{}
101,101,17,0,3.366666666666658,17.029386365926403,90.0222194794152,9.0,17.029386365926403,24.0,26.019223662515376,15.0,58.034472514187634,41.01219330881976,32.5,35.0,33.0,19.0,24.0,7.0,10.0,6.082762530298219,7.071067811865476,6.5,34.0,38.0,37.05401462729781,{},{}
102,102,17,0,3.399999999999991,15.033296378372908,88.02272433866155,9.0,16.0,24.0,26.0768096208106,15.0,55.00909015790027,39.01281840626232,31.5,35.0,33.0,19.0,21.0,4.0,11.0,8.06225774829855,7.0,7.0,32.0,36.0,41.04875150354759,{},{}
103,103,17,0,3.433333333333324,15.033296378372908,86.00581375697809,8.0,16.0,25.0,27.018512172212592,16.0,55.00909015790027,39.01281840626232,31.5,35.0,34.0,18.5,20.5,3.5,11.5,8.06225774829855,8.0,7.5,33.0,38.0,38.11823710509184,{},{}
104,104,17,0,3.466666666666657,16.0312195418814,82.05485969764375,8.0,18.0,24.020824298928627,27.018512172212592,16.0,58.00862004909271,40.01249804748511,32.0,38.0,35.0,20.5,21.5,3.5,12.5,9.0,8.06225774829855,8.0,33.0,38.0,36.12478373637688,{},{}
105,105,17,0,3.4999999999999907,17.029386365926403,81.05553651663777,8.0,18.0,23.0,25.019992006393608,17.0,60.00833275470999,42.01190307520001,33.5,39.0,36.0,20.5,22.5,3.5,13.5,10.0,10.0,9.5,33.0,38.0,39.11521443121589,{},{}
106,106,17,0,3.533333333333324,15.0,80.05623023850174,9.0,19.026297590440446,22.0,24.08318915758459,17.0,60.00833275470999,41.0,33.5,38.0,35.0,19.5,23.5,4.5,11.5,8.0,9.0,9.0,33.0,40.0,37.12142238654117,{},{}
107,107,17,0,3.566666666666657,19.026297590440446,83.05419917138447,8.0,18.0,24.0,26.019223662515376,16.0,61.00819617067857,43.01162633521314,33.5,38.0,35.0,20.5,24.5,5.5,12.5,9.055385138137416,9.0,9.5,34.0,39.0,38.11823710509184,{},{}
108,108,17,0,3.5999999999999903,18.027756377319943,83.02409288875127,8.0,18.0,24.0,26.019223662515376,17.0,61.00819617067857,43.01162633521314,34.0,38.0,36.0,20.0,24.0,5.0,13.0,10.0,10.0,9.5,34.0,39.0,37.12142238654117,{},{}
109,109,17,0,3.633333333333324,19.026297590440446,83.0,8.0,18.027756377319943,24.0,26.0,16.0312195418814,61.00819617067857,43.0,33.5,36.0,36.0,20.0,25.0,6.0,12.0,9.0,9.0,9.5,32.0,39.0,39.11521443121589,{},{}
110,110,17,0,3.6666666666666567,20.024984394500787,83.02409288875127,8.0,18.0,23.0,25.019992006393608,16.1245154965971,62.00806399170998,44.01136216933077,34.0,37.0,35.0,20.0,26.0,8.0,12.0,10.0,9.0,9.5,33.0,39.0,37.12142238654117,{},{}
111,111,17,0,3.69999999999999,21.02379604162864,84.02380615040002,8.0,17.029386365926403,24.0,26.019223662515376,16.1245154965971,62.0,45.0111097397076,34.5,37.0,35.0,20.0,26.0,8.0,12.0,9.0,10.0,9.5,34.0,39.0,37.05401462729781,{},{}
112,112,17,0,3.733333333333323,24.020824298928627,86.00581375697809,8.0,17.0,25.0,27.0,17.11724276862369,66.007575322837,49.01020301937138,37.0,37.0,36.0,19.5,29.5,11.5,11.5,9.055385138137416,9.0,9.0,33.0,38.0,40.049968789001575,{},{}
113,113,17,0,3.766666666666656,24.0,87.00574693662483,8.0,17.0,25.0,27.0,16.0312195418814,65.00769185258002,48.010415536631214,36.0,36.0,35.0,19.5,29.5,11.5,11.5,9.055385138137416,9.0,8.5,34.0,39.0,41.04875150354759,{},{}
114,114,17,0,3.7999999999999896,23.021728866442675,86.0,8.0,17.0,24.0,27.018512172212592,17.11724276862369,65.00769185258002,48.010415536631214,36.5,36.0,36.0,19.0,29.0,11.0,11.0,10.04987562112089,10.0,10.5,36.0,41.0,43.01162633521314,{},{}
115,115,17,0,3.833333333333323,21.02379604162864,87.02298546935747,8.0,17.0,25.0,26.0,16.1245154965971,62.00806399170998,45.0111097397076,34.5,36.0,34.0,19.0,27.0,9.0,11.0,8.0,8.06225774829855,8.5,34.0,39.0,36.0,{},{}
116,116,17,0,3.866666666666656,21.02379604162864,87.00574693662483,8.0,17.0,25.0,27.0,16.0312195418814,62.0,45.0,34.5,35.0,34.0,18.5,27.5,9.5,10.5,9.055385138137416,9.0,9.5,34.0,39.0,39.01281840626232,{},{}
117,117,17,0,3.899999999999989,16.0,88.02272433866155,9.0,17.0,25.0,27.018512172212592,16.0312195418814,58.00862004909271,41.01219330881976,33.0,36.0,34.0,19.0,23.0,5.0,11.0,8.0,8.0,8.5,35.0,40.0,38.05259518088089,{},{}
118,118,17,0,3.9333333333333225,15.0,86.00581375697809,8.0,17.0,25.0,26.019223662515376,17.029386365926403,57.0087712549569,40.01249804748511,32.5,35.0,34.0,17.5,22.5,5.5,10.5,8.0,8.0,8.5,32.0,39.0,40.049968789001575,{},{}
119,119,17,0,3.966666666666656,16.0,86.05230967266364,8.0,16.0,25.0,28.0,16.0312195418814,56.00892785976178,40.01249804748511,32.0,36.0,33.0,18.5,21.5,4.5,10.5,9.0,9.055385138137416,9.0,33.0,40.0,38.05259518088089,{},{}
120,120,17,0,3.999999999999989,16.0,86.02325267042627,8.0,16.0,24.0,26.0,17.11724276862369,57.0350769263968,41.04875150354759,33.0,37.0,35.0,19.0,21.0,4.0,11.0,9.055385138137416,9.055385138137416,9.5,33.0,41.0,36.12478373637688,{},{}
121,121,17,0,4.033333333333323,16.0312195418814,86.02325267042627,8.06225774829855,17.029386365926403,25.019992006393608,27.018512172212592,17.029386365926403,58.034472514187634,41.01219330881976,33.0,37.0,35.0,19.0,22.0,4.0,12.0,9.0,9.0,9.0,32.0,39.0,40.049968789001575,{},{}
122,122,17,0,4.066666666666656,16.0312195418814,85.14693182963201,8.06225774829855,16.0312195418814,25.019992006393608,27.018512172212592,17.11724276862369,57.07889277132134,41.04875150354759,33.0,38.0,33.0,18.5,21.5,5.5,11.5,9.0,9.055385138137416,9.5,30.0,39.0,36.22154055254967,{},{}
123,123,17,0,4.099999999999989,17.029386365926403,85.14693182963201,9.055385138137416,16.0312195418814,24.020824298928627,27.0,17.26267650163207,59.13543776789008,43.10452412450461,34.5,40.0,35.0,20.5,21.5,5.5,12.5,8.0,8.06225774829855,8.0,29.0,41.0,39.20459156782532,{},{}
124,124,17,0,4.133333333333322,19.026297590440446,84.2140130857092,9.055385138137416,16.1245154965971,23.08679276123039,26.019223662515376,15.132745950421556,59.13543776789008,43.04648650006177,33.5,39.0,33.0,21.0,23.0,7.0,13.0,5.0,5.0990195135927845,5.5,31.0,42.0,41.30375285612676,{},{}
125,125,17,0,4.166666666666655,20.0,87.36704184073076,9.055385138137416,15.033296378372908,24.020824298928627,26.0768096208106,15.297058540778355,59.21148537234985,44.181444068749045,34.0,41.0,33.0,22.0,22.0,7.0,14.0,4.123105625617661,5.0990195135927845,5.0,29.0,43.0,38.47076812334269,{},{}
126,126,17,0,4.199999999999989,21.0,85.28774824088158,8.06225774829855,15.033296378372908,23.021728866442675,27.073972741361768,15.297058540778355,59.21148537234985,44.181444068749045,33.5,40.0,33.0,21.5,22.5,7.5,13.5,5.0990195135927845,4.123105625617661,4.5,31.0,45.0,37.33630940518894,{},{}
127,127,17,0,4.233333333333322,21.0,81.39410298049853,8.246211251235321,16.1245154965971,23.08679276123039,26.1725046566048,16.0312195418814,61.20457499239743,45.09988913511872,34.5,42.0,34.0,22.0,23.0,7.0,16.0,3.605551275463989,4.0,4.0,28.0,43.0,37.48332962798263,{},{}
128,128,17,0,4.266666666666655,24.020824298928627,82.38931969618392,7.071067811865476,16.1245154965971,23.08679276123039,25.079872407968907,18.110770276274835,65.27633568147036,49.16299421312742,37.0,44.0,36.0,22.0,25.0,10.0,17.0,6.324555320336759,6.324555320336759,6.0,23.0,40.0,36.87817782917155,{},{}
129,129,17,0,4.299999999999988,23.021728866442675,79.51100552753688,7.071067811865476,15.132745950421556,22.09072203437452,24.186773244895647,18.24828759089466,63.38769596696192,48.25971404805462,36.5,43.0,34.0,20.5,24.5,9.5,14.5,8.06225774829855,7.280109889280518,7.0,25.0,41.0,38.8329756778952,{},{}
130,130,17,0,4.3333333333333215,24.020824298928627,81.30190649671138,7.071067811865476,16.0312195418814,24.08318915758459,26.0768096208106,18.027756377319943,65.12296062065974,49.09175083453431,37.0,43.0,36.0,21.5,25.5,9.5,15.5,7.071067811865476,8.246211251235321,7.5,23.0,39.0,39.81205847478876,{},{}
131,131,17,0,4.366666666666655,19.026297590440446,83.38465086573187,7.071067811865476,16.0312195418814,22.09072203437452,25.179356624028344,19.235384061671343,61.29437168288782,45.27692569068709,35.5,42.0,34.0,19.0,23.0,7.0,14.0,11.04536101718726,10.04987562112089,10.5,26.0,32.0,40.19950248448356,{},{}
132,132,17,0,4.399999999999988,7.071067811865476,77.23341245859851,9.055385138137416,15.0,20.024984394500787,21.02379604162864,21.095023109728988,52.15361924162119,37.21558813185679,33.5,39.0,33.0,15.0,16.0,1.0,7.0,10.0,12.0,12.0,28.0,34.0,43.18564576337837,{},{}
133,133,17,0,4.433333333333321,10.04987562112089,83.38465086573187,8.06225774829855,15.033296378372908,23.194827009486403,26.1725046566048,17.11724276862369,50.24937810560445,35.22782990761707,30.0,38.0,30.0,17.0,16.0,1.0,11.0,8.06225774829855,9.055385138137416,9.0,27.0,46.0,38.63935817272331,{},{}
134,134,17,0,4.466666666666654,11.0,83.38465086573187,8.06225774829855,15.033296378372908,24.08318915758459,25.079872407968907,17.26267650163207,51.24451190127583,36.22154055254967,30.5,39.0,31.0,18.0,16.0,1.0,11.0,8.06225774829855,9.055385138137416,8.5,27.0,45.0,36.6742416417845,{},{}
135,135,17,0,4.499999999999988,11.0,82.38931969618392,7.071067811865476,15.033296378372908,23.08679276123039,25.079872407968907,18.110770276274835,51.15662224971465,36.12478373637688,30.5,39.0,31.0,17.0,16.0,1.0,11.0,8.06225774829855,8.246211251235321,8.0,26.0,45.0,37.8549864614954,{},{}
136,136,17,0,4.533333333333321,14.0,83.48652585896721,7.071067811865476,16.0312195418814,24.08318915758459,25.179356624028344,17.11724276862369,54.147945482723536,38.11823710509184,31.0,40.0,31.0,18.5,18.5,3.5,12.5,8.06225774829855,9.055385138137416,9.0,26.0,44.0,37.8549864614954,{},{}
137,137,17,0,4.566666666666654,19.0,83.48652585896721,7.071067811865476,17.029386365926403,24.08318915758459,26.0768096208106,17.11724276862369,60.13318551349163,43.10452412450461,33.5,41.0,32.0,19.5,23.5,6.5,13.5,8.06225774829855,9.219544457292889,9.0,27.0,45.0,38.63935817272331,{},{}
138,138,17,0,4.599999999999987,23.0,85.37564055396598,7.071067811865476,16.0312195418814,25.079872407968907,28.16025568065745,16.1245154965971,62.12889826803627,46.09772228646444,34.5,39.0,31.0,19.0,27.0,11.0,13.0,9.055385138137416,9.055385138137416,9.0,26.0,44.0,38.47076812334269,{},{}
139,139,17,0,4.63333333333332,22.02271554554524,86.28441342444185,8.06225774829855,15.033296378372908,24.08318915758459,27.16615541441225,15.132745950421556,60.20797289396148,45.17742799230607,34.0,38.0,31.0,19.5,25.5,10.5,13.5,8.06225774829855,8.06225774829855,8.5,26.0,44.0,38.47076812334269,{},{}
140,140,17,0,4.666666666666654,22.02271554554524,86.37129152675674,7.071067811865476,16.0312195418814,24.08318915758459,27.16615541441225,17.11724276862369,62.20128616033595,46.17358552246078,35.0,39.0,31.0,18.0,27.0,12.0,13.0,8.06225774829855,9.055385138137416,9.0,26.0,44.0,40.60788100849391,{},{}
141,141,17,0,4.699999999999987,21.0,88.36288813749809,7.071067811865476,15.033296378372908,25.079872407968907,27.073972741361768,16.278820596099706,59.21148537234985,44.181444068749045,33.5,38.0,30.0,18.0,25.0,10.0,12.0,9.055385138137416,9.219544457292889,9.0,27.0,43.0,36.6742416417845,{},{}
142,142,17,0,4.73333333333332,19.0,87.28115489611719,7.071067811865476,15.033296378372908,25.079872407968907,26.1725046566048,17.11724276862369,58.137767414994535,43.10452412450461,33.5,38.0,31.0,17.5,23.5,8.5,11.5,8.06225774829855,9.219544457292889,9.5,29.0,45.0,35.510561809129406,{},{}
143,143,17,0,4.766666666666653,17.0,87.20665112249179,8.06225774829855,16.0312195418814,25.019992006393608,27.073972741361768,16.278820596099706,57.21887800367987,41.19465984809196,32.5,36.0,30.0,17.0,24.0,8.0,10.0,8.06225774829855,9.219544457292889,8.5,29.0,44.0,38.47076812334269,{},{}
144,144,17,0,4.7999999999999865,20.0,88.20430828479978,8.06225774829855,15.033296378372908,26.019223662515376,28.0713376952364,17.11724276862369,60.13318551349163,45.09988913511872,35.0,38.0,32.0,18.0,25.0,9.0,11.0,9.055385138137416,9.219544457292889,9.0,29.0,44.0,37.48332962798263,{},{}
145,145,17,0,4.83333333333332,18.0,88.2779700718135,8.06225774829855,16.1245154965971,25.079872407968907,27.073972741361768,17.11724276862369,59.21148537234985,43.10452412450461,34.0,38.0,31.0,17.5,24.5,9.5,10.5,8.06225774829855,9.055385138137416,8.5,29.0,44.0,39.6232255123179,{},{}
146,146,17,0,4.866666666666653,20.0,87.36704184073076,7.071067811865476,17.029386365926403,24.08318915758459,26.0768096208106,17.26267650163207,61.20457499239743,44.181444068749045,34.0,38.0,30.0,17.0,27.0,10.0,11.0,7.0,8.06225774829855,8.0,27.0,42.0,39.20459156782532,{},{}
147,147,17,0,4.899999999999986,19.0,89.20201791439474,8.06225774829855,17.029386365926403,24.08318915758459,26.0768096208106,18.24828759089466,62.20128616033595,45.17742799230607,35.5,38.0,32.0,17.0,27.0,10.0,11.0,9.055385138137416,10.198039027185567,9.5,31.0,44.0,35.510561809129406,{},{}
148,148,17,0,4.933333333333319,10.04987562112089,83.15046602394962,8.06225774829855,14.0356688476182,23.021728866442675,25.079872407968907,18.110770276274835,50.08991914547278,36.05551275463989,31.0,37.0,32.0,16.5,15.5,1.5,9.5,9.219544457292889,9.055385138137416,8.5,29.0,44.0,37.48332962798263,{},{}
149,149,17,0,4.966666666666653,10.04987562112089,82.09750300709517,8.06225774829855,14.0356688476182,23.021728866442675,24.020824298928627,18.027756377319943,50.039984012787215,36.013886210738214,31.0,36.0,32.0,16.0,16.0,1.0,9.0,10.04987562112089,10.198039027185567,9.5,29.0,44.0,37.48332962798263,{},{}
150,150,17,0,4.999999999999986,12.0,81.09870529176159,7.0,16.0312195418814,23.0,25.079872407968907,18.027756377319943,53.03772242470448,37.01351104664349,31.0,37.0,33.0,17.0,18.0,2.0,10.0,8.0,9.219544457292889,9.0,30.0,44.0,41.19465984809196,{},{}
151,151,17,0,5.033333333333319,13.0,82.15229759416349,7.071067811865476,18.0,23.021728866442675,24.08318915758459,17.029386365926403,55.03635162326805,37.05401462729781,30.5,37.0,32.0,17.5,20.5,2.5,11.5,8.0,9.219544457292889,9.5,29.0,43.0,38.2099463490856,{},{}
152,152,17,0,5.066666666666652,14.0,88.14193099768123,8.0,16.0,25.019992006393608,27.018512172212592,15.132745950421556,53.03772242470448,37.05401462729781,30.0,34.0,29.0,16.5,21.5,5.5,9.5,10.04987562112089,9.055385138137416,9.0,27.0,40.0,37.48332962798263,{},{}
153,153,17,0,5.099999999999985,16.0312195418814,89.20201791439474,8.0,16.0312195418814,25.019992006393608,27.073972741361768,16.1245154965971,56.0357029044876,40.01249804748511,32.0,36.0,30.0,17.0,23.0,7.0,10.0,9.055385138137416,9.219544457292889,9.0,29.0,44.0,38.47076812334269,{},{}
154,154,17,0,5.133333333333319,15.0,89.1403387922662,8.0,15.0,25.019992006393608,26.0768096208106,15.297058540778355,53.08483775994799,38.11823710509184,30.5,33.0,28.0,15.5,22.5,7.5,8.5,7.280109889280518,7.071067811865476,7.0,30.0,43.0,37.33630940518894,{},{}
155,155,17,0,5.166666666666652,16.0,89.27485648266257,8.0,14.0356688476182,24.08318915758459,25.079872407968907,15.297058540778355,53.150729063673246,39.11521443121589,31.0,34.0,27.0,15.5,22.5,7.5,8.5,9.219544457292889,8.0,8.0,28.0,42.0,37.33630940518894,{},{}
156,156,17,0,5.199999999999985,15.0,90.19977827023745,8.0,15.033296378372908,24.08318915758459,26.1725046566048,15.297058540778355,53.150729063673246,38.11823710509184,30.5,32.0,26.0,14.0,24.0,8.0,8.0,10.04987562112089,9.055385138137416,9.5,28.0,43.0,38.3275357934736,{},{}
157,157,17,0,5.233333333333318,13.0,91.26883367283708,8.0,16.0,26.0768096208106,28.0713376952364,17.11724276862369,54.037024344425184,38.05259518088089,31.5,33.0,26.0,12.5,24.5,8.5,6.5,8.06225774829855,8.06225774829855,8.0,28.0,43.0,36.345563690772494,{},{}
158,158,17,0,5.266666666666652,13.0,91.26883367283708,9.055385138137416,16.0,27.073972741361768,28.16025568065745,16.1245154965971,54.08326913195984,38.11823710509184,31.5,33.0,26.0,13.5,24.5,7.5,6.5,9.055385138137416,8.06225774829855,8.0,29.0,45.0,39.319206502675,{},{}
159,159,17,0,5.299999999999985,17.0,91.19758768739445,9.0,17.029386365926403,25.019992006393608,27.018512172212592,17.11724276862369,60.07495318350236,43.04648650006177,34.5,34.0,28.0,14.0,29.0,11.0,7.0,6.0,7.0,7.0,30.0,44.0,38.2099463490856,{},{}
160,160,17,0,5.333333333333318,18.027756377319943,90.13878188659972,9.055385138137416,17.029386365926403,24.020824298928627,27.018512172212592,19.1049731745428,63.07138812488592,46.04345773288535,37.0,36.0,31.0,14.5,29.5,12.5,6.5,8.0,8.06225774829855,8.5,30.0,45.0,40.311288741492746,{},{}
161,161,17,0,5.366666666666651,6.082762530298219,87.20665112249179,10.04987562112089,17.029386365926403,25.019992006393608,26.019223662515376,23.08679276123039,56.08029957123981,39.05124837953327,36.0,37.0,31.0,11.0,22.0,4.0,3.0,9.0,9.055385138137416,8.5,29.0,43.0,38.3275357934736,{},{}
162,162,17,0,5.399999999999984,0.0,86.28441342444185,8.06225774829855,12.041594578792296,23.021728866442675,23.021728866442675,25.079872407968907,45.17742799230607,33.13608305156178,33.0,36.0,29.0,7.5,12.5,0.5,1.5,10.0,9.055385138137416,9.5,30.0,44.0,39.319206502675,{},{}
163,163,17,0,5.433333333333318,1.4142135623730951,85.21150157109074,8.0,12.041594578792296,23.021728866442675,23.08679276123039,25.079872407968907,46.17358552246078,34.132096331752024,33.5,36.0,30.0,8.0,13.0,1.0,2.0,9.0,9.055385138137416,9.0,29.0,43.0,38.3275357934736,{},{}
164,164,17,0,5.466666666666651,1.0,86.28441342444185,9.055385138137416,13.038404810405298,23.021728866442675,23.08679276123039,23.021728866442675,46.09772228646444,33.06055050963308,32.5,36.0,29.0,9.5,13.5,0.5,2.5,9.055385138137416,9.055385138137416,9.0,29.0,44.0,40.311288741492746,{},{}
165,165,17,0,5.499999999999984,1.0,87.28115489611719,12.041594578792296,17.029386365926403,25.019992006393608,26.0768096208106,21.02379604162864,51.0881590977792,34.058772731852805,33.5,37.0,30.0,12.5,17.5,0.5,2.5,10.04987562112089,9.055385138137416,9.0,29.0,44.0,39.20459156782532,{},{}
166,166,17,0,5.533333333333317,19.0,89.35882720806042,10.0,17.029386365926403,24.08318915758459,26.1725046566048,17.26267650163207,63.12685640834652,46.09772228646444,36.5,38.0,30.0,17.0,29.0,12.0,9.0,9.0,9.055385138137416,9.5,30.0,45.0,40.19950248448356,{},{}
167,167,17,0,5.56666666666665,22.0,87.46427842267951,9.0,16.0312195418814,26.0768096208106,28.16025568065745,17.26267650163207,64.1248781675256,48.0936586256442,37.0,39.0,30.0,17.5,29.5,13.5,10.5,9.0,10.198039027185567,10.0,28.0,44.0,38.3275357934736,{},{}
168,168,17,0,5.599999999999984,23.0,87.46427842267951,8.06225774829855,16.0,25.019992006393608,28.0713376952364,17.11724276862369,64.07027391856539,48.0936586256442,36.5,39.0,30.0,17.5,29.5,13.5,10.5,9.055385138137416,10.04987562112089,10.0,29.0,44.0,41.19465984809196,{},{}
169,169,17,0,5.633333333333317,22.02271554554524,88.45903006477066,9.055385138137416,17.029386365926403,25.079872407968907,28.16025568065745,16.278820596099706,64.1248781675256,47.09564735726647,36.0,39.0,30.0,18.5,29.5,12.5,11.5,10.0,10.04987562112089,10.0,29.0,44.0,42.190046219457976,{},{}
170,170,17,0,5.66666666666665,22.02271554554524,88.45903006477066,9.0,17.029386365926403,25.179356624028344,27.16615541441225,16.278820596099706,64.19501538281614,47.16990566028302,36.0,40.0,31.0,19.5,28.5,11.5,12.5,10.0,9.055385138137416,9.5,28.0,43.0,34.36568055487916,{},{}
171,171,17,0,5.699999999999983,21.0,89.35882720806042,8.0,17.11724276862369,25.079872407968907,27.16615541441225,17.46424919657298,63.28506932918696,46.17358552246078,35.5,38.0,30.0,17.0,29.0,12.0,11.0,10.0,9.0,9.5,29.0,44.0,40.19950248448356,{},{}
172,172,17,0,5.7333333333333165,22.0,88.36288813749809,8.06225774829855,16.0,27.073972741361768,28.16025568065745,15.297058540778355,61.1310068623117,45.17742799230607,34.0,37.0,29.0,18.0,28.0,11.0,11.0,9.055385138137416,9.055385138137416,9.5,27.0,42.0,38.3275357934736,{},{}
173,173,17,0,5.76666666666665,21.0,89.27485648266257,8.0,17.029386365926403,26.019223662515376,27.16615541441225,16.278820596099706,62.12889826803627,45.09988913511872,34.5,37.0,30.0,17.5,28.5,11.5,10.5,9.055385138137416,9.055385138137416,9.0,29.0,43.0,38.3275357934736,{},{}
174,174,17,0,5.799999999999983,22.0,89.35882720806042,8.06225774829855,17.029386365926403,26.0768096208106,27.16615541441225,16.278820596099706,63.198101237299845,46.17358552246078,35.0,38.0,30.0,18.0,29.0,12.0,11.0,10.04987562112089,10.04987562112089,10.5,30.0,44.0,38.2099463490856,{},{}
175,175,17,0,5.833333333333316,22.0,88.36288813749809,8.06225774829855,16.0312195418814,27.073972741361768,28.16025568065745,16.278820596099706,62.20128616033595,46.17358552246078,35.0,37.0,29.0,17.0,29.0,12.0,10.0,10.04987562112089,8.06225774829855,8.5,27.0,41.0,38.47076812334269,{},{}
176,176,17,0,5.866666666666649,23.0,88.36288813749809,8.0,16.0312195418814,25.079872407968907,27.16615541441225,16.492422502470642,63.198101237299845,47.16990566028302,35.5,38.0,30.0,18.0,29.0,13.0,11.0,8.0,9.055385138137416,8.5,29.0,43.0,37.33630940518894,{},{}
177,177,17,0,5.899999999999983,23.0,89.45389874119518,8.06225774829855,17.029386365926403,25.079872407968907,27.16615541441225,16.492422502470642,64.28063471995279,47.265209192385896,35.5,39.0,30.0,18.5,29.5,12.5,11.5,9.055385138137416,10.198039027185567,9.5,30.0,44.0,40.311288741492746,{},{}
178,178,17,0,5.933333333333316,27.0,87.46427842267951,8.06225774829855,15.033296378372908,25.079872407968907,28.0713376952364,17.11724276862369,67.11929677819934,52.08646657242167,38.5,41.0,32.0,19.5,30.5,15.5,12.5,9.0,9.055385138137416,9.0,28.0,42.0,39.45883931389772,{},{}
179,179,17,0,5.966666666666649,26.0,89.45389874119518,7.071067811865476,16.0312195418814,26.0768096208106,28.16025568065745,17.11724276862369,66.12110101926616,50.08991914547278,37.0,40.0,31.0,18.5,30.5,14.5,12.5,9.055385138137416,9.055385138137416,9.0,28.0,44.0,39.319206502675,{},{}
180,180,17,0,5.999999999999982,21.0,88.45903006477066,8.06225774829855,16.0312195418814,25.079872407968907,28.0713376952364,16.1245154965971,61.1310068623117,45.09988913511872,34.5,39.0,30.0,18.5,26.5,11.5,11.5,8.246211251235321,8.246211251235321,8.0,28.0,43.0,36.49657518178932,{},{}
181,181,17,0,6.033333333333316,19.0,88.68483523128404,8.06225774829855,15.132745950421556,27.16615541441225,28.284271247461906,16.1245154965971,58.215118311311535,43.10452412450461,33.5,41.0,30.0,19.5,22.5,7.5,13.5,7.071067811865476,7.071067811865476,7.0,28.0,44.0,34.52535300326414,{},{}
182,182,17,0,6.066666666666649,20.0,87.5728268357257,8.06225774829855,15.132745950421556,25.079872407968907,27.16615541441225,15.132745950421556,58.215118311311535,43.10452412450461,33.0,40.0,30.0,20.0,23.0,8.0,13.0,6.082762530298219,6.324555320336759,6.0,27.0,43.0,34.713109915419565,{},{}
183,183,17,0,6.099999999999982,16.0312195418814,86.46964785403026,8.06225774829855,15.033296378372908,22.09072203437452,24.08318915758459,17.029386365926403,56.1426753904728,41.10960958218893,33.0,39.0,30.0,17.5,21.5,6.5,10.5,7.280109889280518,5.0990195135927845,5.5,28.0,43.0,37.33630940518894,{},{}
184,184,17,0,6.133333333333315,17.029386365926403,87.69264507357501,8.06225774829855,15.033296378372908,24.08318915758459,26.1725046566048,16.1245154965971,56.22277118748239,41.19465984809196,32.5,40.0,29.0,18.5,21.5,6.5,12.5,6.324555320336759,6.082762530298219,6.0,27.0,40.0,34.23448553724738,{},{}
185,185,17,0,6.166666666666648,17.0,87.5728268357257,9.055385138137416,16.1245154965971,25.079872407968907,27.16615541441225,16.1245154965971,58.215118311311535,42.1070065428546,33.5,41.0,31.0,20.0,22.0,6.0,13.0,5.385164807134504,5.0990195135927845,4.5,28.0,43.0,34.52535300326414,{},{}
186,186,17,0,6.1999999999999815,20.0,85.58621384311844,9.055385138137416,16.1245154965971,25.079872407968907,26.1725046566048,15.132745950421556,60.20797289396148,44.10215414239989,34.0,40.0,30.0,20.0,25.0,9.0,12.0,6.082762530298219,5.0990195135927845,5.5,28.0,43.0,37.48332962798263,{},{}
187,187,17,0,6.233333333333315,20.0,85.58621384311844,9.055385138137416,15.033296378372908,24.08318915758459,26.1725046566048,16.278820596099706,60.20797289396148,45.17742799230607,35.0,41.0,31.0,20.0,24.0,9.0,13.0,6.082762530298219,7.071067811865476,6.5,27.0,43.0,35.510561809129406,{},{}
188,188,17,0,6.266666666666648,18.027756377319943,86.46964785403026,8.06225774829855,16.1245154965971,25.079872407968907,27.073972741361768,16.1245154965971,58.137767414994535,42.04759208325728,33.0,39.0,30.0,18.5,23.5,7.5,11.5,9.055385138137416,8.06225774829855,8.5,26.0,43.0,34.36568055487916,{},{}
189,189,17,0,6.299999999999981,15.0,86.46964785403026,9.055385138137416,15.033296378372908,26.0768096208106,28.16025568065745,14.142135623730953,53.150729063673246,38.11823710509184,30.5,37.0,28.0,18.5,20.5,5.5,10.5,9.055385138137416,9.219544457292889,8.5,29.0,44.0,38.47076812334269,{},{}
190,190,17,0,6.333333333333314,14.0,87.46427842267951,9.0,14.0356688476182,26.0768096208106,28.16025568065745,15.297058540778355,52.15361924162119,38.11823710509184,31.0,37.0,28.0,17.5,19.5,5.5,10.5,10.04987562112089,10.04987562112089,9.5,27.0,43.0,36.49657518178932,{},{}
191,191,17,0,6.366666666666648,15.0,88.45903006477066,8.0,14.142135623730953,26.1725046566048,28.0713376952364,16.1245154965971,53.150729063673246,39.05124837953327,31.5,38.0,29.0,17.5,19.5,5.5,11.5,8.06225774829855,9.219544457292889,8.5,28.0,45.0,36.49657518178932,{},{}
192,192,17,0,6.399999999999981,15.0,88.36288813749809,9.055385138137416,14.0356688476182,25.079872407968907,28.16025568065745,15.033296378372908,53.08483775994799,39.05124837953327,31.5,37.0,29.0,18.0,20.0,6.0,10.0,9.055385138137416,9.055385138137416,9.5,29.0,46.0,33.54101966249684,{},{}
193,193,17,0,6.433333333333314,19.026297590440446,85.28774824088158,8.06225774829855,16.0312195418814,24.186773244895647,26.1725046566048,16.1245154965971,59.07622195096772,43.04648650006177,33.5,38.0,31.0,18.5,24.5,8.5,12.5,9.055385138137416,10.198039027185567,9.5,30.0,47.0,34.713109915419565,{},{}
194,194,17,0,6.466666666666647,16.0312195418814,84.38009243891595,8.06225774829855,16.0312195418814,23.08679276123039,25.079872407968907,17.11724276862369,57.07889277132134,41.04875150354759,33.0,38.0,30.0,17.0,23.0,8.0,10.0,8.06225774829855,9.219544457292889,9.0,28.0,44.0,37.21558813185679,{},{}
195,195,17,0,6.4999999999999805,8.0,82.21921916437786,9.0,14.0356688476182,23.021728866442675,25.179356624028344,20.09975124224178,51.0881590977792,37.05401462729781,33.0,37.0,31.0,14.0,17.0,2.0,6.0,8.06225774829855,9.219544457292889,9.0,29.0,45.0,35.35533905932738,{},{}
196,196,17,0,6.533333333333314,1.0,81.2219182240853,10.04987562112089,14.0356688476182,23.08679276123039,24.08318915758459,23.021728866442675,48.0936586256442,34.058772731852805,33.5,37.0,31.0,11.0,14.0,0.0,3.0,9.055385138137416,9.219544457292889,9.0,30.0,46.0,34.52535300326414,{},{}
197,197,17,0,6.566666666666647,2.0,82.29823813423954,10.04987562112089,14.0356688476182,23.08679276123039,24.08318915758459,22.02271554554524,48.0936586256442,34.058772731852805,33.0,38.0,31.0,12.5,13.5,1.5,4.5,9.055385138137416,10.198039027185567,9.5,30.0,46.0,35.510561809129406,{},{}
198,198,17,0,6.59999999999998,1.0,85.37564055396598,11.04536101718726,16.0312195418814,24.08318915758459,25.079872407968907,23.08679276123039,51.15662224971465,35.12833614050059,34.5,39.0,31.0,12.0,16.0,0.0,3.0,9.0,9.219544457292889,9.5,28.0,42.0,36.6742416417845,{},{}
199,199,17,0,6.633333333333313,17.0,85.28774824088158,9.055385138137416,16.0,24.020824298928627,26.0768096208106,19.1049731745428,61.07372593840988,45.09988913511872,36.5,39.0,32.0,16.5,25.5,9.5,8.5,9.0,9.055385138137416,8.5,27.0,42.0,38.3275357934736,{},{}
200,200,17,0,6.666666666666647,20.0,88.36288813749809,8.06225774829855,16.0312195418814,25.079872407968907,27.16615541441225,18.110770276274835,62.12889826803627,46.09772228646444,36.0,39.0,31.0,17.0,27.0,11.0,10.0,9.0,9.055385138137416,9.0,27.0,41.0,39.319206502675,{},{}
201,201,17,0,6.69999999999998,20.0,87.28115489611719,8.06225774829855,16.0312195418814,24.08318915758459,26.0768096208106,17.029386365926403,61.07372593840988,45.044422518220834,35.0,39.0,32.0,18.5,25.5,9.5,11.5,8.0,8.246211251235321,8.0,27.0,41.0,37.33630940518894,{},{}
202,202,17,0,6.733333333333313,18.027756377319943,87.36704184073076,8.06225774829855,15.033296378372908,25.019992006393608,26.0768096208106,17.029386365926403,58.034472514187634,43.01162633521314,34.0,39.0,31.0,18.0,23.0,8.0,11.0,8.06225774829855,9.055385138137416,9.0,28.0,42.0,40.19950248448356,{},{}
203,203,17,0,6.766666666666646,14.0,85.21150157109074,8.0,18.027756377319943,26.0768096208106,27.018512172212592,16.278820596099706,56.1426753904728,38.11823710509184,31.0,37.0,31.0,18.0,22.0,4.0,11.0,8.0,8.06225774829855,8.5,29.0,43.0,38.3275357934736,{},{}
204,204,17,0,6.799999999999979,13.0,82.21921916437786,7.0,16.0,25.019992006393608,26.0768096208106,18.110770276274835,54.037024344425184,38.05259518088089,31.5,37.0,31.0,16.0,20.0,3.0,10.0,9.0,9.055385138137416,9.5,28.0,42.0,35.35533905932738,{},{}
205,205,17,0,6.833333333333313,10.0,82.21921916437786,9.055385138137416,17.029386365926403,23.021728866442675,25.079872407968907,17.029386365926403,53.08483775994799,36.05551275463989,31.0,37.0,31.0,17.0,19.0,2.0,9.0,8.0,8.06225774829855,8.0,29.0,42.0,35.22782990761707,{},{}
206,206,17,0,6.866666666666646,10.0,82.15229759416349,9.0,17.029386365926403,24.020824298928627,26.0768096208106,17.26267650163207,53.150729063673246,36.12478373637688,31.0,36.0,31.0,16.5,19.5,2.5,8.5,7.071067811865476,8.06225774829855,8.0,29.0,42.0,35.22782990761707,{},{}
207,207,17,0,6.899999999999979,11.0,81.15417426109393,8.0,17.029386365926403,24.08318915758459,25.079872407968907,18.110770276274835,54.08326913195984,37.05401462729781,31.5,37.0,32.0,16.5,19.5,1.5,9.5,9.055385138137416,9.055385138137416,9.0,27.0,42.0,35.22782990761707,{},{}
208,208,17,0,6.933333333333312,19.0,84.29116205154607,8.06225774829855,18.027756377319943,24.08318915758459,26.1725046566048,16.0312195418814,61.07372593840988,43.04648650006177,33.5,39.0,32.0,19.5,25.5,7.5,12.5,9.0,8.06225774829855,8.5,27.0,42.0,37.33630940518894,{},{}
209,209,17,0,6.9666666666666455,23.021728866442675,84.38009243891595,8.06225774829855,17.029386365926403,24.08318915758459,26.1725046566048,17.11724276862369,65.06919393998976,48.04164859785725,36.5,40.0,32.0,19.0,29.0,12.0,12.0,9.0,9.055385138137416,9.0,29.0,44.0,37.33630940518894,{},{}
210,210,17,0,6.999999999999979,25.0,87.36704184073076,8.06225774829855,17.029386365926403,25.079872407968907,27.073972741361768,17.11724276862369,67.11929677819934,50.08991914547278,37.5,42.0,34.0,21.0,29.0,12.0,14.0,5.0,6.082762530298219,5.5,27.0,42.0,37.33630940518894,{},{}
211,211,17,0,7.033333333333312,25.0,87.46427842267951,9.055385138137416,17.029386365926403,25.079872407968907,28.16025568065745,16.1245154965971,67.11929677819934,50.08991914547278,37.5,41.0,32.0,20.5,30.5,13.5,13.5,6.082762530298219,6.082762530298219,6.0,29.0,43.0,36.345563690772494,{},{}
212,212,17,0,7.066666666666645,26.0,87.36704184073076,8.06225774829855,17.029386365926403,25.079872407968907,28.16025568065745,17.11724276862369,68.11754546370561,51.0881590977792,38.0,42.0,34.0,21.0,30.0,13.0,14.0,5.0990195135927845,5.0990195135927845,5.0,28.0,43.0,40.19950248448356,{},{}
213,213,17,0,7.099999999999978,17.0,89.27485648266257,8.06225774829855,15.033296378372908,25.079872407968907,27.16615541441225,17.11724276862369,57.14017850864661,42.1070065428546,33.5,38.0,31.0,17.5,22.5,7.5,10.5,5.0990195135927845,5.0990195135927845,5.0,30.0,44.0,35.510561809129406,{},{}
214,214,17,0,7.133333333333312,13.038404810405298,88.2779700718135,9.055385138137416,16.0312195418814,25.079872407968907,27.073972741361768,17.11724276862369,55.08175741568164,39.05124837953327,32.5,37.0,30.0,16.5,21.5,5.5,8.5,5.0990195135927845,5.0990195135927845,5.0,29.0,44.0,33.734255586866,{},{}
215,215,17,0,7.166666666666645,8.06225774829855,85.28774824088158,9.055385138137416,15.033296378372908,24.020824298928627,25.079872407968907,20.09975124224178,52.08646657242167,37.05401462729781,33.0,37.0,30.0,13.5,18.5,3.5,5.5,7.280109889280518,7.280109889280518,6.5,30.0,45.0,36.6742416417845,{},{}
216,216,17,0,7.199999999999978,8.06225774829855,84.29116205154607,10.04987562112089,16.0312195418814,23.021728866442675,25.019992006393608,19.1049731745428,53.08483775994799,37.05401462729781,33.0,37.0,30.0,14.5,19.5,3.5,5.5,7.071067811865476,6.082762530298219,6.0,30.0,46.0,35.510561809129406,{},{}
217,217,17,0,7.233333333333311,3.0,82.29823813423954,9.055385138137416,15.033296378372908,23.08679276123039,25.079872407968907,23.021728866442675,50.08991914547278,35.05709628591621,33.5,37.0,30.0,10.5,16.5,1.5,3.5,7.280109889280518,7.071067811865476,7.0,30.0,46.0,36.6742416417845,{},{}
218,218,17,0,7.266666666666644,8.0,88.2779700718135,9.055385138137416,16.0312195418814,24.08318915758459,26.0768096208106,22.02271554554524,55.08175741568164,39.05124837953327,35.0,37.0,30.0,11.5,21.5,5.5,4.5,7.280109889280518,6.082762530298219,6.0,30.0,45.0,33.54101966249684,{},{}
219,219,17,0,7.299999999999978,15.033296378372908,87.36704184073076,9.055385138137416,15.033296378372908,24.020824298928627,26.1725046566048,18.24828759089466,57.14017850864661,42.1070065428546,34.5,37.0,29.0,15.0,24.0,9.0,7.0,7.071067811865476,7.071067811865476,6.0,30.0,46.0,36.6742416417845,{},{}
220,220,17,0,7.333333333333311,16.0,88.36288813749809,9.055385138137416,16.0312195418814,25.079872407968907,27.16615541441225,16.1245154965971,57.14017850864661,41.10960958218893,33.0,36.0,28.0,16.0,25.0,8.0,8.0,7.071067811865476,8.246211251235321,7.5,31.0,47.0,38.63935817272331,{},{}
221,221,17,0,7.366666666666644,15.0,89.35882720806042,9.055385138137416,16.0312195418814,25.079872407968907,27.16615541441225,16.1245154965971,56.1426753904728,40.11234224026316,32.5,36.0,28.0,16.0,24.0,9.0,9.0,8.246211251235321,7.071067811865476,7.0,29.0,45.0,39.6232255123179,{},{}
222,222,17,0,7.399999999999977,15.0,88.56635930193812,9.055385138137416,16.1245154965971,24.186773244895647,26.1725046566048,17.26267650163207,57.3149195236284,41.19465984809196,33.5,38.0,28.0,16.0,24.0,8.0,9.0,8.06225774829855,7.280109889280518,7.5,29.0,43.0,44.7213595499958,{},{}
223,223,17,0,7.4333333333333105,14.0,89.67719888578144,9.055385138137416,16.1245154965971,24.08318915758459,27.16615541441225,17.26267650163207,56.32051136131489,40.19950248448356,33.0,38.0,27.0,15.5,23.5,7.5,8.5,9.055385138137416,9.055385138137416,8.5,27.0,44.0,37.65634076752546,{},{}
224,224,17,0,7.466666666666644,19.0,86.70063436907483,9.055385138137416,16.1245154965971,26.0768096208106,28.16025568065745,16.1245154965971,60.20797289396148,44.10215414239989,34.5,40.0,29.0,18.5,25.5,9.5,10.5,8.06225774829855,9.219544457292889,8.5,26.0,42.0,40.44749683231337,{},{}
225,225,17,0,7.499999999999977,18.0,87.5728268357257,9.055385138137416,16.1245154965971,25.079872407968907,27.16615541441225,17.11724276862369,60.20797289396148,44.10215414239989,35.0,38.0,28.0,16.0,27.0,11.0,9.0,9.219544457292889,9.219544457292889,8.5,27.0,43.0,39.319206502675,{},{}
226,226,17,0,7.53333333333331,20.0,88.68483523128404,8.06225774829855,16.1245154965971,25.079872407968907,26.1725046566048,17.26267650163207,61.29437168288782,45.17742799230607,35.0,39.0,28.0,16.5,27.5,12.5,9.5,9.055385138137416,9.219544457292889,9.0,27.0,43.0,41.43669871020132,{},{}
227,227,17,0,7.566666666666643,20.024984394500787,86.70063436907483,8.06225774829855,15.132745950421556,26.1725046566048,27.16615541441225,15.132745950421556,58.30951894845301,43.18564576337837,33.0,39.0,28.0,18.5,24.5,9.5,12.5,10.04987562112089,9.219544457292889,9.5,28.0,45.0,40.44749683231337,{},{}
228,228,17,0,7.599999999999976,16.0312195418814,83.60023923410746,8.06225774829855,17.029386365926403,23.08679276123039,24.33105012119288,16.1245154965971,57.21887800367987,40.19950248448356,32.0,41.0,31.0,20.0,21.0,5.0,14.0,9.219544457292889,10.04987562112089,10.0,27.0,44.0,38.63935817272331,{},{}
229,229,17,0,7.63333333333331,12.041594578792296,84.71717653463199,8.06225774829855,17.11724276862369,22.20360331117452,24.33105012119288,19.1049731745428,56.32051136131489,39.20459156782532,33.0,39.0,28.0,14.5,22.5,6.5,8.5,10.04987562112089,10.198039027185567,10.0,27.0,44.0,40.44749683231337,{},{}
230,230,17,0,7.666666666666643,15.033296378372908,83.72574275573791,8.06225774829855,17.029386365926403,23.194827009486403,25.179356624028344,16.278820596099706,56.32051136131489,39.319206502675,31.5,41.0,30.0,19.5,20.5,4.5,13.5,10.04987562112089,10.198039027185567,9.5,27.0,45.0,39.6232255123179,{},{}
231,231,17,0,7.699999999999976,17.0,83.72574275573791,8.06225774829855,16.0312195418814,24.08318915758459,26.1725046566048,14.317821063276352,55.22680508593631,39.20459156782532,30.5,40.0,29.0,20.5,20.5,4.5,14.5,10.04987562112089,10.04987562112089,10.0,27.0,45.0,38.63935817272331,{},{}
232,232,17,0,7.733333333333309,16.0312195418814,81.61494961096282,8.06225774829855,17.029386365926403,23.194827009486403,24.186773244895647,15.524174696260024,56.43580423808985,39.45883931389772,31.0,40.0,30.0,20.0,21.0,5.0,15.0,10.198039027185567,11.180339887498947,10.5,28.0,45.0,35.510561809129406,{},{}
233,233,17,0,7.766666666666643,15.0,82.49242389456137,8.0,17.029386365926403,25.079872407968907,26.1725046566048,15.297058540778355,55.14526271584895,38.11823710509184,30.5,39.0,30.0,19.5,20.5,3.5,13.5,9.219544457292889,9.055385138137416,9.0,27.0,44.0,34.713109915419565,{},{}
234,234,17,0,7.799999999999976,15.033296378372908,82.49242389456137,8.06225774829855,17.11724276862369,25.079872407968907,27.16615541441225,15.297058540778355,55.22680508593631,38.11823710509184,30.5,39.0,30.0,19.5,20.5,4.5,12.5,11.04536101718726,10.198039027185567,9.5,27.0,45.0,38.63935817272331,{},{}
235,235,17,0,7.833333333333309,15.0,83.48652585896721,8.06225774829855,18.027756377319943,25.079872407968907,26.1725046566048,15.132745950421556,56.1426753904728,38.11823710509184,30.5,39.0,30.0,19.5,21.5,4.5,12.5,10.04987562112089,10.44030650891055,9.5,27.0,45.0,38.63935817272331,{},{}
236,236,17,0,7.866666666666642,15.0,82.49242389456137,8.0,16.0312195418814,24.186773244895647,25.317977802344327,16.278820596099706,55.14526271584895,39.11521443121589,31.5,40.0,31.0,19.5,19.5,3.5,13.5,10.04987562112089,10.198039027185567,10.0,27.0,44.0,38.63935817272331,{},{}
237,237,17,0,7.899999999999975,13.0,79.40403012442127,8.06225774829855,16.0312195418814,22.09072203437452,24.186773244895647,18.24828759089466,55.22680508593631,39.20459156782532,32.5,40.0,32.0,18.0,19.0,3.0,12.0,10.0,10.44030650891055,10.0,29.0,43.0,41.593268686170845,{},{}
238,238,17,0,7.933333333333309,8.0,77.41446893184762,8.06225774829855,17.029386365926403,20.09975124224178,22.09072203437452,19.235384061671343,52.23983154643591,35.22782990761707,31.0,39.0,31.0,16.0,17.0,0.0,9.0,8.06225774829855,7.071067811865476,7.0,31.0,47.0,34.713109915419565,{},{}
239,239,17,0,7.966666666666642,9.055385138137416,78.5175139698144,8.06225774829855,17.029386365926403,21.213203435596427,23.194827009486403,19.235384061671343,53.33854141237835,36.345563690772494,31.5,40.0,31.0,16.5,17.5,0.5,10.5,8.0,7.280109889280518,7.0,28.0,36.0,35.12833614050059,{},{}
240,240,17,0,7.999999999999975,9.055385138137416,77.41446893184762,8.06225774829855,17.029386365926403,21.095023109728988,22.20360331117452,20.223748416156685,54.3323108288245,37.33630940518894,32.5,40.0,32.0,16.0,18.0,1.0,10.0,9.055385138137416,8.06225774829855,8.0,25.0,32.0,34.0147027033899,{},{}
241,241,17,0,8.033333333333308,12.0,77.41446893184762,8.0,17.029386365926403,21.095023109728988,23.08679276123039,18.24828759089466,55.14526271584895,38.11823710509184,32.0,41.0,33.0,19.0,18.0,1.0,12.0,7.071067811865476,7.071067811865476,6.5,30.0,46.0,30.80584360149873,{},{}
242,242,17,0,8.066666666666642,13.0,79.51100552753688,9.055385138137416,18.027756377319943,21.213203435596427,23.194827009486403,17.26267650163207,57.21887800367987,39.20459156782532,32.5,41.0,32.0,19.5,20.5,2.5,12.5,8.0,8.246211251235321,8.0,29.0,38.0,36.22154055254967,{},{}
243,243,17,0,8.099999999999975,12.041594578792296,78.5175139698144,9.0,17.0,21.095023109728988,23.194827009486403,19.235384061671343,57.14017850864661,40.19950248448356,34.0,41.0,32.0,17.5,20.5,3.5,10.5,7.071067811865476,6.082762530298219,6.5,27.0,42.0,35.35533905932738,{},{}
244,244,17,0,8.133333333333308,14.0,81.49846624323675,8.06225774829855,17.029386365926403,22.09072203437452,24.186773244895647,17.26267650163207,56.22277118748239,39.20459156782532,32.0,40.0,31.0,18.5,20.5,4.5,11.5,8.06225774829855,8.06225774829855,7.5,28.0,44.0,36.49657518178932,{},{}
245,245,17,0,8.166666666666641,11.0,80.50465825031493,8.06225774829855,17.029386365926403,21.095023109728988,22.360679774997894,21.213203435596427,57.21887800367987,40.19950248448356,34.5,40.0,31.0,14.5,21.5,4.5,8.5,7.071067811865476,7.071067811865476,7.5,28.0,43.0,38.3275357934736,{},{}
246,246,17,0,8.199999999999974,13.0,80.50465825031493,9.0,16.0312195418814,22.09072203437452,24.186773244895647,16.278820596099706,54.147945482723536,38.11823710509184,31.5,40.0,31.0,19.5,18.5,3.5,12.5,8.0,8.06225774829855,8.5,27.0,43.0,39.45883931389772,{},{}
247,247,17,0,8.233333333333308,14.0,80.50465825031493,8.06225774829855,16.0312195418814,23.08679276123039,25.179356624028344,15.132745950421556,53.150729063673246,37.12142238654117,30.0,39.0,30.0,19.5,18.5,3.5,12.5,8.0,8.246211251235321,8.5,29.0,44.0,38.63935817272331,{},{}
248,248,17,0,8.26666666666664,10.0,75.4254598925323,10.04987562112089,17.029386365926403,21.095023109728988,22.360679774997894,18.110770276274835,55.14526271584895,38.11823710509184,33.0,40.0,32.0,18.0,19.0,2.0,10.0,9.055385138137416,8.246211251235321,8.5,27.0,42.0,38.47076812334269,{},{}
249,249,17,0,8.299999999999974,7.071067811865476,74.54528824815154,11.04536101718726,18.027756377319943,21.095023109728988,23.194827009486403,20.09975124224178,56.22277118748239,38.2099463490856,34.5,41.0,32.0,16.5,19.5,1.5,7.5,9.055385138137416,9.055385138137416,8.5,28.0,44.0,40.311288741492746,{},{}
250,250,17,0,8.333333333333307,5.0990195135927845,69.58448102845921,11.04536101718726,18.110770276274835,20.09975124224178,22.20360331117452,22.09072203437452,56.32051136131489,38.2099463490856,35.5,44.0,35.0,17.5,16.5,1.5,8.5,9.055385138137416,9.219544457292889,9.0,28.0,44.0,38.47076812334269,{},{}
251,251,17,0,8.36666666666664,6.082762530298219,69.72087205421343,11.04536101718726,18.110770276274835,21.095023109728988,22.360679774997894,20.09975124224178,55.326304774492215,37.21558813185679,34.0,44.0,34.0,19.0,16.0,2.0,10.0,10.198039027185567,10.04987562112089,9.5,28.0,44.0,37.48332962798263,{},{}
252,252,17,0,8.399999999999974,7.071067811865476,76.79192665899195,11.04536101718726,18.027756377319943,22.20360331117452,24.186773244895647,20.09975124224178,56.22277118748239,38.2099463490856,34.5,44.0,33.0,18.5,17.5,0.5,9.5,9.055385138137416,9.219544457292889,9.0,28.0,44.0,39.45883931389772,{},{}
253,253,17,0,8.433333333333307,9.0,75.8023746329889,10.04987562112089,18.110770276274835,21.095023109728988,24.186773244895647,19.1049731745428,56.22277118748239,38.11823710509184,33.5,44.0,33.0,19.5,17.5,0.5,10.5,8.06225774829855,8.246211251235321,8.5,27.0,44.0,40.60788100849391,{},{}
254,254,17,0,8.46666666666664,12.041594578792296,80.62257748298549,9.055385138137416,18.027756377319943,22.09072203437452,24.186773244895647,19.1049731745428,58.215118311311535,40.19950248448356,34.0,44.0,34.0,20.0,19.0,2.0,12.0,9.055385138137416,9.219544457292889,8.5,27.0,44.0,43.56604182158393,{},{}
255,255,17,0,8.499999999999973,16.0312195418814,81.88406438373708,8.06225774829855,17.11724276862369,23.08679276123039,25.317977802344327,18.110770276274835,59.30430001273095,42.190046219457976,34.0,45.0,33.0,21.0,20.0,4.0,14.0,9.055385138137416,9.219544457292889,9.0,27.0,44.0,44.40720662234904,{},{}
256,256,17,0,8.533333333333307,19.026297590440446,84.48076704197234,8.06225774829855,16.0312195418814,24.186773244895647,26.30589287593181,17.11724276862369,60.20797289396148,44.181444068749045,34.5,42.0,33.0,20.5,22.5,7.5,14.5,10.04987562112089,9.219544457292889,9.0,27.0,44.0,44.40720662234904,{},{}
257,257,17,0,8.56666666666664,23.021728866442675,86.46964785403026,8.06225774829855,15.132745950421556,25.079872407968907,26.1725046566048,16.278820596099706,62.39390995922599,47.265209192385896,35.5,40.0,31.0,19.5,26.5,11.5,13.5,9.219544457292889,9.219544457292889,9.5,27.0,42.0,40.60788100849391,{},{}
258,258,17,0,8.599999999999973,22.02271554554524,85.47514258543241,8.246211251235321,15.132745950421556,22.09072203437452,25.179356624028344,18.110770276274835,63.38769596696192,48.25971404805462,37.0,41.0,32.0,18.5,26.5,11.5,12.5,9.055385138137416,10.198039027185567,9.5,27.0,43.0,38.47076812334269,{},{}
259,259,17,0,8.633333333333306,26.0,87.46427842267951,7.071067811865476,16.1245154965971,25.079872407968907,27.16615541441225,15.297058540778355,64.28063471995279,48.16637831516918,35.0,41.0,32.0,21.5,27.5,12.5,15.5,10.04987562112089,10.198039027185567,10.0,28.0,43.0,39.6232255123179,{},{}
260,260,17,0,8.66666666666664,24.0,89.27485648266257,8.06225774829855,17.11724276862369,27.018512172212592,29.068883707497267,15.132745950421556,64.19501538281614,47.09564735726647,35.0,40.0,33.0,21.5,27.5,10.5,14.5,9.0,10.04987562112089,10.0,30.0,43.0,45.39823785126467,{},{}
261,261,17,0,8.699999999999973,26.0,90.19977827023745,7.071067811865476,15.033296378372908,27.073972741361768,29.068883707497267,15.132745950421556,63.12685640834652,48.0936586256442,35.0,39.0,33.0,21.0,27.0,12.0,15.0,9.0,10.198039027185567,9.5,31.0,45.0,37.65634076752546,{},{}
262,262,17,0,8.733333333333306,22.02271554554524,89.27485648266257,7.071067811865476,16.0312195418814,26.0768096208106,29.068883707497267,14.142135623730953,59.07622195096772,43.04648650006177,32.0,38.0,31.0,20.5,24.5,8.5,14.5,9.0,9.055385138137416,9.5,29.0,43.0,40.44749683231337,{},{}
263,263,17,0,8.766666666666639,20.0,87.20665112249179,8.06225774829855,17.0,26.019223662515376,28.0178514522438,14.0356688476182,59.033888572581766,42.04759208325728,32.0,38.0,32.0,21.0,24.0,7.0,14.0,8.06225774829855,9.055385138137416,8.5,28.0,41.0,39.319206502675,{},{}
264,264,17,0,8.799999999999972,19.0,88.2779700718135,7.071067811865476,16.0312195418814,27.018512172212592,29.068883707497267,15.033296378372908,57.07889277132134,41.04875150354759,31.5,38.0,31.0,19.5,22.5,6.5,13.5,9.055385138137416,9.055385138137416,9.0,27.0,41.0,40.44749683231337,{},{}
265,265,17,0,8.833333333333306,17.029386365926403,86.14522621712709,7.071067811865476,16.0312195418814,26.019223662515376,28.0713376952364,15.132745950421556,55.08175741568164,39.05124837953327,30.5,37.0,32.0,19.5,20.5,4.5,14.5,8.0,9.219544457292889,9.0,27.0,41.0,41.593268686170845,{},{}
266,266,17,0,8.866666666666639,18.0,86.20904824900923,7.0,16.0,26.019223662515376,28.0713376952364,15.132745950421556,56.0357029044876,40.049968789001575,31.0,38.0,32.0,20.0,21.0,5.0,14.0,9.0,10.04987562112089,10.0,28.0,41.0,38.3275357934736,{},{}
267,267,17,0,8.899999999999972,15.0,87.14355971613737,8.0,16.0,25.0,28.0178514522438,15.297058540778355,54.08326913195984,38.11823710509184,30.5,37.0,32.0,19.5,19.5,3.5,12.5,9.055385138137416,8.06225774829855,8.5,28.0,42.0,37.48332962798263,{},{}
268,268,17,0,8.933333333333305,15.033296378372908,88.14193099768123,8.06225774829855,16.0,26.0,28.0178514522438,15.132745950421556,54.037024344425184,38.05259518088089,30.5,36.0,31.0,18.5,20.5,4.5,11.5,9.0,10.04987562112089,9.5,28.0,41.0,39.45883931389772,{},{}
269,269,17,0,8.966666666666638,16.0,87.14355971613737,8.0,15.033296378372908,26.019223662515376,28.0713376952364,14.142135623730953,53.08483775994799,38.05259518088089,30.0,36.0,31.0,19.5,19.5,4.5,12.5,8.06225774829855,9.055385138137416,9.0,29.0,42.0,38.47076812334269,{},{}
270,270,17,0,8.999999999999972,15.033296378372908,87.14355971613737,7.071067811865476,15.033296378372908,26.019223662515376,28.0713376952364,16.1245154965971,53.08483775994799,38.05259518088089,30.5,37.0,32.0,18.5,18.5,3.5,12.5,8.06225774829855,9.055385138137416,9.0,28.0,41.0,39.45883931389772,{},{}
271,271,17,0,9.033333333333305,14.0,86.14522621712709,7.071067811865476,15.033296378372908,26.019223662515376,27.073972741361768,16.1245154965971,52.15361924162119,37.12142238654117,30.0,36.0,31.0,17.5,18.5,3.5,11.5,9.0,9.055385138137416,9.0,29.0,42.0,38.47076812334269,{},{}
272,272,17,0,9.066666666666638,9.0,88.20430828479978,9.055385138137416,14.0356688476182,25.079872407968907,27.018512172212592,16.1245154965971,48.16637831516918,34.132096331752024,29.5,34.0,28.0,15.0,17.0,3.0,8.0,9.0,9.055385138137416,9.5,28.0,42.0,39.45883931389772,{},{}
273,273,17,0,9.099999999999971,10.0,88.20430828479978,9.0,13.038404810405298,26.019223662515376,27.073972741361768,17.11724276862369,49.09175083453431,36.05551275463989,31.0,35.0,29.0,15.0,17.0,3.0,7.0,9.0,9.055385138137416,9.0,30.0,44.0,36.49657518178932,{},{}
274,274,17,0,9.133333333333304,7.0,86.14522621712709,9.0,13.0,25.019992006393608,26.019223662515376,18.110770276274835,47.042533945356304,34.058772731852805,30.5,34.0,29.0,13.5,15.5,1.5,6.5,8.0,9.055385138137416,9.0,30.0,42.0,36.345563690772494,{},{}
275,275,17,0,9.166666666666638,1.0,86.20904824900923,11.04536101718726,15.033296378372908,26.0768096208106,26.019223662515376,18.110770276274835,45.17742799230607,30.14962686336267,29.5,34.0,28.0,13.0,14.0,1.0,4.0,8.06225774829855,8.06225774829855,8.5,29.0,41.0,36.345563690772494,{},{}
276,276,17,0,9.19999999999997,1.0,86.14522621712709,11.04536101718726,14.0356688476182,25.019992006393608,25.019992006393608,19.026297590440446,45.09988913511872,31.064449134018133,30.5,34.0,29.0,12.5,13.5,1.5,2.5,9.055385138137416,9.055385138137416,9.5,30.0,42.0,36.345563690772494,{},{}
277,277,17,0,9.233333333333304,1.0,86.14522621712709,11.0,13.038404810405298,25.079872407968907,25.019992006393608,18.110770276274835,43.10452412450461,30.066592756745816,29.5,33.0,28.0,12.5,12.5,1.5,3.5,9.055385138137416,9.055385138137416,9.0,29.0,41.0,36.49657518178932,{},{}
278,278,17,0,9.266666666666636,1.0,85.09406559801923,11.04536101718726,13.038404810405298,24.020824298928627,25.019992006393608,20.09975124224178,43.18564576337837,30.14962686336267,30.5,33.0,29.0,11.0,12.0,1.0,2.0,9.0,10.04987562112089,9.5,28.0,41.0,41.30375285612676,{},{}
279,279,17,0,9.29999999999997,0.0,85.09406559801923,11.0,13.038404810405298,25.019992006393608,25.079872407968907,20.09975124224178,44.10215414239989,31.064449134018133,31.0,33.0,29.0,11.0,13.0,0.0,2.0,9.0,9.055385138137416,8.5,29.0,41.0,36.49657518178932,{},{}
280,280,17,0,9.333333333333304,0.0,88.14193099768123,10.04987562112089,13.0,25.019992006393608,26.019223662515376,20.09975124224178,43.10452412450461,30.14962686336267,30.0,33.0,28.0,10.5,12.5,1.5,1.5,9.055385138137416,9.055385138137416,9.0,30.0,41.0,35.510561809129406,{},{}
281,281,17,0,9.366666666666635,0.0,87.09190547921202,11.0,13.038404810405298,25.079872407968907,26.0768096208106,20.09975124224178,44.10215414239989,31.064449134018133,31.0,33.0,29.0,11.0,13.0,1.0,2.0,9.0,10.04987562112089,10.0,30.0,41.0,37.33630940518894,{},{}
282,282,17,0,9.39999999999997,1.0,88.09086218218096,11.04536101718726,13.038404810405298,25.019992006393608,26.019223662515376,19.026297590440446,43.04648650006177,30.01666203960727,30.0,32.0,28.0,11.0,13.0,0.0,2.0,9.0,9.055385138137416,9.0,30.0,41.0,37.33630940518894,{},{}
283,283,17,0,9.433333333333303,0.0,88.05112151472007,11.0,12.041594578792296,24.020824298928627,26.019223662515376,20.09975124224178,43.10452412450461,31.064449134018133,31.0,32.0,29.0,10.5,12.5,0.5,1.5,10.0,9.055385138137416,9.0,30.0,42.0,39.319206502675,{},{}
284,284,17,0,9.466666666666637,0.0,87.05170877128145,11.0,13.038404810405298,25.019992006393608,26.019223662515376,19.1049731745428,43.10452412450461,30.066592756745816,30.0,32.0,29.0,11.5,12.5,1.5,1.5,10.04987562112089,11.0,10.0,30.0,41.0,40.311288741492746,{},{}
285,285,17,0,9.49999999999997,0.0,87.09190547921202,11.0,13.0,25.019992006393608,26.0,19.1049731745428,43.04648650006177,30.066592756745816,30.0,32.0,28.0,11.0,13.0,1.0,1.0,9.0,9.055385138137416,9.0,31.0,42.0,43.18564576337837,{},{}
286,286,17,0,9.533333333333305,0.0,88.05112151472007,11.0,13.038404810405298,25.019992006393608,25.0,19.1049731745428,43.10452412450461,30.066592756745816,30.0,32.0,29.0,11.5,12.5,1.5,1.5,9.0,9.055385138137416,9.0,30.0,41.0,42.2965719651132,{},{}
287,287,17,0,9.566666666666636,1.0,89.08984229416954,10.04987562112089,13.038404810405298,25.019992006393608,26.019223662515376,20.09975124224178,43.10452412450461,30.066592756745816,30.0,32.0,28.0,10.0,13.0,1.0,1.0,10.0,9.055385138137416,9.0,31.0,42.0,37.48332962798263,{},{}
288,288,17,0,9.59999999999997,0.0,87.05170877128145,10.0,13.038404810405298,25.0,26.0,20.024984394500787,43.04648650006177,30.01666203960727,30.0,32.0,29.0,10.5,12.5,1.5,1.5,9.0,9.055385138137416,9.0,30.0,40.0,41.19465984809196,{},{}
289,289,17,0,9.633333333333304,1.0,88.05112151472007,10.0,13.038404810405298,26.0,27.018512172212592,19.1049731745428,42.04759208325728,29.017236257093817,29.0,30.0,27.0,9.5,13.5,0.5,0.5,10.0,9.055385138137416,9.0,31.0,41.0,39.319206502675,{},{}
290,290,17,0,9.666666666666636,0.0,88.09086218218096,11.04536101718726,14.0,25.019992006393608,26.019223662515376,19.026297590440446,44.04543109109048,30.066592756745816,30.0,32.0,28.0,11.0,14.0,1.0,2.0,10.0,10.0,10.0,32.0,42.0,40.19950248448356,{},{}
291,291,17,0,9.699999999999967,0.0,89.08984229416954,11.0,13.0,26.019223662515376,26.0,19.1049731745428,43.04648650006177,30.066592756745816,30.0,32.0,28.0,11.0,13.0,1.0,2.0,9.0,10.0,10.0,32.0,41.0,40.11234224026316,{},{}
292,292,17,0,9.733333333333302,1.0,89.05054744357274,11.0,14.0,25.019992006393608,26.0,20.024984394500787,44.01136216933077,30.01666203960727,30.5,32.0,29.0,10.5,13.5,1.5,1.5,9.0,9.0,9.0,30.0,40.0,39.319206502675,{},{}
293,293,17,0,9.766666666666636,0.0,88.09086218218096,11.04536101718726,13.038404810405298,24.020824298928627,25.019992006393608,20.024984394500787,44.10215414239989,31.064449134018133,31.0,33.0,29.0,11.0,13.0,1.0,2.0,9.0,9.0,9.0,32.0,43.0,38.3275357934736,{},{}
294,294,17,0,9.799999999999969,0.0,88.09086218218096,11.0,13.0,25.019992006393608,26.019223662515376,19.1049731745428,43.04648650006177,30.066592756745816,30.0,32.0,28.0,11.0,13.0,1.0,1.0,8.0,9.0,9.5,31.0,41.0,40.19950248448356,{},{}
295,295,17,0,9.833333333333302,1.0,88.09086218218096,11.04536101718726,14.0,25.019992006393608,26.019223662515376,20.024984394500787,44.04543109109048,30.066592756745816,30.5,33.0,29.0,11.0,13.0,2.0,2.0,9.055385138137416,9.055385138137416,9.0,32.0,42.0,38.2099463490856,{},{}
296,296,17,0,9.866666666666635,1.4142135623730951,88.09086218218096,12.041594578792296,14.0356688476182,25.019992006393608,25.0,19.026297590440446,44.04543109109048,30.01666203960727,30.5,33.0,29.0,12.0,13.0,2.0,2.0,9.0,9.0,9.5,33.0,43.0,39.20459156782532,{},{}
297,297,17,0,9.899999999999968,1.0,87.05170877128145,11.04536101718726,14.0,24.020824298928627,25.019992006393608,20.024984394500787,44.04543109109048,30.066592756745816,30.5,32.0,29.0,10.5,13.5,1.5,1.5,9.0,9.0,9.5,32.0,43.0,39.319206502675,{},{}
298,298,17,0,9.933333333333302,1.0,88.09086218218096,11.0,14.0,25.019992006393608,25.019992006393608,19.026297590440446,44.04543109109048,30.066592756745816,30.0,32.0,28.0,11.0,14.0,1.0,2.0,4.123105625617661,5.0,4.5,35.0,45.0,36.345563690772494,{},{}
299,299,17,0,9.966666666666637,1.0,88.09086218218096,11.0,14.0356688476182,25.019992006393608,26.019223662515376,20.024984394500787,44.04543109109048,30.01666203960727,30.5,32.0,28.0,10.0,14.0,0.0,1.0,4.123105625617661,5.0,4.5,33.0,43.0,41.19465984809196,{},{}
300,300,17,0,9.999999999999968,1.0,88.05112151472007,11.0,14.0,25.019992006393608,26.0,20.09975124224178,44.04543109109048,30.066592756745816,30.5,32.0,29.0,10.5,13.5,1.5,1.5,5.0,5.0,5.0,32.0,43.0,36.22154055254967,{},{}
301,301,17,0,10.0333333333333,1.0,88.09086218218096,11.0,14.0,26.019223662515376,26.0768096208106,20.09975124224178,44.04543109109048,30.066592756745816,30.5,32.0,28.0,10.0,14.0,0.0,1.0,5.0990195135927845,5.0,5.5,32.0,43.0,36.12478373637688,{},{}
302,302,17,0,10.066666666666634,1.0,88.09086218218096,11.04536101718726,14.0356688476182,25.019992006393608,27.018512172212592,19.026297590440446,44.04543109109048,30.01666203960727,30.0,32.0,28.0,11.0,14.0,1.0,2.0,7.071067811865476,7.0,7.0,33.0,43.0,37.33630940518894,{},{}
303,303,17,0,10.099999999999968,0.0,88.09086218218096,10.0,14.0356688476182,26.019223662515376,27.0,20.09975124224178,44.10215414239989,30.066592756745816,30.0,32.0,28.0,10.0,14.0,1.0,1.0,9.055385138137416,9.0,8.5,32.0,41.0,39.20459156782532,{},{}
304,304,17,0,10.1333333333333,1.0,87.09190547921202,11.0,14.0,25.019992006393608,26.019223662515376,20.223748416156685,44.10215414239989,30.14962686336267,30.5,32.0,28.0,10.0,14.0,1.0,1.0,9.0,9.0,9.0,32.0,42.0,39.20459156782532,{},{}
305,305,17,0,10.166666666666634,0.0,88.05112151472007,11.0,14.0,25.019992006393608,27.018512172212592,20.09975124224178,45.044422518220834,31.064449134018133,31.0,32.0,29.0,10.5,14.5,0.5,1.5,9.0,9.0,9.0,32.0,41.0,39.11521443121589,{},{}
306,306,17,0,10.199999999999967,1.4142135623730951,88.05112151472007,10.0,14.0356688476182,25.019992006393608,26.019223662515376,21.213203435596427,44.10215414239989,30.066592756745816,30.5,32.0,29.0,9.5,13.5,1.5,1.5,9.0,10.04987562112089,10.0,32.0,41.0,38.11823710509184,{},{}
307,307,17,0,10.2333333333333,1.4142135623730951,89.08984229416954,11.0,14.0356688476182,25.019992006393608,27.018512172212592,20.09975124224178,44.04543109109048,30.01666203960727,30.5,32.0,28.0,10.0,14.0,1.0,1.0,9.055385138137416,9.0,9.0,31.0,41.0,37.21558813185679,{},{}
308,308,17,0,10.266666666666634,0.0,88.09086218218096,10.0,14.0,25.0,26.019223662515376,20.223748416156685,44.10215414239989,30.14962686336267,30.0,32.0,28.0,10.0,14.0,1.0,1.0,10.0,10.0,10.0,32.0,41.0,40.11234224026316,{},{}
309,309,17,0,10.299999999999969,19.0,81.09870529176159,9.0,16.0,22.02271554554524,24.020824298928627,15.132745950421556,59.033888572581766,43.04648650006177,33.5,34.0,30.0,17.0,27.0,11.0,9.0,13.0,12.041594578792296,12.0,32.0,36.0,35.0142828000232,{},{}
310,310,17,0,10.3333333333333,24.0,84.09518416651456,9.0,16.0,22.02271554554524,24.08318915758459,15.033296378372908,64.00781202322104,48.010415536631214,36.0,34.0,30.0,17.0,32.0,15.0,9.0,11.04536101718726,11.04536101718726,11.0,31.0,35.0,35.0142828000232,{},{}
311,311,17,0,10.366666666666632,23.0,82.21921916437786,10.0,16.0,22.02271554554524,24.08318915758459,15.132745950421556,64.03124237432849,48.04164859785725,36.5,36.0,30.0,18.0,31.0,14.0,9.0,11.04536101718726,11.04536101718726,11.0,32.0,35.0,36.0,{},{}
312,312,17,0,10.399999999999968,27.018512172212592,86.20904824900923,9.055385138137416,16.0312195418814,22.02271554554524,24.08318915758459,16.0312195418814,68.0294054067798,52.009614495783374,38.5,36.0,30.0,17.0,35.0,18.0,9.0,12.0,13.152946437965904,13.0,31.0,34.0,38.01315561749642,{},{}
313,313,17,0,10.4333333333333,28.0,86.09297300012354,9.0,16.0,23.021728866442675,25.079872407968907,16.0,69.0,53.0,39.0,35.0,31.0,17.0,36.0,19.0,9.0,4.0,4.0,3.5,32.0,37.0,35.05709628591621,{},{}
314,314,17,0,10.466666666666631,28.0,85.14693182963201,9.055385138137416,16.0,23.08679276123039,26.0768096208106,14.0,67.00746227100382,51.0098029794274,37.0,35.0,30.0,18.5,34.5,17.5,10.5,4.0,4.0,4.0,34.0,39.0,34.0147027033899,{},{}
315,315,17,0,10.499999999999966,26.0,87.20665112249179,9.0,16.0312195418814,24.020824298928627,26.0768096208106,15.033296378372908,66.03029607687671,50.00999900019995,37.0,35.0,29.0,17.0,34.0,17.0,9.0,4.0,4.123105625617661,4.0,32.0,37.0,38.05259518088089,{},{}
316,316,17,0,10.5333333333333,27.0,86.20904824900923,8.0,16.0,23.021728866442675,26.0768096208106,15.033296378372908,66.007575322837,50.00999900019995,36.5,35.0,29.0,17.0,34.0,18.0,10.0,4.123105625617661,3.0,3.0,32.0,37.0,29.017236257093817,{},{}
317,317,17,0,10.566666666666633,22.0,88.14193099768123,9.0,16.0,24.020824298928627,26.0768096208106,15.033296378372908,62.00806399170998,46.01086828130936,35.0,32.0,27.0,14.5,32.5,16.5,7.5,4.0,5.0990195135927845,5.0,32.0,39.0,33.06055050963308,{},{}
318,318,17,0,10.599999999999966,16.0312195418814,87.36704184073076,10.0,16.0,24.020824298928627,26.0768096208106,13.152946437965904,55.08175741568164,39.11521443121589,31.0,34.0,26.0,17.0,25.0,9.0,8.0,7.071067811865476,6.082762530298219,6.0,33.0,42.0,43.18564576337837,{},{}
319,319,17,0,10.6333333333333,14.0356688476182,87.5728268357257,9.0,16.0312195418814,24.08318915758459,26.1725046566048,15.132745950421556,54.147945482723536,38.11823710509184,31.0,35.0,25.0,15.0,24.0,8.0,8.0,5.0,6.082762530298219,6.0,32.0,42.0,41.10960958218893,{},{}
320,320,17,0,10.666666666666632,15.033296378372908,87.5728268357257,8.0,15.033296378372908,24.08318915758459,26.0768096208106,14.142135623730953,52.15361924162119,37.12142238654117,29.5,33.0,23.0,14.0,24.0,9.0,7.0,5.0990195135927845,4.123105625617661,4.5,34.0,43.0,41.10960958218893,{},{}
321,321,17,0,10.699999999999966,14.0,86.46964785403026,10.0,15.132745950421556,25.079872407968907,26.0768096208106,14.0356688476182,53.08483775994799,38.01315561749642,31.0,34.0,25.0,15.5,23.5,8.5,7.5,5.0990195135927845,5.0990195135927845,5.0,32.0,43.0,46.17358552246078,{},{}
322,322,17,0,10.7333333333333,14.0,87.46427842267951,9.0,15.033296378372908,24.08318915758459,26.0768096208106,14.0356688476182,52.03844732503075,37.01351104664349,30.0,33.0,24.0,14.5,23.5,8.5,6.5,2.23606797749979,2.0,2.0,35.0,45.0,40.11234224026316,{},{}
323,323,17,0,10.766666666666632,12.0,86.37129152675674,8.06225774829855,15.033296378372908,23.08679276123039,25.179356624028344,16.0,51.03920062069938,36.013886210738214,30.0,31.0,23.0,11.0,24.0,9.0,5.0,3.1622776601683795,3.1622776601683795,2.5,34.0,44.0,38.11823710509184,{},{}
324,324,17,0,10.799999999999963,9.0,83.38465086573187,8.0,15.033296378372908,23.08679276123039,24.186773244895647,16.0312195418814,48.04164859785725,33.015148038438355,28.5,30.0,22.0,10.0,22.0,7.0,4.0,4.123105625617661,5.0990195135927845,4.5,34.0,45.0,43.18564576337837,{},{}
325,325,17,0,10.833333333333298,9.0,85.28774824088158,8.0,16.0312195418814,23.021728866442675,25.179356624028344,16.0,49.01020301937138,33.0,28.5,29.0,22.0,9.5,23.5,7.5,3.5,4.123105625617661,4.0,4.0,34.0,45.0,42.190046219457976,{},{}
326,326,17,0,10.866666666666632,2.0,80.15609770940699,10.0,16.0312195418814,21.02379604162864,23.021728866442675,19.0,47.01063709417264,31.0,30.0,29.0,24.0,7.5,20.5,3.5,0.5,7.071067811865476,7.071067811865476,6.5,36.0,44.0,39.11521443121589,{},{}
327,327,17,0,10.899999999999965,0.0,79.1012010022604,8.0,15.0,20.0,20.024984394500787,22.02271554554524,45.0111097397076,30.01666203960727,30.0,28.0,24.0,4.0,19.0,3.0,3.0,10.04987562112089,10.198039027185567,9.5,38.0,47.0,45.09988913511872,{},{}
328,328,17,0,10.933333333333298,1.0,79.02531240052139,8.0,15.0,22.0,22.02271554554524,23.021728866442675,46.0,31.0,31.0,27.0,25.0,3.0,20.0,3.0,3.0,11.04536101718726,11.180339887498947,11.0,39.0,47.0,47.09564735726647,{},{}
329,329,17,0,10.966666666666631,3.0,79.05694150420949,9.0,16.0,21.02379604162864,22.02271554554524,21.0,49.0,33.0,31.5,27.0,24.0,4.5,23.5,6.5,2.5,11.0,10.04987562112089,10.5,40.0,47.0,49.04079934095692,{},{}
330,330,17,0,10.999999999999964,1.4142135623730951,80.05623023850174,9.0,16.0,21.02379604162864,23.021728866442675,22.02271554554524,48.0,32.0,31.5,27.0,24.0,3.5,22.5,5.5,3.5,11.0,11.180339887498947,11.0,39.0,46.0,50.039984012787215,{},{}
331,331,17,0,11.033333333333298,9.055385138137416,82.05485969764375,9.0,16.0,21.02379604162864,22.0,18.027756377319943,52.0,36.0,31.5,27.0,24.0,7.5,26.5,10.5,0.5,11.0,10.04987562112089,10.5,41.0,48.0,52.009614495783374,{},{}
332,332,17,0,11.066666666666633,12.0,84.0535543567314,9.0,17.0,21.02379604162864,23.021728866442675,17.029386365926403,55.00909015790027,38.01315561749642,32.0,27.0,24.0,8.5,29.5,12.5,1.5,11.0,11.04536101718726,11.0,41.0,47.0,50.039984012787215,{},{}
333,333,17,0,11.099999999999964,11.0,85.05292469985967,8.06225774829855,17.0,22.02271554554524,23.021728866442675,16.0312195418814,52.0,35.0,29.5,26.0,23.0,8.5,27.5,10.5,1.5,11.0,11.04536101718726,11.0,41.0,45.0,47.01063709417264,{},{}
334,334,17,0,11.133333333333296,10.0,86.09297300012354,7.0,17.0,23.0,24.0,16.0312195418814,50.00999900019995,33.015148038438355,28.0,25.0,21.0,7.0,27.0,9.0,1.0,5.0990195135927845,6.0,5.5,39.0,42.0,42.01190307520001,{},{}
335,335,17,0,11.16666666666663,10.0,86.09297300012354,7.0,17.0,23.0,24.0,16.0312195418814,50.00999900019995,33.015148038438355,28.0,25.0,21.0,7.0,27.0,9.0,1.0,5.0990195135927845,6.0,5.5,39.0,42.0,42.01190307520001,{},{}
336,336,17,0,11.199999999999964,9.0,86.09297300012354,8.0,17.0,23.021728866442675,24.020824298928627,16.0,50.0,33.0,28.5,26.0,22.0,8.0,26.0,8.0,2.0,1.0,2.0,1.5,30.0,32.0,37.01351104664349,{},{}
337,337,17,0,11.233333333333295,9.055385138137416,88.09086218218096,8.0,16.0,25.019992006393608,26.019223662515376,16.0312195418814,49.0,33.0,28.5,26.0,22.0,8.0,25.0,8.0,2.0,2.23606797749979,2.0,2.0,35.0,39.0,39.01281840626232,{},{}
338,338,17,0,11.26666666666663,16.0312195418814,86.05230967266364,8.06225774829855,17.0,25.0,26.0768096208106,16.0,57.0350769263968,40.049968789001575,32.0,29.0,26.0,11.5,29.5,11.5,4.5,3.0,4.0,3.0,29.0,29.0,30.01666203960727,{},{}
339,339,17,0,11.299999999999963,16.0312195418814,88.05112151472007,8.0,17.0,24.0,26.019223662515376,15.0,56.00892785976178,39.01281840626232,31.0,28.0,25.0,11.5,29.5,12.5,4.5,4.0,5.0,4.5,42.0,44.0,45.0111097397076,{},{}
340,340,17,0,11.333333333333297,16.0312195418814,88.05112151472007,8.0,17.0,24.0,25.019992006393608,15.0,56.00892785976178,39.01281840626232,31.0,28.0,25.0,11.5,29.5,12.5,4.5,5.0990195135927845,5.0,4.5,42.0,45.0,44.01136216933077,{},{}
341,341,17,0,11.36666666666663,16.0,87.05170877128145,8.0,16.0312195418814,23.0,25.019992006393608,15.033296378372908,55.03635162326805,39.01281840626232,31.0,27.0,24.0,10.5,29.5,12.5,3.5,6.0,7.0,6.5,42.0,45.0,47.042533945356304,{},{}
342,342,17,0,11.399999999999965,16.0312195418814,88.02272433866155,8.0,16.0,25.0,26.019223662515376,15.033296378372908,55.0,39.0,31.0,28.0,26.0,12.0,28.0,11.0,5.0,7.0,7.0,6.5,42.0,43.0,42.01190307520001,{},{}
343,343,17,0,11.433333333333296,16.0,88.02272433866155,8.0,16.0,24.0,27.0,15.0,55.0,39.0,31.0,27.0,25.0,11.0,29.0,12.0,4.0,3.0,3.0,3.0,41.0,43.0,40.0,{},{}
344,344,17,0,11.46666666666663,16.0312195418814,89.05054744357274,8.0,15.0,24.0,26.0,15.033296378372908,54.0,39.0,31.0,28.0,25.0,11.5,27.5,11.5,4.5,2.23606797749979,3.0,2.5,42.0,44.0,41.0,{},{}
345,345,17,0,11.499999999999964,15.0,88.05112151472007,9.0,16.0312195418814,25.019992006393608,26.0,15.0,55.00909015790027,39.0,31.5,28.0,25.0,11.5,28.5,11.5,4.5,2.0,3.0,3.0,43.0,46.0,41.01219330881976,{},{}
346,346,17,0,11.533333333333296,13.038404810405298,89.08984229416954,9.0,16.0,24.0,26.019223662515376,15.0,53.009433122794285,37.01351104664349,30.5,28.0,24.0,11.0,27.0,10.0,3.0,2.0,2.0,2.5,42.0,46.0,45.0111097397076,{},{}
347,347,17,0,11.56666666666663,12.0,87.09190547921202,9.0,16.0,24.0,26.019223662515376,14.0,51.0,35.0,29.0,27.0,23.0,11.0,26.0,10.0,3.0,4.0,5.0,4.5,42.0,46.0,48.010415536631214,{},{}
348,348,17,0,11.599999999999962,10.04987562112089,88.09086218218096,8.0,15.0,24.020824298928627,25.019992006393608,15.033296378372908,48.0,33.0,28.0,24.0,20.0,7.0,26.0,10.0,1.0,7.071067811865476,8.06225774829855,8.0,42.0,47.0,49.04079934095692,{},{}
349,349,17,0,11.633333333333296,10.04987562112089,85.14693182963201,8.06225774829855,16.0,24.0,26.0768096208106,14.0356688476182,48.010415536631214,32.01562118716424,27.0,25.0,20.0,8.5,25.5,9.5,1.5,8.0,8.0,8.0,41.0,47.0,47.042533945356304,{},{}
350,350,17,0,11.666666666666629,11.04536101718726,86.09297300012354,7.0,16.0,23.021728866442675,26.019223662515376,15.0,49.01020301937138,33.015148038438355,27.5,24.0,20.0,7.0,27.0,10.0,1.0,8.0,9.055385138137416,9.0,41.0,48.0,50.15974481593781,{},{}
351,351,17,0,11.699999999999962,15.033296378372908,86.09297300012354,8.0,17.0,23.0,24.020824298928627,15.0,55.00909015790027,38.01315561749642,30.5,25.0,21.0,8.0,32.0,15.0,1.0,9.0,9.055385138137416,9.0,40.0,47.0,47.042533945356304,{},{}
352,352,17,0,11.733333333333295,17.029386365926403,85.09406559801923,7.0,16.0,23.0,25.019992006393608,15.0,55.00909015790027,39.01281840626232,30.5,26.0,22.0,9.0,31.0,15.0,3.0,9.0,9.055385138137416,9.5,42.0,48.0,51.03920062069938,{},{}
353,353,17,0,11.766666666666628,17.029386365926403,84.09518416651456,8.0,16.0,23.0,25.019992006393608,15.0,56.00892785976178,40.01249804748511,31.5,27.0,23.0,10.0,31.0,14.0,3.0,9.0,10.04987562112089,10.0,40.0,47.0,52.08646657242167,{},{}
354,354,17,0,11.799999999999962,15.033296378372908,85.09406559801923,7.0,16.0,22.0,25.019992006393608,16.0312195418814,54.037024344425184,38.05259518088089,30.5,26.0,22.0,8.0,30.0,13.0,2.0,10.0,10.04987562112089,10.0,42.0,47.0,48.010415536631214,{},{}
355,355,17,0,11.833333333333297,13.038404810405298,85.05292469985967,7.0,16.0,23.0,25.019992006393608,16.0312195418814,52.03844732503075,36.05551275463989,29.5,26.0,23.0,8.5,27.5,10.5,2.5,10.0,10.0,10.5,41.0,47.0,49.01020301937138,{},{}
356,356,17,0,11.866666666666628,11.04536101718726,84.0535543567314,7.0,16.0312195418814,23.0,24.020824298928627,16.0,50.039984012787215,34.0147027033899,28.5,26.0,23.0,8.5,25.5,8.5,2.5,10.0,10.04987562112089,10.0,41.0,46.0,45.044422518220834,{},{}
357,357,17,0,11.89999999999996,11.180339887498947,85.0235261559999,6.0,16.0,23.0,25.019992006393608,16.0,49.04079934095692,33.06055050963308,27.5,25.0,23.0,8.0,25.0,8.0,3.0,2.0,2.0,2.0,42.0,47.0,46.01086828130936,{},{}
358,358,17,0,11.933333333333294,11.180339887498947,85.05292469985967,7.0,15.0,23.0,25.019992006393608,15.0,48.04164859785725,33.06055050963308,27.5,26.0,23.0,9.5,23.5,7.5,3.5,2.23606797749979,2.0,2.0,42.0,47.0,46.04345773288535,{},{}
359,359,17,0,11.966666666666628,11.04536101718726,85.0235261559999,7.0,16.0,23.021728866442675,24.08318915758459,16.0,50.00999900019995,34.0147027033899,28.5,26.0,24.0,9.0,25.0,9.0,4.0,2.0,2.0,2.0,43.0,49.0,47.01063709417264,{},{}
360,360,17,0,11.99999999999996,13.038404810405298,86.05230967266364,6.0,16.0,24.0,26.0,16.0,51.0098029794274,35.0142828000232,28.5,27.0,24.0,9.5,25.5,9.5,4.5,2.0,3.0,2.5,44.0,48.0,44.01136216933077,{},{}
361,361,17,0,12.033333333333294,15.033296378372908,84.02380615040002,7.0,16.0,24.0,26.019223662515376,15.0,53.009433122794285,37.01351104664349,29.5,28.0,26.0,12.0,26.0,9.0,6.0,3.0,4.0,3.5,45.0,49.0,46.01086828130936,{},{}
362,362,17,0,12.066666666666627,14.142135623730953,86.02325267042627,7.0,16.0312195418814,23.0,24.0,16.0312195418814,53.03772242470448,37.01351104664349,30.0,28.0,26.0,11.0,26.0,9.0,5.0,5.0990195135927845,4.0,4.5,43.0,47.0,45.0,{},{}
363,363,17,0,12.09999999999996,13.038404810405298,85.0235261559999,7.0,17.029386365926403,23.0,25.019992006393608,16.0,53.03772242470448,36.013886210738214,29.5,28.0,26.0,11.0,26.0,9.0,5.0,4.0,4.0,4.0,45.0,48.0,45.0,{},{}
364,364,17,0,12.133333333333294,15.0,86.02325267042627,7.0,15.033296378372908,24.0,25.019992006393608,15.0,52.009614495783374,37.0,29.5,27.0,25.0,11.0,26.0,10.0,5.0,2.23606797749979,2.0,2.5,45.0,49.0,47.01063709417264,{},{}
365,365,17,0,12.166666666666629,14.0,86.02325267042627,7.0,15.033296378372908,24.0,25.0,16.0,52.009614495783374,37.0,30.0,28.0,26.0,11.0,25.0,9.0,5.0,2.23606797749979,2.23606797749979,2.0,44.0,48.0,45.044422518220834,{},{}
366,366,17,0,12.19999999999996,13.038404810405298,86.02325267042627,7.0,16.0,24.020824298928627,26.019223662515376,16.0,52.009614495783374,36.013886210738214,29.5,28.0,26.0,11.0,25.0,9.0,4.0,2.23606797749979,3.1622776601683795,3.0,44.0,48.0,45.0111097397076,{},{}
367,367,17,0,12.233333333333292,15.132745950421556,87.05170877128145,8.0,16.0,24.0,25.019992006393608,15.0,54.037024344425184,38.05259518088089,30.5,30.0,27.0,13.5,25.5,9.5,6.5,5.0990195135927845,6.0,6.0,42.0,46.0,49.04079934095692,{},{}
368,368,17,0,12.266666666666628,15.033296378372908,86.02325267042627,7.0,16.0,24.020824298928627,25.019992006393608,16.0,54.00925846556311,38.01315561749642,30.5,29.0,27.0,12.0,26.0,9.0,6.0,6.0,6.0,6.0,43.0,47.0,45.0111097397076,{},{}
369,369,17,0,12.29999999999996,18.110770276274835,86.05230967266364,7.0,16.0,24.0,26.019223662515376,16.0,57.0350769263968,41.04875150354759,32.0,30.0,27.0,12.5,28.5,11.5,6.5,4.123105625617661,4.0,4.5,43.0,46.0,49.01020301937138,{},{}
370,370,17,0,12.333333333333291,20.024984394500787,85.09406559801923,8.0,16.0,24.0,26.0768096208106,14.0356688476182,58.0,42.0,32.0,31.0,27.0,15.0,29.0,12.0,8.0,1.4142135623730951,2.0,1.5,44.0,47.0,45.0111097397076,{},{}
371,371,17,0,12.366666666666626,21.0,85.21150157109074,6.082762530298219,14.0,25.019992006393608,26.0768096208106,13.038404810405298,54.0,40.0,29.5,31.0,25.0,15.0,26.0,12.0,10.0,2.0,2.23606797749979,2.0,44.0,48.0,42.0,{},{}
372,372,17,0,12.39999999999996,20.024984394500787,80.15609770940699,6.0,15.0,24.020824298928627,26.0768096208106,12.041594578792296,53.03772242470448,38.05259518088089,28.0,32.0,27.0,17.5,23.5,8.5,12.5,6.082762530298219,7.071067811865476,6.5,41.0,47.0,42.04759208325728,{},{}
373,373,17,0,12.433333333333293,19.026297590440446,81.09870529176159,7.0,16.0,24.020824298928627,26.0768096208106,11.04536101718726,53.03772242470448,37.05401462729781,27.5,31.0,27.0,18.0,24.0,8.0,12.0,6.082762530298219,7.0,6.5,41.0,47.0,44.10215414239989,{},{}
374,374,17,0,12.466666666666626,19.0,81.2219182240853,7.0,16.0,24.020824298928627,25.079872407968907,12.041594578792296,54.00925846556311,38.01315561749642,28.5,33.0,27.0,18.0,24.0,9.0,12.0,7.0,8.0,8.0,40.0,46.0,42.1070065428546,{},{}
375,375,17,0,12.49999999999996,19.026297590440446,81.2219182240853,8.06225774829855,16.0,23.021728866442675,25.179356624028344,11.180339887498947,54.037024344425184,38.05259518088089,28.5,32.0,26.0,18.0,25.0,9.0,12.0,9.0,9.055385138137416,9.5,40.0,47.0,46.17358552246078,{},{}
376,376,17,0,12.533333333333292,21.095023109728988,82.21921916437786,7.071067811865476,15.033296378372908,24.020824298928627,26.0768096208106,11.180339887498947,54.037024344425184,39.11521443121589,28.5,32.0,26.0,18.0,25.0,10.0,13.0,9.055385138137416,9.055385138137416,9.5,39.0,47.0,41.10960958218893,{},{}
377,377,17,0,12.566666666666626,21.02379604162864,81.30190649671138,7.0,16.0312195418814,23.021728866442675,25.179356624028344,10.04987562112089,54.00925846556311,38.05259518088089,27.5,32.0,25.0,18.5,25.5,10.5,12.5,11.0,10.04987562112089,10.5,40.0,48.0,44.10215414239989,{},{}
378,378,17,0,12.59999999999996,27.073972741361768,82.38931969618392,6.082762530298219,16.0312195418814,23.021728866442675,26.1725046566048,13.038404810405298,62.00806399170998,46.04345773288535,32.5,34.0,26.0,17.0,32.0,16.0,12.0,10.04987562112089,11.04536101718726,11.0,38.0,47.0,43.10452412450461,{},{}
379,379,17,0,12.633333333333292,26.0,83.38465086573187,7.071067811865476,17.029386365926403,23.021728866442675,27.16615541441225,14.0356688476182,64.00781202322104,47.0,34.0,34.0,26.0,16.0,34.0,17.0,10.0,10.04987562112089,10.04987562112089,10.5,38.0,48.0,47.09564735726647,{},{}
380,380,17,0,12.666666666666623,22.02271554554524,82.29823813423954,8.0,17.029386365926403,24.020824298928627,26.0768096208106,13.0,60.0,43.01162633521314,32.0,31.0,24.0,14.5,32.5,15.5,7.5,10.0,10.04987562112089,10.5,39.0,48.0,47.09564735726647,{},{}
381,381,17,0,12.699999999999958,17.0,84.2140130857092,8.0,17.029386365926403,23.08679276123039,26.1725046566048,14.0,56.00892785976178,39.0,30.5,30.0,24.0,13.0,29.0,12.0,7.0,11.04536101718726,10.04987562112089,10.0,39.0,49.0,47.265209192385896,{},{}
382,382,17,0,12.733333333333292,16.0,82.21921916437786,9.055385138137416,17.029386365926403,23.08679276123039,26.0768096208106,13.038404810405298,55.00909015790027,38.0,30.0,30.0,24.0,14.0,28.0,11.0,7.0,11.04536101718726,11.04536101718726,11.0,39.0,49.0,48.25971404805462,{},{}
383,383,17,0,12.766666666666625,15.0,84.2140130857092,8.06225774829855,16.0,24.08318915758459,26.0768096208106,13.0,52.009614495783374,36.013886210738214,28.5,28.0,22.0,12.0,27.0,11.0,6.0,11.0,11.04536101718726,11.0,40.0,49.0,47.265209192385896,{},{}
384,384,17,0,12.799999999999958,16.0,85.21150157109074,8.0,15.0,25.019992006393608,26.019223662515376,13.0,52.0,37.0,29.0,29.0,23.0,13.0,26.0,11.0,6.0,11.0,11.04536101718726,11.0,39.0,48.0,49.16299421312742,{},{}
385,385,17,0,12.833333333333291,18.027756377319943,85.09406559801923,7.0,15.033296378372908,25.019992006393608,27.073972741361768,12.0,52.0,37.01351104664349,28.0,28.0,24.0,14.0,26.0,11.0,8.0,11.04536101718726,11.04536101718726,11.0,41.0,48.0,48.16637831516918,{},{}
386,386,17,0,12.866666666666625,20.0,85.05292469985967,7.0,15.0,25.019992006393608,27.018512172212592,12.0,54.0,39.0,29.0,29.0,26.0,15.5,26.5,11.5,9.5,10.0,10.04987562112089,10.0,41.0,47.0,42.190046219457976,{},{}
387,387,17,0,12.899999999999958,20.024984394500787,85.09406559801923,7.071067811865476,16.0,25.019992006393608,27.018512172212592,11.0,54.0,38.0,28.0,29.0,25.0,16.0,27.0,11.0,10.0,10.04987562112089,10.0,10.0,41.0,47.0,44.10215414239989,{},{}
388,388,17,0,12.933333333333293,20.024984394500787,86.09297300012354,8.06225774829855,16.0,25.019992006393608,28.0178514522438,10.0,54.0,38.0,28.0,29.0,25.0,17.0,27.0,11.0,11.0,5.0990195135927845,5.0,5.0,39.0,44.0,40.049968789001575,{},{}
389,389,17,0,12.966666666666624,21.02379604162864,84.0535543567314,7.0,15.0,26.0,27.073972741361768,10.04987562112089,53.0,38.0,27.5,30.0,27.0,18.5,24.5,8.5,12.5,2.0,2.0,2.5,42.0,47.0,41.04875150354759,{},{}
390,390,17,0,12.999999999999956,21.02379604162864,84.0535543567314,7.0,16.0,26.0,28.0713376952364,10.0,54.00925846556311,38.01315561749642,27.5,31.0,28.0,19.5,24.5,8.5,12.5,3.1622776601683795,4.0,4.0,43.0,47.0,40.01249804748511,{},{}
391,391,17,0,13.03333333333329,20.0,84.09518416651456,8.0,17.029386365926403,25.0,27.018512172212592,11.04536101718726,56.0357029044876,39.01281840626232,29.0,32.0,28.0,19.0,26.0,9.0,12.0,5.0990195135927845,6.0,5.5,42.0,47.0,46.09772228646444,{},{}
392,392,17,0,13.066666666666624,20.024984394500787,84.09518416651456,7.0,16.0,26.0,28.0178514522438,11.0,54.00925846556311,38.01315561749642,28.0,31.0,27.0,18.0,25.0,9.0,12.0,5.0990195135927845,6.082762530298219,5.5,42.0,47.0,46.04345773288535,{},{}
393,393,17,0,13.099999999999955,20.024984394500787,84.02380615040002,7.0,16.0312195418814,26.0,28.0178514522438,12.041594578792296,55.00909015790027,39.0,29.0,30.0,28.0,17.0,26.0,10.0,11.0,7.0,7.0,7.5,42.0,47.0,43.0,{},{}
394,394,17,0,13.13333333333329,20.09975124224178,83.02409288875127,7.0,17.0,25.0,27.018512172212592,13.038404810405298,57.0087712549569,40.01249804748511,30.0,31.0,29.0,17.0,27.0,10.0,10.0,9.0,9.055385138137416,9.5,42.0,46.0,44.04543109109048,{},{}
395,395,17,0,13.166666666666623,21.0,84.02380615040002,7.0,16.0312195418814,24.0,26.019223662515376,13.0,57.0087712549569,41.0,30.5,30.0,28.0,16.0,28.0,11.0,9.0,10.0,10.0,10.5,42.0,46.0,43.04648650006177,{},{}
396,396,17,0,13.199999999999957,18.027756377319943,84.00595217006948,8.0,16.0312195418814,25.0,26.019223662515376,14.0,56.0357029044876,40.01249804748511,31.0,30.0,29.0,15.5,26.5,10.5,8.5,10.0,11.0,10.5,42.0,46.0,43.04648650006177,{},{}
397,397,17,0,13.23333333333329,19.026297590440446,84.02380615040002,7.0,16.0,25.0,27.018512172212592,14.0,56.00892785976178,40.01249804748511,30.5,31.0,29.0,16.0,26.0,9.0,9.0,10.0,10.04987562112089,10.0,42.0,47.0,46.04345773288535,{},{}
398,398,17,0,13.266666666666625,16.0312195418814,84.00595217006948,8.0,17.0,25.0,27.018512172212592,14.0,55.00909015790027,38.01315561749642,30.0,30.0,29.0,15.5,25.5,7.5,8.5,10.0,9.0,9.5,43.0,47.0,45.09988913511872,{},{}
399,399,17,0,13.299999999999956,15.033296378372908,84.00595217006948,7.0,16.0312195418814,24.0,26.0,15.0,53.03772242470448,37.01351104664349,29.5,30.0,29.0,14.5,23.5,6.5,8.5,4.0,5.0,5.0,43.0,47.0,39.05124837953327,{},{}
400,400,17,0,13.33333333333329,16.0312195418814,82.02438661763951,8.0,17.0,24.0,26.019223662515376,14.0,55.00909015790027,38.01315561749642,30.0,32.0,30.0,17.0,24.0,7.0,9.0,3.0,3.1622776601683795,3.0,44.0,47.0,39.01281840626232,{},{}
401,401,17,0,13.366666666666625,14.0356688476182,82.00609733428362,8.0,17.0,24.0,26.019223662515376,15.033296378372908,54.037024344425184,37.05401462729781,30.0,31.0,30.0,15.5,23.5,5.5,8.5,2.0,2.23606797749979,2.0,44.0,48.0,41.01219330881976,{},{}
402,402,17,0,13.399999999999956,15.033296378372908,82.00609733428362,8.0,16.0312195418814,22.02271554554524,24.020824298928627,16.0,55.03635162326805,39.01281840626232,31.5,33.0,32.0,16.5,22.5,5.5,8.5,2.0,2.0,2.5,44.0,48.0,39.01281840626232,{},{}
403,403,17,0,13.43333333333329,11.04536101718726,82.00609733428362,9.0,18.027756377319943,22.02271554554524,23.0,16.0,54.037024344425184,36.013886210738214,30.5,32.0,31.0,15.5,22.5,3.5,6.5,2.0,3.0,2.5,43.0,46.0,41.0,{},{}
404,404,17,0,13.466666666666622,8.06225774829855,76.00657866263946,8.0,17.029386365926403,21.0,22.0,19.0,52.03844732503075,35.0142828000232,31.0,34.0,33.0,14.5,18.5,0.5,6.5,7.0,7.0,7.0,41.0,45.0,45.0111097397076,{},{}
405,405,17,0,13.499999999999956,5.0990195135927845,76.00657866263946,10.0,17.029386365926403,21.0,23.021728866442675,19.0,51.03920062069938,34.0147027033899,31.5,33.0,32.0,13.5,18.5,0.5,4.5,8.0,9.0,9.0,41.0,46.0,44.01136216933077,{},{}
406,406,17,0,13.533333333333289,5.0990195135927845,75.0066663703967,11.0,17.029386365926403,21.0,23.0,19.0,52.03844732503075,35.0142828000232,32.5,34.0,33.0,14.5,18.5,0.5,4.5,7.0,8.0,8.0,42.0,47.0,43.0,{},{}
407,407,17,0,13.566666666666622,3.1622776601683795,75.0066663703967,11.0,18.0,21.0,22.02271554554524,19.026297590440446,51.03920062069938,33.06055050963308,31.5,32.0,31.0,12.5,19.5,1.5,3.5,6.0,6.0,6.0,43.0,47.0,44.01136216933077,{},{}
408,408,17,0,13.599999999999955,7.071067811865476,76.02631123499285,9.0,17.029386365926403,22.02271554554524,23.0,19.0,52.03844732503075,35.0142828000232,31.5,33.0,31.0,13.0,20.0,2.0,5.0,3.0,3.0,3.0,42.0,48.0,40.049968789001575,{},{}
409,409,17,0,13.633333333333288,13.0,80.05623023850174,7.0,16.0312195418814,21.0,23.0,16.0312195418814,52.03844732503075,36.013886210738214,29.5,34.0,31.0,16.5,19.5,2.5,9.5,2.0,3.0,3.0,42.0,46.0,38.0,{},{}
410,410,17,0,13.666666666666622,13.038404810405298,81.02468759581859,8.0,17.0,23.0,25.019992006393608,15.0,53.009433122794285,36.013886210738214,29.5,34.0,32.0,18.0,20.0,3.0,11.0,5.0,6.0,6.0,42.0,45.0,42.0,{},{}
411,411,17,0,13.699999999999957,13.038404810405298,80.02499609497022,7.0,17.0,22.0,23.021728866442675,15.0,52.009614495783374,35.0142828000232,28.5,33.0,31.0,17.0,20.0,3.0,11.0,5.0,5.0990195135927845,5.0,43.0,46.0,39.05124837953327,{},{}
412,412,17,0,13.733333333333288,14.0356688476182,82.02438661763951,7.0,17.0,24.020824298928627,26.019223662515376,15.033296378372908,53.03772242470448,36.05551275463989,29.0,33.0,31.0,17.0,21.0,4.0,11.0,7.0,8.0,8.0,43.0,46.0,40.01249804748511,{},{}
413,413,17,0,13.76666666666662,15.033296378372908,81.05553651663777,7.0,18.0,24.0,26.019223662515376,14.0356688476182,54.037024344425184,36.05551275463989,28.5,33.0,30.0,17.5,22.5,4.5,10.5,9.055385138137416,9.0,9.5,43.0,45.0,41.01219330881976,{},{}
414,414,17,0,13.799999999999956,17.0,81.02468759581859,6.082762530298219,17.029386365926403,23.0,25.019992006393608,14.0,54.037024344425184,37.01351104664349,28.5,31.0,29.0,16.0,24.0,7.0,10.0,11.0,10.0,10.5,45.0,47.0,44.01136216933077,{},{}
415,415,17,0,13.833333333333288,18.027756377319943,80.05623023850174,7.0,17.0,23.0,26.019223662515376,13.038404810405298,55.03635162326805,38.05259518088089,29.0,32.0,29.0,17.5,24.5,7.5,10.5,10.04987562112089,11.0,11.0,45.0,47.0,44.01136216933077,{},{}
416,416,17,0,13.86666666666662,18.027756377319943,82.05485969764375,6.0,17.0,23.0,26.0768096208106,13.038404810405298,54.037024344425184,37.05401462729781,28.0,31.0,28.0,16.5,24.5,8.5,10.5,10.04987562112089,10.0,10.5,43.0,46.0,46.04345773288535,{},{}
417,417,17,0,13.899999999999954,18.027756377319943,81.02468759581859,6.0,17.0,22.0,25.0,14.0356688476182,55.03635162326805,38.05259518088089,29.0,32.0,30.0,17.0,24.0,7.0,11.0,11.04536101718726,11.0,11.5,45.0,47.0,45.0,{},{}
418,418,17,0,13.933333333333287,19.026297590440446,81.05553651663777,6.0,17.0,24.0,26.019223662515376,12.16552506059644,54.08326913195984,37.12142238654117,27.5,30.0,27.0,16.5,25.5,8.5,10.5,11.0,11.04536101718726,11.0,45.0,47.0,45.044422518220834,{},{}
419,419,17,0,13.96666666666662,19.1049731745428,84.02380615040002,7.0,17.0,24.0,26.019223662515376,15.132745950421556,58.137767414994535,41.19465984809196,31.5,30.0,28.0,14.0,29.0,12.0,7.0,11.0,11.0,11.5,44.0,46.0,44.01136216933077,{},{}
420,420,17,0,13.999999999999954,23.08679276123039,85.0235261559999,6.0,15.0,24.020824298928627,26.019223662515376,14.142135623730953,58.137767414994535,43.18564576337837,31.5,29.0,27.0,14.0,30.0,14.0,8.0,10.0,10.0,10.0,44.0,46.0,48.010415536631214,{},{}
421,421,17,0,14.033333333333289,23.08679276123039,84.0535543567314,6.0,16.0,24.0,27.073972741361768,13.152946437965904,58.137767414994535,42.190046219457976,30.5,29.0,26.0,14.5,30.5,13.5,8.5,10.0,11.0,11.0,43.0,46.0,46.04345773288535,{},{}
422,422,17,0,14.06666666666662,23.08679276123039,85.0235261559999,5.0,16.0,26.019223662515376,28.0178514522438,14.142135623730953,58.137767414994535,42.190046219457976,30.5,28.0,26.0,13.0,31.0,15.0,8.0,11.0,11.0,11.0,45.0,47.0,47.042533945356304,{},{}
423,423,17,0,14.099999999999952,23.08679276123039,85.0235261559999,6.0,16.0312195418814,25.019992006393608,27.018512172212592,14.0356688476182,59.13543776789008,43.10452412450461,31.5,29.0,27.0,14.0,31.0,15.0,8.0,10.04987562112089,10.04987562112089,10.5,45.0,46.0,46.01086828130936,{},{}
424,424,17,0,14.133333333333288,23.021728866442675,83.02409288875127,6.0,16.0312195418814,24.020824298928627,26.019223662515376,14.142135623730953,59.13543776789008,43.10452412450461,31.5,29.0,27.0,14.0,31.0,14.0,8.0,10.04987562112089,11.04536101718726,10.5,46.0,46.0,46.0,{},{}
425,425,17,0,14.16666666666662,23.021728866442675,84.02380615040002,6.0,16.0312195418814,24.0,26.019223662515376,14.142135623730953,59.13543776789008,43.10452412450461,31.5,29.0,27.0,14.0,31.0,14.0,9.0,11.0,10.0,10.5,46.0,47.0,46.0,{},{}
426,426,17,0,14.199999999999951,21.095023109728988,83.00602387778854,7.0,16.0312195418814,23.0,26.019223662515376,15.033296378372908,59.13543776789008,43.10452412450461,32.5,30.0,29.0,14.5,29.5,12.5,8.5,10.04987562112089,11.04536101718726,11.0,45.0,47.0,45.0111097397076,{},{}
427,427,17,0,14.233333333333286,19.1049731745428,82.0,7.0,16.0312195418814,23.0,25.019992006393608,15.033296378372908,57.14017850864661,41.10960958218893,31.5,30.0,30.0,15.0,27.0,10.0,9.0,11.04536101718726,11.0,11.0,45.0,46.0,47.01063709417264,{},{}
428,428,17,0,14.26666666666662,17.029386365926403,83.00602387778854,7.071067811865476,16.0312195418814,24.020824298928627,26.0,15.033296378372908,55.14526271584895,39.11521443121589,30.5,28.0,29.0,13.5,26.5,9.5,6.5,10.04987562112089,10.0,10.0,47.0,47.0,47.01063709417264,{},{}
429,429,17,0,14.299999999999953,18.027756377319943,84.00595217006948,7.071067811865476,16.0,23.0,26.0,15.033296378372908,56.08029957123981,40.11234224026316,31.0,30.0,29.0,14.5,26.5,9.5,8.5,3.0,3.1622776601683795,3.0,47.0,47.0,43.0,{},{}
430,430,17,0,14.333333333333286,17.11724276862369,85.00588214941364,7.0,17.0,24.020824298928627,26.0,15.033296378372908,56.08029957123981,39.11521443121589,30.5,29.0,30.0,14.5,26.5,9.5,7.5,2.0,3.1622776601683795,3.0,46.0,46.0,41.0,{},{}
431,431,17,0,14.36666666666662,17.029386365926403,83.00602387778854,7.071067811865476,16.0312195418814,23.021728866442675,25.0,15.033296378372908,55.14526271584895,39.11521443121589,30.5,29.0,30.0,14.5,25.5,8.5,7.5,2.0,3.1622776601683795,3.0,45.0,46.0,41.01219330881976,{},{}
432,432,17,0,14.399999999999952,16.1245154965971,85.00588214941364,7.0,16.0,24.0,26.0,16.1245154965971,55.14526271584895,39.20459156782532,31.0,30.0,31.0,14.5,24.5,7.5,8.5,2.0,2.23606797749979,2.0,45.0,43.0,43.01162633521314,{},{}
433,433,17,0,14.433333333333286,15.132745950421556,85.0235261559999,7.0,16.0312195418814,24.020824298928627,26.019223662515376,16.1245154965971,54.230987451824994,38.2099463490856,30.5,30.0,32.0,15.0,23.0,6.0,8.0,4.0,4.47213595499958,4.0,45.0,42.0,43.0,{},{}
434,434,17,0,14.46666666666662,16.1245154965971,84.09518416651456,8.06225774829855,15.033296378372908,25.079872407968907,26.019223662515376,16.1245154965971,55.326304774492215,40.311288741492746,32.0,31.0,35.0,17.0,22.0,4.0,9.0,7.0,7.071067811865476,7.0,39.0,34.0,41.04875150354759,{},{}
435,435,17,0,14.499999999999952,15.132745950421556,85.14693182963201,7.0,15.033296378372908,24.186773244895647,26.0768096208106,17.11724276862369,54.230987451824994,39.20459156782532,31.5,30.0,35.0,15.5,21.5,4.5,7.5,7.071067811865476,7.071067811865476,7.0,40.0,34.0,45.17742799230607,{},{}
436,436,17,0,14.533333333333283,16.0312195418814,85.21150157109074,7.071067811865476,15.132745950421556,24.08318915758459,26.0768096208106,16.1245154965971,54.3323108288245,39.20459156782532,31.0,30.0,36.0,17.0,21.0,4.0,9.0,9.055385138137416,9.055385138137416,8.5,47.0,40.0,42.04759208325728,{},{}
437,437,17,0,14.566666666666618,14.142135623730953,85.37564055396598,8.06225774829855,16.1245154965971,24.186773244895647,26.0768096208106,17.11724276862369,55.44366510251645,39.319206502675,32.0,30.0,38.0,17.0,21.0,3.0,8.0,9.055385138137416,10.198039027185567,9.0,48.0,36.0,42.1070065428546,{},{}
438,438,17,0,14.599999999999952,15.033296378372908,86.57944328765345,9.219544457292889,16.1245154965971,24.33105012119288,25.079872407968907,17.11724276862369,57.42821606144492,41.30375285612676,33.5,30.0,40.0,18.0,22.0,4.0,8.0,9.055385138137416,10.04987562112089,10.0,47.0,34.0,40.311288741492746,{},{}
439,439,17,0,14.633333333333283,21.213203435596427,85.70880934886448,8.06225774829855,16.1245154965971,23.345235059857504,25.179356624028344,19.4164878389476,64.77653896280658,48.66210024238576,37.5,31.0,42.0,17.5,27.5,8.5,8.5,4.47213595499958,5.385164807134504,5.0,44.0,30.0,31.400636936215164,{},{}
440,440,17,0,14.666666666666618,22.20360331117452,85.70880934886448,9.055385138137416,15.132745950421556,23.345235059857504,26.1725046566048,18.43908891458577,64.77653896280658,49.64876634922564,38.0,32.0,43.0,19.5,26.5,8.5,9.5,5.385164807134504,5.385164807134504,5.0,46.0,32.0,33.37663853655727,{},{}
441,441,17,0,14.699999999999951,26.0768096208106,85.98837130682264,8.246211251235321,16.278820596099706,23.345235059857504,26.30589287593181,18.43908891458577,68.8839603971781,52.61178575186362,39.0,31.0,44.0,19.5,30.5,11.5,9.5,5.0990195135927845,6.324555320336759,6.0,48.0,32.0,39.6232255123179,{},{}
442,442,17,0,14.733333333333285,25.179356624028344,86.70063436907483,9.055385138137416,16.278820596099706,25.317977802344327,27.16615541441225,17.46424919657298,67.89698078707183,51.62363799656123,38.5,31.0,42.0,19.5,30.5,11.5,8.5,4.123105625617661,5.385164807134504,5.0,49.0,34.0,41.43669871020132,{},{}
443,443,17,0,14.766666666666618,21.095023109728988,87.69264507357501,8.246211251235321,16.278820596099706,23.194827009486403,26.1725046566048,17.46424919657298,62.96824596572466,46.69047011971501,35.5,29.0,40.0,17.5,27.5,9.5,8.5,3.1622776601683795,5.0,4.0,50.0,36.0,37.48332962798263,{},{}
444,444,17,0,14.799999999999953,10.198039027185567,86.46964785403026,9.055385138137416,16.1245154965971,25.179356624028344,26.0768096208106,15.297058540778355,50.635955604688654,34.52535300326414,29.0,24.0,33.0,13.5,21.5,3.5,3.5,5.385164807134504,6.324555320336759,5.5,49.0,36.0,39.20459156782532,{},{}
445,445,17,0,14.833333333333284,11.04536101718726,87.46427842267951,9.219544457292889,15.132745950421556,25.179356624028344,26.1725046566048,15.297058540778355,50.635955604688654,35.510561809129406,29.5,24.0,33.0,13.5,21.5,4.5,3.5,5.0990195135927845,6.082762530298219,5.5,49.0,37.0,40.19950248448356,{},{}
446,446,17,0,14.866666666666616,11.180339887498947,85.37564055396598,9.055385138137416,16.1245154965971,25.179356624028344,26.0768096208106,14.560219778561036,50.80354318352215,34.713109915419565,28.5,24.0,32.0,14.0,22.0,4.0,4.0,6.324555320336759,6.324555320336759,6.5,48.0,35.0,41.19465984809196,{},{}
447,447,17,0,14.89999999999995,14.142135623730953,86.20904824900923,9.055385138137416,18.110770276274835,24.08318915758459,25.019992006393608,15.524174696260024,56.71860364994893,38.63935817272331,31.0,26.0,32.0,14.0,27.0,7.0,5.0,6.082762530298219,7.071067811865476,6.5,39.0,27.0,40.049968789001575,{},{}
448,448,17,0,14.933333333333284,13.152946437965904,87.28115489611719,9.055385138137416,18.110770276274835,25.179356624028344,27.018512172212592,15.524174696260024,55.731499172371095,37.65634076752546,30.5,25.0,32.0,13.5,26.5,6.5,4.5,6.324555320336759,6.324555320336759,6.0,41.0,29.0,38.11823710509184,{},{}
449,449,17,0,14.966666666666615,15.132745950421556,85.14693182963201,8.06225774829855,19.1049731745428,24.08318915758459,25.019992006393608,15.297058540778355,57.55866572463264,38.47076812334269,30.5,26.0,31.0,13.5,28.5,8.5,4.5,1.4142135623730951,2.8284271247461903,2.0,47.0,37.0,42.1070065428546,{},{}
450,450,17,0,14.99999999999995,18.24828759089466,86.20904824900923,8.06225774829855,18.110770276274835,23.08679276123039,26.0768096208106,15.297058540778355,59.682493245507096,41.593268686170845,32.0,27.0,33.0,15.0,29.0,10.0,6.0,2.23606797749979,2.23606797749979,1.5,47.0,40.0,42.1070065428546,{},{}
451,451,17,0,15.033333333333283,17.26267650163207,86.14522621712709,9.055385138137416,18.110770276274835,24.08318915758459,25.019992006393608,15.132745950421556,59.53990258641679,41.43669871020132,32.5,27.0,32.0,14.5,29.5,10.5,5.5,4.123105625617661,4.123105625617661,4.0,46.0,39.0,43.04648650006177,{},{}
452,452,17,0,15.066666666666617,16.1245154965971,83.21658488546619,8.0,17.11724276862369,24.08318915758459,26.0,14.560219778561036,55.57877292636101,38.47076812334269,30.0,26.0,32.0,15.0,26.0,8.0,7.0,6.082762530298219,6.082762530298219,6.5,47.0,39.0,43.04648650006177,{},{}
453,453,17,0,15.09999999999995,15.132745950421556,83.21658488546619,8.06225774829855,18.110770276274835,24.08318915758459,25.019992006393608,14.560219778561036,55.731499172371095,37.65634076752546,29.5,26.0,32.0,15.0,26.0,7.0,6.0,6.0,6.082762530298219,6.0,48.0,39.0,41.04875150354759,{},{}
454,454,17,0,15.133333333333283,13.152946437965904,80.22468448052632,7.071067811865476,17.11724276862369,23.08679276123039,24.020824298928627,13.341664064126334,50.635955604688654,33.54101966249684,26.5,26.0,32.0,16.0,21.0,2.0,8.0,9.055385138137416,10.04987562112089,10.0,48.0,39.0,46.09772228646444,{},{}
455,455,17,0,15.166666666666616,12.16552506059644,80.09993757800315,9.055385138137416,17.11724276862369,23.08679276123039,24.020824298928627,13.341664064126334,51.62363799656123,34.52535300326414,28.0,28.0,32.0,17.0,21.0,2.0,7.0,9.219544457292889,10.198039027185567,10.0,45.0,38.0,43.10452412450461,{},{}
