,video_id,frame_seq,gap,time_seconds,m1,m3,m4,m5,m6,m7,m8,m9,m10,m11,m12,m13,m14,m15,m16,m17,e1,e2,e3,b1,b2,b3,m_0_16,m_1_15,m_2_14,m_3_13
0,17,0,0,0.0,3.701007620833641,146.4121608535919,18.281629051893436,28.331449030976962,41.67538361575804,43.539959869875986,31.62142297385088,77.01297980405508,48.70728511547239,49.17919702593315,48.70623095987196,52.953651709990254,19.224679508723284,25.948216722338543,4.210325372387956,2.3926518636036462,14.987938534544444,18.281629051893265,18.218467387789133,61.9771023428836,66.09468927094582,59.791607971949304,400.00000000000017,393.3981345744021,378.54632534855523,358.4899223110684
1,17,1,0,0.0333333333333333,3.701007620833641,146.4121608535919,18.281629051893436,28.331449030976962,41.67538361575804,43.539959869875986,31.62142297385088,77.01297980405508,48.70728511547239,49.17919702593315,48.70623095987196,52.953651709990254,19.224679508723284,25.948216722338543,4.210325372387956,2.3926518636036462,14.987938534544444,18.281629051893265,18.218467387789133,61.9771023428836,66.09468927094582,59.791607971949304,400.00000000000017,393.3981345744021,378.54632534855523,358.4899223110684
2,17,2,0,0.0666666666666666,3.701007620833641,146.4121608535919,18.281629051893436,28.331449030976962,41.67538361575804,43.539959869875986,31.62142297385088,77.01297980405508,48.70728511547239,49.17919702593315,48.70623095987196,52.953651709990254,19.224679508723284,25.948216722338543,4.210325372387956,2.3926518636036462,14.987938534544444,18.281629051893265,18.218467387789133,61.9771023428836,66.09468927094582,59.791607971949304,400.00000000000017,393.3981345744021,378.54632534855523,358.4899223110684
3,17,3,0,0.0999999999999999,3.701007620833641,146.4121608535919,18.281629051893436,28.331449030976962,41.67538361575804,43.539959869875986,31.62142297385088,77.01297980405508,48.70728511547239,49.17919702593315,48.70623095987196,52.953651709990254,19.224679508723284,25.948216722338543,4.210325372387956,2.3926518636036462,14.987938534544444,18.281629051893265,18.218467387789133,61.9771023428836,66.09468927094582,59.791607971949304,400.00000000000017,393.3981345744021,378.54632534855523,358.4899223110684
4,17,4,0,0.1333333333333332,5.2091459126883635,145.71648805745474,18.19476446410013,28.196833038349865,38.45605884789123,39.842304986925576,31.341574326385647,76.64705504284154,48.47585397593478,48.89456354392519,48.67225366050195,52.27458115923787,19.14133465638122,25.96488699655606,3.9698193468436784,0.7032251414408393,16.554924690579284,16.79899079863595,17.371929461788056,59.46108841112408,64.60597428463353,71.13870263471225,400.0000000000002,390.15077125790776,377.02126949297104,355.5447201538872
5,17,5,0,0.1666666666666665,5.21086948575979,145.7647019142182,18.200784646025912,28.206162648796887,41.491088134313664,43.12761893076473,29.84331875247917,75.31464194048635,47.18643009812432,47.376670335326025,46.8165972945402,51.104369590392366,19.138889401935444,25.95158114395315,4.200547805893734,0.8492910864375744,16.560402291490455,18.200784646025912,17.316356638066793,59.98290451563662,64.11459088208943,69.22812203707858,400.00000000000006,391.6584625589213,376.74622418468954,355.38741133313766
6,17,6,0,0.1999999999999998,3.698601984617715,146.31699369030116,18.269746085566833,28.313033732545087,41.64829482740438,43.29102631914281,29.956392900757677,75.32809286400708,47.04644986023956,47.5119608122443,47.25543653481611,50.81013009346452,19.092735505730275,26.073860484312945,4.104388438851856,0.9711276216926308,18.269746085566897,18.269746085566837,17.443650865120105,59.7884798034529,65.0472274907317,66.24525530413736,399.99999999999994,391.6223978025623,378.3002721536063,355.2198655101703
7,17,7,0,0.2333333333333331,3.730603199167208,145.7611168678533,18.427820424649976,28.411427512868062,40.352643369022786,42.00864612336341,30.21558298401995,75.74135181429243,47.453507321959655,47.90592747990195,48.91359750987283,51.77020337465285,20.148778259831374,25.261085843078376,5.1539086395301865,1.6224411950448712,16.766976013541253,18.42782042464998,18.36455517924071,59.23065946810732,64.74973293501216,63.42025438584351,399.99999999999983,393.34783822073007,379.78200196937604,359.6928356455721
8,17,8,0,0.2666666666666664,3.7163424067109028,150.32593550769857,18.357377306346688,30.10007936841604,41.84806174819417,43.4986726360311,31.75244344181921,78.97555520018109,48.90909928729419,49.36135291461335,46.84632899348833,51.87637683573837,17.632654048106474,29.351107946536217,2.7165923228180873,0.8200169068877585,16.702881723077642,16.702881723077574,16.638555339756408,59.62759810084526,63.86053453640011,63.177820914083156,399.99999999999994,391.71377251781615,376.80120101542286,355.26756170211013
9,17,9,0,0.2999999999999997,3.308130183728334,147.66642368915694,18.269746085566908,28.313033732545154,41.48374145842902,43.132740500971046,31.600869209012824,78.59855557771562,50.306425817328616,49.935562626340584,49.47182226019709,51.94819581540389,19.138564910745572,27.597189189204528,2.8520032517828895,2.2027667391820387,16.62314844247284,18.269746085566915,17.436637766998615,58.06029384117619,61.51979697260725,67.89730692662559,400.00000000000017,391.7586039673218,375.27963047105777,355.3623253979012
10,17,10,0,0.333333333333333,1.6561052942160177,149.63715535424092,18.292280857090933,29.993342536868525,40.05584322087371,43.1859424692874,33.28730444470127,81.75526114481733,51.76488188321386,51.5972297486793,47.82742236026024,51.95997613562838,16.631233082648123,31.710462636324564,0.3397877548636643,0.3397877548636643,16.643652222350635,18.292280857090937,17.407234847133907,61.40974910197008,64.8259935562744,66.32696534465109,399.9999999999999,390.08575001756407,376.8685839218835,357.04723729080024
11,17,11,0,0.3666666666666663,3.3398046761915734,149.08029157355816,18.444674187712387,30.10459252510667,41.88093757320982,43.54572535586874,33.5646215945619,82.43636573964748,52.435997037480654,52.07920767396456,49.81651368777227,52.36786410841694,17.552173514289848,31.193517916642577,1.1173797462678294,0.44695189850699535,16.782310797280953,18.368925719052967,17.552173514289905,60.422309779430634,63.73720302669176,68.48635749683173,399.99999999999994,393.45252188239624,381.6740707631837,361.81431414817246
12,17,12,0,0.3999999999999997,21.50980214279727,148.9238015272045,16.579546295227484,26.601040773291707,41.374930530726424,44.664650726400936,28.093830240030673,92.75219643413708,66.17439461487378,55.41016846011894,50.46878069163154,53.67050385248672,23.97590956582644,40.632272830391344,11.909299734163938,8.615041221838851,14.938908975484445,16.57954629522755,16.56382791309511,56.76118459157834,62.387333960942385,67.65890278317316,400.00000000000006,388.4746911805178,375.30462432580117,352.5091519467189
13,17,13,0,0.433333333333333,26.51525942910112,149.96591354014797,16.52608162896144,26.515259429100894,42.88087740217633,47.71613431949208,28.003235043324338,97.52038133676953,71.01476018122169,57.73164211139783,53.40552263588506,55.573274477194104,26.486924554522147,42.90928698868106,14.278071110613041,11.078056487728418,15.160679597153838,14.890734932085977,14.822355122716658,58.7263680645525,63.13694540401235,64.13185673412487,400.00000000000006,388.42818855530686,373.5735644349278,349.00181183074943
14,17,14,0,0.4666666666666663,29.918813983343018,152.2073828646714,14.959406991671557,26.483416667705608,43.07863246137761,46.28521443457012,29.781675840515582,101.10935461016507,74.63266574135464,59.62161943143133,54.38819743320289,56.601616056109606,25.71692315258531,45.52514404910619,16.600639671800195,11.714236694959482,16.847059953542516,16.60229546713112,15.714334333390468,60.24062633444771,65.47404833267615,62.775625444070656,400.0000000000001,390.041135083697,376.7443114129648,352.0134776333995
15,17,15,0,0.4999999999999996,33.07229110804088,149.87670770877452,14.899802976392712,24.73590584017352,42.906990666428655,46.188803078213276,29.799605952785484,102.4918806714646,77.77055242394589,61.06986766086072,55.38479766011892,56.83190638758049,26.395639061295128,46.185320749827724,18.850000696674442,12.328614613178843,13.568381804950096,16.45407980897586,15.622196489641567,60.58123354509439,64.62186181008445,67.4817901844468,400.00000000000017,388.4870615975059,372.0405347964459,347.4305349005351
16,17,16,0,0.533333333333333,32.93686062426357,149.26296507553405,14.838788530230392,24.634612715857934,42.7312872510107,45.912014390231235,29.677577060460475,102.07217811934194,77.45208330113859,60.820666781315026,55.17343681090506,56.585244303507466,26.28785551225826,45.996688108988906,18.833511951317178,12.282725185641539,13.2113804082573,14.74803056245731,14.739270222769903,60.312416083978064,64.3784216626733,68.82414262480076,399.99999999999983,388.53416626506714,372.1080200946762,349.2251579699466
17,17,17,0,0.5666666666666663,41.96146101910424,152.33599854114672,15.150682758904162,26.97813678858345,43.533101831693436,46.877032005108155,28.49208801979536,112.54716767171283,85.59081065015226,64.53039030125296,57.44595315985157,58.18822177281004,29.338401822315404,54.519159831540605,24.931769170701045,14.897049187920288,13.489068394291676,16.731130181416482,15.91179615247114,62.21902221533162,66.6068632564913,73.63598299165429,399.99999999999994,391.63712609948203,378.1827627021142,353.09027669419714
18,17,18,0,0.5999999999999996,45.09824028007748,150.0647289121764,13.429637408816989,25.041585834121655,41.67683930574869,46.640762325693956,30.029582159288974,113.57621251316067,88.53537577486189,65.89289743962127,58.427199700156734,61.70138093939272,30.05096229344622,53.36539077283237,25.468990271871917,17.18004293920876,13.429637408817046,16.657415116319264,16.653163199561618,60.87342706280424,64.10056546814297,68.29540197690883,400.00000000000017,390.0112409091771,375.02867075008106,351.7239925362474
19,17,19,0,0.633333333333333,46.3846508683366,148.86143544403095,14.962980484613896,26.489743008221826,41.4415991890358,46.29627101503546,28.13909866573793,115.9616271708414,89.47324041775424,66.19140860682,57.97884079621906,61.18835005553444,31.4626304744055,56.241929902942616,28.57407214102159,17.048158006833546,16.606261412152215,16.523847695440587,16.53841241858936,63.62380119936785,65.34183262641295,74.37567219416908,400.0000000000001,390.088814600535,373.61804518251904,348.9036950161241
20,17,20,0,0.6666666666666663,48.77920761711685,148.99163020048206,13.384904145133243,25.318794249880614,43.53310183169374,46.87703200510785,30.301365517808314,117.70204412681227,92.40068653965147,67.90004316768011,60.81593678163222,61.60464346176889,31.011376513571236,56.1929753372159,28.236649397909446,18.249532279550635,13.48906839429171,16.73113018141652,15.91191970950672,63.856733620713726,66.73598812771917,73.61697279823277,400.0000000000001,391.63712609948186,373.19797562362294,346.4798522983811
21,17,21,0,0.6999999999999996,48.83414926435033,149.66610690347298,13.439566446579525,25.422193089987275,43.71088566259867,47.06847203535329,30.425112565841715,118.02740192950985,92.64105281046716,68.15200009216153,59.34745028329735,61.88984026539879,30.29759574611262,57.21315611013108,29.181195717071773,17.473067681416524,15.212556282920858,16.883246398739193,15.976716381987785,60.76405872350881,65.27656640391774,72.23766965036499,400.0000000000001,391.55713246975205,374.7634911728373,347.9475591589153
22,17,22,0,0.733333333333333,53.63798476015539,148.92771654142058,13.487534654051998,25.14954398607877,45.16891508910846,48.54359557841743,30.112610059405753,122.30655961599349,97.15923033804387,70.30936775864961,61.54904734033403,62.371213334285926,31.85184462775908,60.25909724637495,32.16370069443076,20.511624021525222,11.829350429017754,13.487534654052055,12.559294321403968,60.04646811000811,63.7887409100652,71.93567958635812,400.00000000000006,389.9668765058561,374.86911015229083,349.8969087785472
23,17,23,0,0.7666666666666663,47.574694788704605,150.8733513701697,15.346870491824484,27.169363465181384,37.32362104979326,42.4033402413164,32.37869451014801,122.4470012241516,95.28513419841599,71.21868565527791,58.072127725514065,60.5897621427639,27.111102139062154,62.749833695307075,34.02724960434762,11.966110664088205,15.625084148413688,15.253004959966791,15.247852025094915,63.79313356082105,63.332710145993246,69.5685344760059,399.9999999999999,389.8321729398067,376.30185714942036,350.96645516682247
24,17,24,0,0.7999999999999996,54.0964881754373,155.233695512283,13.60282758927814,23.68130483978213,42.21430871766854,45.555023961869665,28.880607573547962,120.21982652539593,96.54101327884972,69.17614749765414,60.74003194915974,62.42725505885858,32.90085063912818,58.20919728461149,31.213627529429345,19.403065761537164,15.27845507228916,13.497784877591016,14.34139643244049,53.991139510364235,62.427255058858634,75.9250399364496,400.00000000000006,388.15300130768225,371.223593911341,345.8807374882707
25,17,25,0,0.8333333333333329,48.159729642789614,154.3604543481746,15.029167361085962,26.60691707992935,43.18394646546231,46.47142884493168,26.60691707992935,116.368096825777,89.76167118454171,65.63701159841446,58.31597896466417,56.36564422724359,30.75415895648962,58.961238964855625,29.560670535083204,16.28675053114614,10.095523789548944,9.958163323913931,9.974846318747836,57.248631595926554,62.25546107109574,71.38613331220198,400.0,386.740728590744,368.4856838927143,343.6568431214824
26,17,26,0,0.8666666666666663,50.02733580282915,153.3320023321455,15.092177555645346,25.055276471179432,41.69962470298498,46.666261579348706,28.333087387461656,118.4378919273606,93.3920274829816,68.36621300443244,59.705871877553705,57.00043424199225,30.024476368568003,60.04895273713555,32.073159215786404,17.04621756609197,11.78501071977949,11.666565394837232,11.664749225790388,56.41229562556583,61.87218244805757,74.99934896681023,400.00000000000006,386.6633102288887,370.0005419383925,345.0010309537899
27,17,27,0,0.8999999999999996,35.565127706198545,158.55987166066996,15.1735386916057,28.710672546409622,45.64533032516991,48.921573007830425,25.345367139957332,104.74613797076432,76.03610141987201,58.237527864762455,49.485620520403245,50.04099319652232,24.436397749239404,54.91486719901559,23.469283261514647,9.93925582433792,15.26691519565756,15.266915195657672,14.34872336490406,59.33869782603301,62.144287379531136,72.49579597100445,400.00000000000006,391.66298447661796,376.60487400528115,353.15294313308516
28,17,28,0,0.9333333333333328,34.054261477940656,165.09729566439958,15.305297984932817,29.109389028247094,45.94737554502773,49.34638306822427,23.868899347848593,102.26181367413787,73.20436700975971,56.17350708871595,47.054741277102266,48.29603924098683,23.82337246070813,54.53117439803793,22.868527873104654,9.32883162088649,15.399485323058373,15.305297984932933,15.296610293408662,60.97637536436173,64.91033506528834,71.4247239296868,399.9999999999999,391.66738934597294,379.6923624514079,357.70620342828835
29,17,29,0,0.9666666666666662,28.63206944829248,159.0476158064963,15.146973122998594,28.485111748532766,43.61876700268281,48.62361937303528,23.477510404588976,95.71020934269673,67.24184277109967,52.862995332970854,45.55120144326895,45.06028694066799,21.836254702234555,50.318736516605895,19.476088824344743,6.032583983885843,17.05829411954119,15.054330216486814,15.07673962795866,56.91776031118525,61.64753273047603,73.6749404636435,400.00000000000006,389.96954210581583,378.26772757615385,356.6037225219322
30,17,30,0,0.9999999999999996,27.084729337890042,159.79460612257859,13.542364668945115,28.604662298771764,45.476791160388885,48.74093676320739,26.92801792027715,96.11190017303049,67.52405332984155,53.9076564949537,45.26093251281736,47.382538724355754,19.400910134400306,49.67858811328722,18.580555732605603,6.83157200115329,15.486286474599527,15.117512466805856,15.945049349827968,57.87741745076522,59.67842539033768,72.40368675865892,399.99999999999994,391.6674608300181,379.98897382680696,358.2579152854972
31,17,31,0,1.0333333333333328,20.22013351886331,157.9867701435534,15.205718425393963,25.410766125896885,43.78793596052544,47.137128935601844,26.919474616588705,87.72063882072628,62.33394690001769,52.190432838896754,45.68654338114948,45.34916583002712,18.602623304939698,42.08784950251129,14.394775514552975,4.404651361874926,17.12445219866809,16.875657586489922,16.812647964262965,57.26983930301628,63.7362423661944,82.29747666339995,399.99999999999983,391.61160651787304,379.868416821413,358.23478120653414
32,17,32,0,1.066666666666666,3.771806171219966,153.95254238745,16.952160340903863,20.311797852586622,42.304804001333544,43.986440682128666,35.58314825306384,69.67129420254763,49.380419554349345,50.81631736328495,45.72345136372212,50.703974730941695,12.675993682735452,21.251481284940496,1.5166255366345922,1.5915206248633922,16.95216034090382,16.95216034090382,16.888842395609004,62.687188847560094,67.36813186186413,65.78531697504843,400.0000000000002,391.63264860460936,379.77049995443446,357.79711990004483
33,17,33,0,1.0999999999999992,3.7407690595985716,149.34994118732317,15.14896008902603,20.144657891367913,40.46260396215592,41.95668989782301,35.290344727634455,67.43767327025994,47.31740171607116,48.705648055970755,44.84690141334397,50.76271756581866,12.569948449567391,19.386603168431407,3.3015269108394705,1.7598856528946953,16.81266587357445,18.402150591859044,19.224080746660206,59.36247542640194,64.53533193649366,66.93781951148063,400.00000000000006,389.96687650585596,376.6454773889793,356.58379491876894
34,17,34,0,1.1333333333333324,2.355714237157759,150.36950419331365,15.083930928410263,20.05818395613625,41.776584576386306,43.43722427630685,35.13885568271031,68.80137571863595,48.763853718945846,49.34887931922833,45.13342311655174,50.1625497094941,12.554428450937394,20.948564793453443,3.1305623489887466,1.5399976312939998,15.083930928410263,16.740495008838675,17.54677898104279,58.6026561305564,64.83619878140627,59.989825256415116,400.00000000000006,388.24643477776726,374.8843698902545,353.27860303894676
35,17,35,0,1.1666666666666656,2.3465153265228715,149.66280043653546,16.675124466376953,19.97985805446399,41.77851761732935,43.267604745195214,35.001640740365495,70.18003292867338,50.21762094468542,50.77210418063464,45.76951797666368,50.74446558282273,13.32180414538152,21.668660684604106,2.598028194327526,2.598028194327412,16.920962656881425,18.326870568486044,18.269113153728654,61.191855555756774,63.45822057634035,64.7315078548239,399.9999999999999,390.00891868827813,373.4204708474126,353.51481924970506
36,17,36,0,1.1999999999999988,4.70995847527558,151.86421007452597,16.652217884872467,20.051925660734806,41.76354998623007,43.583025013462354,36.78595165505595,70.4331732146256,50.398756552568535,51.79277689101093,46.875975087653046,50.12919733348383,11.755962206524941,21.737439551687658,0.7393686922342795,2.3290113805379633,16.98199678791276,15.079224635170139,15.840974231119333,60.14764311325831,66.43227699724957,66.62968356047583,400.00000000000017,390.01755282012476,376.5758339991647,354.8329360112111
37,17,37,0,1.233333333333332,1.6525398786891605,149.0587306404872,16.607820239768227,21.546483903687303,41.445489306604486,43.092967807374606,34.860366930696486,73.17972032838247,51.65343769288575,51.41480149029121,47.73150364064327,51.85973286191745,14.990058994582114,23.18230053813295,2.5319805890480893,0.7522551025433586,14.964385057661241,16.60782023976817,17.370671178850273,60.29049431603079,63.81324991818468,64.47023819640678,400.00000000000006,390.0869301459777,375.184787233125,352.0530559150313
38,17,38,0,1.2666666666666653,5.244937595366077,149.42089880544853,16.585948986803743,26.744039146348495,41.49803110682828,44.81276645876525,35.18411100294912,83.5247048973343,56.78114307102535,54.09081379907013,52.91300366987093,53.676485334648305,18.295627698626845,29.961999966504436,0.8472784328627085,4.161906148237222,15.01921559570075,16.668672437563355,15.809656912095932,60.46402354955876,64.03004156918928,68.0832498409822,400.00000000000017,389.9955870135344,373.3644110784947,350.15605632414145
39,17,39,0,1.2999999999999985,33.34604032783992,153.4264906774398,16.73527185587745,30.158449270340103,45.084169309825754,46.65593670487578,28.504005617138063,108.6995764493924,78.54835466639157,61.79389523166117,54.835981642958814,57.16922988713293,27.5853153967588,52.544564542604576,20.0464136994475,11.791734652329751,16.981996787912745,18.392975827527952,17.504009736174112,60.664454348525,64.26193271703238,75.00895382716736,400.0,390.017552820125,376.6384196194659,355.00872642873793
40,17,40,0,1.3333333333333317,33.34221798067746,152.7572143368226,15.021411038174158,28.394721543627067,43.16165989260441,46.4474456528072,29.90511552062912,106.63111741724857,78.24720105728706,61.52569725136368,56.3189563576409,56.91829343893278,26.71732332696206,49.85735344996351,20.742681797834166,12.586078707128195,15.293724647276813,16.588373447431128,16.575416154476898,60.383210940151116,62.340421096244654,74.72137024561256,399.99999999999994,390.0525948426521,375.1320460039608,351.9238185528766
41,17,41,0,1.366666666666665,40.27804486157075,157.4329932779957,15.052093033948204,26.96752304245774,41.8448052654309,46.858589630056834,28.627814515333572,110.83720108283188,83.88990505873323,63.71392079813165,55.602670113458885,56.93743288435439,27.717329008211436,54.449920447685486,25.19714755267455,13.576310841031614,17.055759133448024,16.807962536524474,16.745205671234714,60.38168087358821,65.22602967145383,78.62316479185165,399.99999999999994,391.7116180031079,380.0154389698656,356.62524739293787
42,17,42,0,1.399999999999998,31.952203737144846,155.86165947119767,17.055759133448092,28.627814515333423,43.61228493788856,46.948042952897595,26.811489776894142,104.3509930508954,75.7236108652648,59.612633966453586,52.206813119416665,55.24798669918846,26.920017983906405,50.38586350683704,19.467265445823386,11.038333733986633,17.055759133447946,16.807962536524396,16.782772718000047,60.27906397930485,63.507964323260126,78.67651083313017,400.00000000000006,388.44540031638553,376.7517619649593,355.0373736095363
43,17,43,0,1.4333333333333311,33.33333333333327,158.35466015531898,15.07347847692393,26.84066260916404,45.06698933025008,48.301720965905815,26.840662609164152,102.02982846388693,75.20176978633515,58.48042417913905,52.498357312295866,52.825246212123375,25.894270707763667,49.25281752115143,21.999622958390432,11.940784526555717,16.975525550615224,16.728894636709832,16.708692622611125,59.5404781828654,63.90211007484936,74.92491854670025,400.0000000000001,390.1140500089794,376.72665203287374,355.21683089637554
44,17,44,0,1.4666666666666646,33.33734487512673,156.12832252056282,16.66867243756319,26.744039146348516,44.904753075833995,46.47026549067594,24.9341486835194,101.66253219105621,74.93105160353856,58.216883110006165,51.81528535534835,53.02029199151934,27.489213887648475,49.1040204239639,20.183861155862473,11.824127617426939,16.91441550703335,15.019215595700752,15.778055642362574,61.45533844471555,64.69379377942477,78.02450682276596,400.0000000000001,390.12253411383034,377.02674913178487,355.49690226841255
45,17,45,0,1.4999999999999978,35.12150143129196,156.72361347480197,13.42300482788833,26.69067946296153,44.983629977162636,48.31134336447521,26.84600965577711,102.05015427538629,75.38240665479853,57.68078459997457,51.9715736181854,53.26105171227198,25.854970190851986,49.28983294425166,20.24854369482341,13.520831899589098,15.07648133095975,16.732227273489748,16.66977478152512,60.082203949106884,63.221802786882904,76.60436150229712,399.9999999999999,390.1917663470654,375.13913497931,356.94943617325936
46,17,46,0,1.533333333333331,37.27562455067107,160.52375392416135,16.958041925968825,28.88343413099176,44.00170186343967,47.276993021105994,25.534817539727985,108.63688020536682,79.75475810264481,60.959575504770214,52.25238099872297,54.55587160878838,27.98280393107416,54.96128595615994,25.38446652292066,11.895225510377486,16.95804192596877,16.95804192596881,16.926049002760408,61.56769702582744,65.0229329409255,86.20555881109232,400.0,391.5649761959519,379.7973208325152,357.9212583080333
47,17,47,0,1.5666666666666642,30.02810728705774,151.02595202234212,15.014053643528683,28.380813983830702,43.23599852755318,44.79736476513644,31.54607433067993,104.92821798833985,76.55695250648242,61.480774612518644,54.08048535594287,55.56807530828257,23.283607291999715,49.90958441362352,20.70386269110702,9.047936355686147,6.836211612937845,8.454301096930406,8.341801884638869,61.179490571538565,63.26964860583854,63.02675688494182,399.9999999999999,388.4876429260394,375.4318956589411,350.61247691051676
48,17,48,0,1.5999999999999974,5.291357111809317,142.38569080960286,16.81619596863155,26.82462346756553,40.29777518563927,41.86530307189865,40.19342168672534,88.93573507834978,62.11431235770876,59.479858285893215,51.905276599866625,55.41920962139159,13.476306960210195,35.148675781796555,5.448465296673021,1.1681958183261258,11.831834195232686,13.490366583251891,13.401542427837398,62.88631729213222,65.96100868596659,66.95187420498186,400.0,391.6748172860527,376.62049683345026,351.5309423504727
49,17,49,0,1.6333333333333306,3.6804898616343613,136.70431359525122,11.521755729558087,23.102221137603543,37.85719739711957,39.537438570698576,42.82673418746278,80.80330877883344,57.702757141989295,55.99661751181657,52.21702016543986,54.83902865665334,10.711183623679972,27.1963646695001,1.171535708839997,1.143642001486569,13.270194914947659,14.904847942669997,14.002641091373334,59.10676588171333,62.67716042293995,64.21373771408027,399.99999999999994,386.83331668899217,372.0026793320004,347.3142382055187
50,17,50,0,1.666666666666664,2.346919187894818,139.48876236172632,13.379497913657705,23.29250787139981,36.547191356773844,39.82853934377784,43.179486389043454,81.58709371981065,58.296263252223824,57.31500932673748,52.68939236829624,55.331277805482046,10.841000065925869,27.406085245754298,1.1633565697080712,0.49593288031383054,11.734595939475149,14.935702253916665,14.103960325187018,61.24539327539287,64.86060492627882,66.40163969696215,400.00000000000006,390.0760435586054,375.11081837908796,351.88138212042685
51,17,51,0,1.699999999999997,21.520054147056012,143.63255218495084,16.505128088891805,26.459733195989784,39.612307413340105,42.91333303111846,28.05871775111584,92.48764539896497,66.04114054302704,55.27932532367731,56.90642193647659,55.22804147628244,28.01030501346486,36.318288291426825,8.037577537152742,11.301095098641554,13.204102471113385,14.85461528000251,14.853667072719531,58.9950731758297,61.55926554557084,64.4545856535323,400.00000000000017,390.02424412340747,373.63250168860236,350.3794178721473
52,17,52,0,1.7333333333333305,21.955769772843855,150.02111799357039,15.155376047068012,26.94289075034335,45.466128141204265,48.833989484997055,28.626821422239743,92.63149415000576,65.69488151143172,54.69578518184835,58.89528301529879,55.47243649766915,28.564026238152564,35.3725144199592,6.231812953292888,12.928686574741846,13.471445375171674,11.787514703275221,12.626397140440304,58.16048715961193,59.94632012533174,79.14474157913331,400.0000000000001,391.59987898276677,377.9364721227196,355.98310335114337
53,17,53,0,1.7666666666666635,23.45046068387765,148.7835303308442,15.03698530125378,26.73241831334003,43.440179759177234,46.81155782889993,26.732418313339803,91.90787557107623,65.18168632616062,53.42102541309566,56.32056000998534,55.43910149253088,29.157719906322768,35.93103272465714,6.93568675576023,13.569821913443775,13.470227917342637,13.366209156669964,13.361055422467757,59.84639407980319,62.30519941796558,65.24589420873872,400.00000000000017,391.56448884271697,376.5515790010742,352.9294629529572
54,17,54,0,1.7999999999999967,21.629897053293995,151.63765634585565,16.63838234868752,26.621411757900145,43.29177917129498,46.706164961247076,26.62141175790026,91.51110291778191,64.88969115988178,54.05365905308804,57.69130538214415,53.603018320114415,29.036129701916707,35.82826116178887,8.613277514776428,13.417014812661705,13.414292700986062,13.31070587895013,12.497150223705034,57.95146910427343,61.98400679727547,71.71895533417371,400.0,388.27724900062617,373.32689025482046,349.9760232238984
55,17,55,0,1.83333333333333,20.102506860929413,150.70177820339947,18.36364561381872,26.71075725646356,41.868898994521196,45.197894616414445,25.041334927934635,90.16426202970369,63.46001076569528,53.412190285510405,56.981899442630834,51.31039891262651,29.12482330996295,35.997347481615066,8.507250795006371,13.244621825951072,11.804598491670822,13.459313103365366,13.411430665068849,61.11875865275147,62.9202941152235,60.469048572144295,400.0000000000002,390.00935678528685,375.1560088883711,354.924055505961
56,17,56,0,1.8666666666666631,23.260556033474764,149.86407119013296,14.953214592948113,26.635362888490757,41.66941267556856,44.98254714280107,26.790371158659276,91.51659319926651,64.88241079351968,53.26996681640878,55.450054426333054,54.02825815899121,28.009386466634965,36.77713011524315,8.909923275342294,13.50706453974783,13.395185579329622,11.630278016737382,11.658729392203327,59.24151113924478,60.663307406586625,63.48461414921222,399.9999999999998,390.0630766619061,375.160863917269,353.2330033158886
57,17,57,0,1.8999999999999964,26.565165799896285,149.76075405392166,14.942905762441852,26.565165799896285,41.64068554737139,45.104588920600634,26.617000319038457,94.65296627726832,68.09348219163722,54.77747399857344,54.46863124409663,54.63709092835677,27.936230973132183,39.9810983977286,12.016790810553175,14.880605442974911,13.385950862815564,13.385950862815621,12.480054942268566,60.53317987746004,64.3796760013987,61.99032810656705,400.00000000000006,388.2777812727981,373.3918095812761,349.67834301593496
58,17,58,0,1.9333333333333296,24.96837607793327,150.26270303178651,14.981025646759893,26.684901233973697,43.31051744410274,46.72638110568825,26.684901233973697,93.27470026070522,66.60313993781169,54.07379026791887,55.78098650697234,55.19620105492095,28.805399525244184,37.718661657318535,9.441455443604923,13.808482287150468,13.420098899783246,11.651908836368783,11.62025285366758,58.13899236201854,59.04446661035638,70.22779605018717,400.0000000000001,388.07064995454886,372.83878890438586,352.35992593341683
59,17,59,0,1.9666666666666628,28.42725897406845,147.61768923155878,13.377533634855608,26.75506726971133,41.93835458693649,45.272872622091775,25.138553493054733,93.65766453702113,66.90856730560375,52.65592051314354,54.557904830611164,53.60222798144025,28.942017520480476,39.435724099612344,11.168302002076075,15.684343583452346,15.142339907750731,15.142339907750731,14.297675214067112,58.31502656117533,60.826020635467614,72.38871341672915,400.0000000000001,389.8502567004709,376.2134044532677,355.9255230799377
60,17,60,0,1.999999999999996,28.362399991415238,143.82914760691818,13.347011760665788,28.362399991415113,41.842668998145115,45.16957907336327,23.416779647246717,93.44397735581643,65.08806826063856,50.89150049602824,57.1874526713641,56.046135932298625,33.201091040515394,36.7373019205703,7.091131870586196,20.206919314599418,15.015388230749155,15.107791492009921,15.089704099281846,61.74336457238712,66.99155056104007,63.74857541195753,399.9999999999999,388.2265801395855,374.9209814338679,351.25169470869866
61,17,61,0,2.033333333333329,26.446055205055,135.69719354517588,13.22302760252755,29.751812105687,41.32196125789854,44.74998610863797,23.37523121391019,92.62020577913388,62.89631455307414,49.696065640298684,56.99211169598743,58.89624774669687,34.64207914038275,34.64207914038275,3.600890947381231,21.746741925677043,14.875906052843437,14.875906052843437,14.8984506343877,59.73519877894023,62.855342505597946,63.15639690813161,400.0000000000001,388.32795398519085,371.7176276513343,350.02408718081335
62,17,62,0,2.0666666666666624,26.754721592894008,138.68060125802947,13.35130943618996,30.086769229230608,41.756206921044885,45.18412346711129,23.60200360012439,93.51875111902724,63.440675411904195,50.12890349301313,56.21968294089663,57.368176128905475,33.27806081648862,36.7047126233349,5.488291218108202,20.484599812356237,15.112656130393463,15.020223115713657,15.043377987199051,57.867111694188054,64.0520299279741,61.952449624277335,399.9999999999998,388.3515872873371,373.1244623339873,347.81138070762336
63,17,63,0,2.099999999999996,24.860123713951214,139.30545066037794,13.258732647440763,28.22351012197363,38.11885636139186,39.8107109188303,28.223510121973742,94.52660456166348,66.31437677098099,53.87088274126438,55.80760208588913,58.74088575347639,29.050790169372817,37.23013885783712,7.972514583698512,16.3398942764951,16.656076750059174,16.573415809300926,16.593736132344134,57.593896627048025,63.479267062655424,66.47985270328644,400.00000000000006,388.3275463597742,375.0026037105603,351.67288741455366
64,17,64,0,2.133333333333329,28.045350772951398,138.7340551921087,13.197812128447728,29.695077289007415,39.59343638534308,43.01960428559458,24.964892255149007,95.74100815197652,66.07149547842974,52.06744287718186,57.54972136888739,58.117833129685664,32.95048212631252,37.89305444525951,5.567495255825179,20.309995448546033,14.93890897548446,14.847538644503702,14.8703253389005,56.78277049180929,62.00939869115558,61.395542551741855,399.99999999999994,388.37309298925845,371.7160037262576,350.1308916583044
65,17,65,0,2.166666666666662,31.437721138676956,142.45088827250106,11.5823183142493,29.783104236641183,41.398501662574986,44.70528690799839,26.52552681424081,99.29080163892114,69.51360491490843,53.78276345359336,55.551411379746355,56.97006301444401,29.73568492202139,42.95154488736432,12.00253948829868,18.6104694709702,14.891552118320599,14.98319330400436,14.961174805398741,57.65138912847658,63.5966594659933,74.62303884290023,400.00000000000006,388.2007717106842,373.22890914771415,348.13469911511214
66,17,66,0,2.199999999999996,33.44880544515459,148.7459054920694,13.36282906840729,28.396011770365522,41.75884083877292,46.799719977545045,25.110921229862857,100.22121801305455,71.82520624268902,55.092962066451605,52.901684386107945,55.44639395037814,29.06623813410954,45.91787035972163,16.455788515614586,16.37096486347218,16.703536335509106,16.70353633550905,16.7243967473986,60.648911281775156,64.72044658460777,75.3327636895888,399.99999999999994,388.22698222241814,373.0277774317547,351.1717410916763
67,17,67,0,2.2333333333333285,35.0247655496434,148.30771292621122,14.993623859488958,28.32128951236776,43.346939190185424,46.67656955844195,25.044843473948852,103.2894088098122,74.96811929744445,57.44248246447114,52.80297047462295,57.0907161865523,29.904887221448803,48.20624086992723,17.23179401967127,15.482469826777788,13.327665652879016,16.7426727664149,15.848496899747317,60.63690055584186,62.82355579695877,70.14851310584447,400.00000000000017,390.0086085894647,374.9738494585435,351.5803402128859
68,17,68,0,2.2666666666666617,35.16657422386066,147.28340657940015,13.485765603701687,28.435957075586227,41.85102463090116,45.19395602207294,26.81547475071998,103.72109682402757,75.29023438134271,57.76234016272235,55.65656905657761,56.45921723604988,29.249443951942453,47.634808721735,16.690360673142322,16.690360673142322,15.054330216486797,16.81046069277493,15.944370012221157,59.452622799493156,64.42904151222069,66.99171725662444,399.99999999999983,389.9157277186856,376.4920478996572,353.0394883023402
69,17,69,0,2.299999999999995,40.15970354592117,150.55190037785238,13.374962672771293,28.421795679639004,43.46862868650683,48.599404315863154,26.80212037145823,108.67157171626698,80.24977603662798,60.162211381502175,54.99832023229226,56.898785748172486,29.150069554183574,52.60834087141245,23.218313550072367,16.461102826942692,16.71870334096414,16.802088912310793,17.612900109294287,60.258194488364836,65.30690590933966,80.40636111437448,400.00000000000017,391.57473247404585,376.47164155337,352.9587142335357
70,17,70,0,2.333333333333328,41.67683930574882,150.0000000000001,13.325932093055378,28.317605697742696,44.97502081406183,46.670498230739064,28.512901844377822,111.61711149392106,83.30373133130414,62.51431011882471,57.405243451629644,57.57745918198452,29.075755808250392,54.10444195316097,23.39263670653918,16.676223222698354,16.740495008838803,16.657415116319196,17.50859925274699,58.725564051017045,61.251394762888935,73.36830296615267,400.00000000000006,388.3464761930861,369.978401745354,344.90906649571184
71,17,71,0,2.3666666666666614,36.980338929790626,151.1644729132495,13.433525526245527,25.187860361710175,43.69123815543618,45.36923411832381,26.919474616588627,102.43063213762169,77.24277177591152,58.77154058260476,56.57695289568767,57.560899902569076,30.16472833841692,45.31944155224892,17.836451134548383,17.788218438132617,18.47109759858747,16.791906907806815,16.80909470089273,61.882549501421295,65.731518675399,72.38071564039952,400.0000000000001,389.9339668708887,371.4087401729968,349.5299052434907
72,17,72,0,2.3999999999999946,29.659250468079716,148.15016561380284,14.897912434340894,26.323187287259323,42.77517934179609,46.09494694775134,26.323187287259323,97.06675312176858,70.74356583450925,55.93718996348059,55.41912099364299,54.76321716027053,28.77896892079832,41.935068998877455,15.004988419976826,14.957459156689083,18.097191259990712,16.451992054536994,16.46888972924296,57.45337346236329,61.094115030213175,64.35231970338742,400.0,386.9716973471454,370.53524068548916,347.4526735308687
73,17,73,0,2.433333333333328,31.55692012427904,149.28275501295877,14.927354088123392,26.537518378885917,41.4980311068279,44.78206226437006,24.87892348020554,97.87115390178657,71.33886402353072,55.5157793620358,54.212457077686395,56.867017906839465,30.67119831662285,42.228600338134015,15.127163425336335,16.78506603704568,16.5859489868036,15.019215595700771,15.797991071692763,61.141148339338656,61.639477448060575,69.7399217310837,399.99999999999983,388.3379564493314,375.07721887588133,351.71989943506003
74,17,74,0,2.466666666666661,28.3468991043725,148.18566533360416,15.07347847692404,26.63339570340917,41.61468078657668,46.60844248096596,26.63339570340917,96.54605942485834,69.91266372144918,55.76481826195675,56.1098917325952,56.98912002764689,29.926851268665587,39.957617086405094,12.720448075182276,16.001009563170555,16.645872314630772,16.728894636709892,16.686429470603287,59.64571304817929,63.57860520668959,61.61221787986011,400.00000000000006,388.3628631757196,373.4022024116394,348.2967303291747
75,17,75,0,2.4999999999999942,29.659250468079694,148.07706820433793,11.516394438175942,26.32318728725921,41.12998013634247,44.42037854725001,27.96838649271298,95.43573561423305,69.11794955891708,54.25777334593579,54.16214808448717,55.959902999721066,27.100199094533423,40.29648517444002,13.521411968832012,15.089666256589112,16.45199205453703,16.534047386776752,16.485795073738814,63.38042328813236,66.66993228196401,69.17666508661623,400.0,386.8457755390486,372.1097291575746,349.03047516879144
76,17,76,0,2.5333333333333274,27.91327630517778,147.5575826362184,13.112992191440913,26.225984382881713,42.61722462218288,45.895472670042906,26.22598438288171,93.44444653873603,67.2240713265521,53.2586863500062,53.207174387476584,51.6149864547408,26.18680858781636,40.9941563622574,12.868624821051299,12.849893198313339,16.391240239301055,14.752116215370982,14.760518717595971,58.583150113301315,62.72283873841411,64.00983938335459,400.00000000000006,386.9200779170356,368.98134461054696,345.9949712791453
77,17,77,0,2.5666666666666607,28.376153258549913,153.30912443678906,14.99674585092165,26.66088151274964,43.32393245821795,46.65654264731196,26.66088151274964,96.66005911543587,70.00464812581437,55.80824390690418,54.080857087823915,54.14675195285702,27.454624838405266,42.50689472237934,13.917936850191154,13.899109745895885,16.746158947035983,16.663050945468537,16.671400853357056,61.225743167834196,63.83329711271256,66.67302934207038,400.0000000000001,388.33847079046717,373.3862166862613,348.35740990043263
78,17,78,0,2.599999999999994,24.848211621025346,150.4210204543199,13.223027602527571,28.098933655370903,43.00661408572232,46.280596608846324,28.098933655370903,94.22856948630907,66.13579576599685,53.70578294551376,53.663763294421756,53.710451795635095,25.589967514940554,40.502274802428246,12.162354566031809,12.125003765061251,16.6112228425062,14.967450954138599,15.710680658233002,59.0609540346648,63.24424374336513,66.19773034716673,399.99999999999994,388.42995257098613,371.9123432837724,350.4141297435272
79,17,79,0,2.633333333333327,21.369947816183043,147.51912137210124,14.751001609657115,26.224002861612636,40.97500447126964,44.283346282538645,26.224002861612522,88.52118428465612,62.303568855759195,51.61567652907229,51.559163014624346,51.61567652907229,25.365149068027677,36.89390601539708,8.787851496646681,12.027959658325813,16.390001788507853,16.390001788507853,16.38891918988793,58.585676644312,62.71116319900773,63.942016345337144,399.99999999999983,386.8595975472698,370.5046819948855,347.50282627300385
80,17,80,0,2.6666666666666603,21.305035059851484,147.53281093650602,14.840407526805809,26.27274572245829,42.64157479692316,45.917023653212425,26.221581612124684,88.55851524523246,62.297816397411445,51.60192664232352,53.189749450102795,51.57878053725392,26.164357170755693,36.070890140574534,7.990035470050202,11.193456411692637,14.840407526805809,16.388488507578,16.387442389326736,60.21690694925496,64.34617209368406,63.99909352745525,399.99999999999983,386.89330553316665,370.5103450638981,347.53257316564253
81,17,81,0,2.699999999999993,23.186786590397094,150.34017963202515,16.519901432650133,26.431842292240287,41.299753581625396,44.60373386815522,24.77985214897526,90.87447473082784,64.44879146813331,52.85050719986816,50.32466976691069,50.420709213030705,25.594512390995533,40.461418650380665,12.129782044963463,10.497111460922383,10.048663743874444,11.56393100285506,11.56314931285499,59.04505147461202,63.25157921467053,56.26475684472428,399.9999999999999,390.041135083697,375.18001865000025,353.66481580394833
82,17,82,0,2.7333333333333267,23.48552029801555,153.95030516921557,15.059466347982948,25.15482454548452,45.17839904394896,46.85167308261384,26.82462346756561,90.49613016462845,65.343440090923,53.54476923727282,51.871495198608045,50.19822115994327,24.262473560639137,39.32193990862231,10.876281251321188,10.876281251320961,5.01982211599443,5.291357111809293,5.019822115994316,61.91113943059685,66.93096154659105,62.11431235770897,400.00000000000006,393.34754387695745,378.3412840055984,354.8761381960749
83,17,83,0,2.76666666666666,30.16247388278023,153.96276539491865,15.150682758904141,26.769808290266337,43.53310183169382,48.549115732235286,26.769808290266337,98.7703674823101,72.02163694851215,56.854640694421164,54.322016478802425,52.6767350540573,26.731201575071736,45.171293947916865,16.489786863737322,11.452267894714396,5.019339054424947,5.290847920206122,5.000546352736421,63.10301284682379,65.75579806537354,63.600305524277545,399.99999999999994,391.6835834352657,376.68830777567183,351.60859193288303
84,17,84,0,2.799999999999993,28.370245969845488,151.6113501416912,14.993623859488954,26.707341757761863,41.64895516524678,46.6468297850764,26.65533130575794,96.68300575128616,69.99007470342819,55.78712359019187,51.96074179813297,52.893541339480635,25.77572610173013,44.127129323345684,15.467339333571203,12.10735731218631,9.99574923965923,11.661707446269158,10.81285998949977,60.184607142259495,63.19240974497251,68.38550443842435,400.0000000000002,390.0086085894648,373.35680799528484,351.7105690434001
85,17,85,0,2.8333333333333264,28.244853354182535,150.93213577991358,15.01921559570087,28.24485335418252,43.15535163427167,46.47026549067598,26.5892989517895,97.91330643574949,69.68072812438092,55.54089606833156,51.746351043420304,54.304155467619694,26.463438081140794,44.76157742349085,14.601971410677265,11.172827017794361,11.610164290762558,11.728037000983083,11.594443131673415,59.86948817082293,61.21865973523592,66.42667392574616,400.00000000000006,388.3379564493311,371.76212392540754,346.7891498982086
86,17,86,0,2.86666666666666,19.736381621402973,148.03199909224108,14.893378067921912,26.315175495204,42.76216017970674,44.43730558944249,27.95987396365417,88.82894468044537,62.52017882505743,52.60826463343267,53.411872228188486,53.44924932561901,25.472491898887824,35.35873416925551,8.802306444883357,12.09149101876767,13.157587747602058,11.512889279151715,12.33444215206589,58.7941742581811,62.94303207296667,62.52017882505721,399.99999999999994,388.49713535138557,372.0655472835755,350.7066407226454
87,17,87,0,2.899999999999993,19.80479216143843,149.66756062897292,16.44698468450263,28.008205674686813,41.15034253355309,46.051557116607086,26.315175495204,90.51820322387853,62.52017882505743,52.61760890779033,51.74859139253101,53.44924932561901,26.285443768001073,37.81627832531126,7.98935457576988,11.259850600938876,9.8681908107016,11.62977440048301,11.50280173423721,60.438766545123144,64.56893581119346,60.942681107449836,399.99999999999994,390.07449183700345,373.7086451341981,352.21132260383496
88,17,88,0,2.933333333333326,21.29359995131346,145.78846298904077,14.741723043217037,27.893610822491528,42.587199902626914,45.8631383566753,24.569538405361726,88.46550334098407,60.60486139989223,49.950805409918075,49.48554082897624,50.33232236629044,25.34296172390316,38.500644072938826,10.296305176243209,10.240473426530457,13.103753816192903,13.103753816192956,13.101850599322745,59.16304411256681,62.084905680881775,65.53924049814339,399.99999999999983,386.9076093274421,372.1796258371155,349.1987513228163
89,17,89,0,2.9666666666666592,23.03278887635193,149.74928155522903,14.80679284908327,28.016732918586253,42.77517934179644,46.065577752703405,26.323187287259234,92.1458436131939,64.16276901269443,52.63864048531809,52.95823223112177,52.23445092444865,26.277021335126165,39.49307999983296,9.517254194890256,12.750770681845324,13.16159364362962,14.806792849083326,13.982138878912622,59.46286423395054,60.7600307316244,64.18385784449248,400.00000000000017,386.84577553904865,372.04789606512736,348.97230891600566
90,17,90,0,2.9999999999999925,30.033488683559657,151.61135014169116,14.993623859488874,26.655331305758047,44.98087157846662,48.34150287564278,26.655331305758047,98.30565146606124,71.65557187278577,56.62955179465382,55.75427369644831,55.801331658717345,29.12417284835567,42.48863413278457,13.905627850523729,15.552656529942738,13.327665652879078,14.993623859488874,14.992666778940247,61.2129973196657,62.09768701032493,66.72157417850667,400.0,390.061977158865,373.47572800960654,353.5012574183294
91,17,91,0,3.0333333333333257,35.16134821614955,150.53022146818097,13.379638252398465,25.08682172324719,43.51597502658767,46.828733883394456,26.759276504796816,100.36122304844646,75.2790457070368,57.67740504614403,57.17480040896373,58.039092495329896,30.851469691593252,42.69790796233019,15.547863075392115,17.135530060129668,15.052093033948202,13.379638252398351,14.227938747843496,62.05992959277273,63.44091803511867,71.9350001265607,400.00000000000006,388.36978489840595,375.0030010485604,354.8797718378779
92,17,92,0,3.066666666666659,33.44354185194405,150.50522791977815,13.481522721319164,26.807038084330713,45.17973713043249,46.82095859272166,28.476149782089212,102.0165080972851,75.2479691668741,58.525264205388794,59.75339727184564,58.93149283506307,30.906440976259887,42.64928252707466,14.099912320668636,17.415871600102378,15.04959383337482,15.04959383337482,15.049353652814261,59.1487779160517,64.61869365050188,68.57965016817673,400.00000000000034,390.0512128173193,374.94073676988967,353.1501835850617
93,17,93,0,3.099999999999992,32.810212847741376,145.86009661739195,13.107710728304633,26.215421456609267,42.60005986699026,45.906236508077775,27.85388529764739,99.95972343261472,73.74907575350788,57.323943195892184,57.69161320583578,56.90042457684308,29.446179150800504,42.60783469662999,14.394978996906275,15.977356254891447,14.836921115511705,14.7461745693427,14.744032803814662,59.18090944864531,62.07572902060656,70.53011161408507,400.0,386.9585413861256,372.2235021737204,345.90606631195317
94,17,94,0,3.1333333333333253,29.654986612986452,148.08319225413527,14.804664203952088,26.319403029248164,42.7690299225282,46.05895530118432,26.319403029248164,97.06673803109531,70.75252052874372,55.915774910386176,56.69147427818848,55.084000889489516,29.570033731649914,41.14010382007689,12.93455331371797,16.16819164214735,14.804664203952143,13.159701514624084,13.158851926094599,60.46716758652832,64.61669191549538,67.52366466683297,400.0000000000001,388.43417643137695,371.9944099421965,348.9802980622978
95,17,95,0,3.1666666666666585,28.357705221108265,148.21409405870628,13.321774307898073,26.643548615796146,43.2957665006686,46.626210077643314,26.643548615796036,94.93224802864002,68.29439789149768,54.09831814400968,55.30543629700492,56.11018173233538,29.06796012097982,39.16890282650411,12.140556136447344,15.415037562963448,11.656552519410829,11.656552519410713,12.473554247618495,60.07840922379131,61.57690072406132,66.629683560476,400.0,390.017552820125,375.1223948151516,353.50191633523895
96,17,96,0,3.199999999999992,30.365834578285153,149.94886291269717,15.159540959205856,27.002881030130208,42.10983599779388,45.50980465905086,25.32198579998062,97.70933906902565,70.74452447629403,55.584983517088176,58.95377039691164,55.584983517088176,32.0034753583235,40.42544255788221,11.790754079382282,16.843934399117643,13.475147519294069,15.252831322553142,15.159540959205856,58.95377039691164,64.00695071664688,67.45990469686492,399.99999999999994,391.59521185060515,378.04033442182356,354.3997421238263
97,17,97,0,3.233333333333325,28.564142729522043,150.97029776630097,13.4187537311035,26.83750746220699,38.578916976922464,43.61094962608608,25.160163245819085,93.94625121166047,67.11473218318261,52.81403364947789,52.30801361724912,53.23330739046753,27.61423604448464,41.117742047389925,13.937237459101198,13.879406598274954,16.773442163879313,18.450786380267225,17.609497121561446,60.606742145801036,63.61394690876068,68.7711128719055,400.0,391.5260592212526,376.45822732307937,351.2424472468621
98,17,98,0,3.266666666666658,29.962110363834434,151.2784183704016,15.050039684207967,26.591981597025573,41.54997124535224,44.90473615390545,24.98532128977028,96.41025980089496,69.82373458948365,54.83269105187799,57.24386930240735,55.668438094890234,31.547049301746142,39.91412601971854,13.074157764822303,16.340295634065228,16.70288172307763,16.619988498140884,16.62848426958658,61.11520330624529,65.30354480915673,66.50072573310895,399.99999999999983,391.84420688161333,375.2806651740495,351.9554811731879
99,17,99,0,3.2999999999999914,30.399507607025054,152.0819576684233,13.510892269788924,25.332923005854077,42.22153834309009,45.630525906093034,27.021784539577734,96.26510742224579,70.9321844163917,55.71804248030105,57.29134808752701,55.67966917280762,29.470700154869974,39.75474656307972,12.241085090369097,15.502816227301423,22.020060345410403,23.64406147213053,23.637957415885296,60.05422622704623,63.507823901444965,77.70598557352719,400.00000000000006,393.2690959885727,377.84101607476174,355.56451825237815
100,17,100,0,3.3333333333333246,26.54938755604885,149.08627427693472,16.56105294216,28.153790001672,41.40263235540022,44.74550105024108,24.84157941324011,96.06838277346701,67.9205104661466,54.638250776938435,57.07916772650378,55.49017865345343,31.444753644401317,39.74387127292357,11.362229094643567,16.29192411043266,11.592737059512057,11.592737059512055,10.7639651364168,55.892212033381895,60.123134745961806,63.12781427592357,399.99999999999983,386.6713284145046,373.34432023615193,348.25890100914086
101,17,101,0,3.366666666666658,28.20245691786061,149.0862742769347,14.904947647943997,28.202456917860495,39.746527061184295,43.090574058882076,24.841579413240073,96.11119717777929,67.9205104661466,53.80132195414217,56.62101839141519,55.86405290489893,31.404605621842734,39.740688042102875,11.278785749092094,16.161213137121877,10.073695229885699,11.710432838990787,10.748909908530663,58.172797638773545,61.191197516257034,61.36534979622522,399.99999999999994,386.6713284145046,370.1460168341943,348.44785980097527
102,17,102,0,3.399999999999991,25.209142760804433,147.6041826222829,15.091985093411596,26.830195721620377,40.24529358243062,43.72786912011147,25.153308489019025,92.24404096279534,65.42009709325325,52.78926046029255,56.96134564282727,56.96134564282738,31.814530843987313,35.20554071837614,6.2486024651661864,17.945681470081468,13.519497084062474,11.738210628208895,11.754230856730544,56.16121971740972,58.02818021005078,68.83412731052134,400.00000000000006,389.9619196405867,374.90713554318353,352.820421121897
103,17,103,0,3.433333333333324,25.299788573432934,144.74063767331265,13.463335218923447,26.926670437847115,42.07292255913619,45.46991081138305,26.926670437847115,92.57572761047483,65.65533150481242,52.967353344050935,56.79967768717029,59.18129478819651,31.07443265148345,34.48619365731872,5.320835031260799,18.6843532092405,13.56810983583837,13.46333521892356,12.640527272311203,58.58589051294007,60.995860198502044,64.14982551253263,400.00000000000017,391.4835141680474,378.0574590429195,357.79304125720705
104,17,104,0,3.466666666666657,26.556444476833068,135.9276079977554,13.252363942720626,29.81781887112121,39.79158822669319,44.7573945621232,26.504727885441024,96.09391808819635,66.28252329783332,52.9641772137976,60.93600737058614,59.84786438182573,33.898019628124985,35.60119995835885,5.227817402523101,20.08333472733989,14.908909435560544,13.355496735058866,13.270613406404834,57.76619953376229,60.03710664074055,59.84234767831718,399.99999999999994,386.7741070164001,370.35926658838827,348.54047847019626
105,17,105,0,3.4999999999999907,28.202456917860683,134.2365031507226,13.248842353728046,29.809895295888076,38.090421766968205,41.43574122303067,28.153790001672032,99.380117572151,69.57613510292848,55.41910387355699,62.237167730392,61.84219023799608,33.9022347639866,37.21252231930521,5.144111627156917,21.639124047692917,16.561052942160032,16.56105294216009,15.723865887762997,58.40024351854561,59.28424076343174,64.778913703931,399.99999999999994,386.7812552916042,371.79840486407653,348.5541041043833
106,17,106,0,3.533333333333324,24.86012371395117,132.68051918678108,14.916074228370702,31.53307412778688,36.46151478046179,39.91407079226962,28.174806875811473,99.45430507666956,67.95100481813336,55.49905174307753,61.092700929324224,59.845531227232755,32.305418178806235,38.885634442827154,6.943198490748955,18.493479089970606,13.258732647440665,14.916074228370702,14.910193005602878,57.69555957661214,63.28920876285889,61.522876864483564,400.0000000000001,388.5114102311904,372.19036155716276,348.81430060852284
107,17,107,0,3.566666666666657,31.80311385958351,138.82796378057273,13.372276433040893,30.087621974341754,40.116829299122344,43.492031423534165,26.744552866081676,101.97730798443706,71.89541964864117,55.94969654609599,61.48737982198929,60.437129545526886,34.22861128289321,40.91202213310919,8.640695456350954,20.24118714636927,15.1363891593529,15.043810987170934,15.896970093728555,59.91200440729557,62.20345955594098,63.71595046368531,400.00000000000017,389.98373474758733,371.6223949126234,346.4958485898787
108,17,108,0,3.5999999999999903,29.884563939800934,137.62881861434997,13.261578785210366,29.838552266723326,39.7847363556311,43.131998066307126,28.180854918572027,101.13312500762797,71.3002589155573,56.31423965235581,60.954812679240035,61.6156992403445,33.116163550985675,39.744185294234285,7.686398047625744,20.894551203608103,16.57697348151301,16.57697348151301,15.765496805472878,59.45105630107537,61.65401150475623,61.5360834497735,399.99999999999994,386.6736746920733,370.03800299188515,346.77982541728807
109,17,109,0,3.633333333333324,31.177824261580444,136.00961518710656,13.109360499962039,29.54154466947229,39.32808149988634,42.605421624876676,26.269879528570023,99.972304631729,70.46281268729615,54.89607486869102,57.01497098427501,60.96706935716202,32.73575459469612,40.87802955570419,9.232673186780403,19.060541911646283,14.748030562457371,14.748030562457322,15.560792147704262,55.55793230704211,60.833745556630845,64.09693087651608,400.0,385.258266877819,368.8791538683055,345.8564471725977
110,17,110,0,3.6666666666666567,32.94035218332938,136.57153511729885,13.159701514624063,29.609328407904403,37.83414185454406,41.156953337802584,26.52422637539354,102.00095170382674,72.39704867505132,55.97113846314403,59.30824929591222,59.212078954910226,32.87102255447189,42.73809954127364,12.713719080459782,19.25330226859353,16.44962689328011,14.804664203952147,15.622871895769435,56.73088415705956,61.71250782096138,61.06335480064588,400.0000000000001,385.205869171065,368.9156616790601,344.0489701987321
111,17,111,0,3.69999999999999,34.72606954746488,138.7863795027312,13.21400549309161,28.12830062291622,39.642016479274716,42.97727055030734,26.633679543184417,102.40854257145995,74.34713141883077,57.019790687968,59.93139895179365,59.0340508311391,33.0014090755576,42.91042342916717,12.86835390044871,19.445724699713878,14.865756179728075,16.517506866364542,15.68927272654878,57.98396260484134,62.60435080055157,61.203994103276266,400.0,386.8624378594846,368.788251562572,343.8856073445048
112,17,112,0,3.733333333333323,39.86001043182211,142.71752671299424,13.275151572079876,28.209697090669685,41.48484866274945,44.8036365557693,28.404249031195892,109.53257091451745,81.32723420757019,61.43164678633673,60.201759848241636,61.03133064570193,32.353261100945815,48.91573853395835,18.703927631107263,18.703927631107263,15.02645128154166,14.934545518589804,14.946743612377873,56.63267618475044,61.166377054590555,66.45867576638256,400.0,386.6957602389986,370.1043751118342,345.16989621631853
113,17,113,0,3.766666666666656,39.66400364798668,143.7915109954208,13.22133454932893,28.09533591732395,41.31667046665277,44.62200410398495,26.49426459961913,107.43605528283045,79.34522070776242,59.51565441949356,58.29058350516232,59.11679412180433,32.23645905967305,48.73218137125127,18.61822889571056,18.646718916973896,14.965534548041914,14.874001367995017,14.045580482915454,58.00568329252707,62.56408669469033,67.8399095575839,400.00000000000017,386.7558163162143,371.8647242814281,347.06396681857404
114,17,114,0,3.7999999999999896,38.361224095429776,143.30223813102936,13.330440756374825,28.327186607296543,39.99132226912435,45.02108447963372,28.522548829952964,108.32264811868613,80.00000000000003,60.854330030780034,58.793430105699144,61.278066463974255,31.65503763430513,48.28669263717859,17.9510161698646,17.979907290309598,16.746158947035976,16.663050945468612,17.508018989706954,61.85588887287554,66.4880985175671,71.67049208711117,400.0000000000001,390.00439399048713,373.3862166862614,348.35740990043246
115,17,115,0,3.833333333333323,34.73940037718776,143.79545578981987,13.219078156352408,28.090541082248865,41.309619238601385,42.96200400814555,26.643903822854238,102.4611805288147,74.37567219416896,57.04138346800357,58.28757059441489,57.44733836524358,31.37653723202743,44.5936734212371,14.515247779221454,17.819531826523757,13.219078156352465,13.32195191142705,14.07152963572645,58.013787059066885,62.62090310216291,59.48585170358583,400.00000000000006,386.831003483398,371.9187404367446,348.7510627285116
116,17,116,0,3.866666666666656,35.03935590962555,145.00831948039811,13.333217594099636,28.333087387461706,41.66630498156134,44.99960938008619,26.718467306335842,103.33243635427202,74.99934896681032,57.50532203663363,57.08872090271848,57.92192317054878,30.81411835337974,45.8117591743254,15.442973067544585,17.138108715889075,15.092177555645208,14.99986979336212,15.845208645117907,58.496545424224905,63.122254566317395,65.02079959622363,399.99999999999983,388.3335389185467,373.33381282205545,351.6675634349946
117,17,117,0,3.899999999999989,26.55235956251841,146.07568914453626,14.935702253916615,28.211882035175876,41.48806181643514,44.83782812755442,26.604169093856616,96.26660857931404,68.06065644895584,54.784570729986626,58.51795397023352,57.68831325017868,31.526347362084948,38.16347312252378,7.928725517797034,17.884414158455456,13.276179781259206,13.276179781259206,14.10389224093268,59.88497561123302,64.56113239699675,63.14913684560642,400.0000000000001,388.3849902688404,373.4515569299814,350.1749714482403
118,17,118,0,3.9333333333333225,24.885770340834075,142.6880619421799,13.272410848444958,28.203873052945088,41.476283901389934,43.16722830081005,28.252626543184956,94.58047925759988,66.38278914485247,53.94288895857608,56.47768466139803,58.04260474410148,29.025987761520014,37.31912712195401,8.635172791683772,16.92831215211811,13.272410848444736,13.272410848444787,14.098336912738205,55.54997754650208,62.250084487417666,66.44495502937765,400.00000000000006,388.39168256831977,371.76079647903566,350.1227328983469
119,17,119,0,3.966666666666656,26.638701459469168,143.27011170424186,13.31935072973447,26.63870145946894,41.62297103042033,46.617727554070875,26.690679462961487,93.2503192700707,66.61756188340902,53.3032739359428,57.56084272957048,57.36562669318164,30.7837097382062,35.77566266872623,6.762841260620689,16.746747121660405,14.98426957095139,15.07648133095971,15.03163480195667,58.53692291151606,62.9897077415327,63.35448267384465,399.99999999999994,388.35815664139955,371.65001430116564,351.5502843582839
120,17,120,0,3.999999999999989,26.643548615796128,143.2477946633382,13.321774307897945,26.643548615796014,39.965322923693954,43.29576650066859,28.504005617138112,94.97605280588256,68.35527539390638,55.04074710241355,58.88275577413435,61.182352205383154,31.614776953186492,34.94264821141678,5.870514466765599,17.518063870571154,15.079224635170126,15.079224635170092,15.872824147401161,59.09775869250302,64.16434920362894,60.15577698220464,400.00000000000017,389.9500034610934,374.91165914969605,354.8329360112111
121,17,121,0,4.033333333333323,26.815474750719964,143.89138355520885,13.485765603701674,28.485111748532727,41.85102463090123,45.19395602207306,28.48511174853273,97.07445701868987,68.60123344148488,55.2524051452109,59.544492371347474,61.04719249428365,31.81967510317429,36.7785855088639,5.954449237134668,19.384831585877123,15.054330216486846,15.054330216486846,15.07396060820389,57.2153071807964,61.53557003423799,66.99171725662455,400.0000000000001,391.641264585216,376.5403501704185,354.7551053209045
122,17,122,0,4.066666666666656,26.903122654338496,142.89108477796788,13.529844595210982,26.903122654338485,41.9878170840383,45.34167503649975,28.72565499494915,95.78812448977764,68.88681136343526,55.5216262932031,60.259128922629316,59.16402781230954,31.048497132147986,36.07643962126747,8.060896433787207,18.20248497718171,15.103536150602203,15.196481865720521,16.007521447367196,55.76445306114351,60.135334884071426,60.7859274628821,400.00000000000006,389.85606226238775,376.2846382989432,356.0254035498354
123,17,123,0,4.099999999999989,28.57821695559343,142.8910847779677,15.196481865720592,26.90312265433853,40.311043129570066,45.310608451806715,28.969717622061225,99.2393580121128,72.33674870766224,58.16084421667165,62.57252720836152,63.79538176895801,34.38102629984394,36.05539639050653,7.685170584670914,19.631518984343074,13.425365467201978,13.529844595211086,13.507839607818255,56.11961775783004,61.763561883659236,65.79199622380482,400.0,391.6219032888999,376.449258627032,356.0926344915711
124,17,124,0,4.133333333333322,32.3538592965134,143.2043369036101,15.398511204946063,27.4194337138652,39.25865455714873,44.24519785733283,25.732948353326453,100.55869377031814,73.19973635501314,57.12384044586133,60.851192705606536,62.00696084816309,35.732498407375715,39.12275162554192,10.112971247370524,20.553410135132026,8.50240545821416,8.670786268782345,9.458035966588398,61.313499962629066,63.239780200223436,70.23625074573195,399.9999999999997,393.06133974279993,379.1920321781616,358.2692114533016
125,17,125,0,4.166666666666655,33.45757778863686,146.15447992746772,15.148562633264943,25.148884149952398,40.18392987642926,43.62334431838732,25.590126303271248,99.05364389130669,73.91020508722407,57.25165662034942,62.47898179003357,62.47898179003346,37.03167354640664,36.57212847654432,9.439821643422079,21.866686240949548,6.897456359993442,8.53004210109047,8.48243608120896,58.26648531629547,62.747049747453275,64.35693585376751,399.99999999999983,393.0268655108395,374.40360051075925,350.6547294206049
126,17,126,0,4.199999999999989,35.73982742405496,145.15092397692172,13.721128598687635,25.58511515131994,39.18060079476404,46.07710064094454,26.034011063956456,100.77182232046383,75.192246969649,57.39818039742522,61.83075598063783,63.29032230527582,36.67037943813648,38.208311739936335,10.594100537556983,21.23228193726743,8.678003687985504,7.0170992147964855,7.782721106878398,62.56543701652947,67.16943817478341,63.54253594250328,400.0,394.917016187134,381.04623684350895,358.5674288244236
127,17,127,0,4.233333333333322,35.71010292449936,138.4091330895666,14.022526310417929,27.419433713865097,39.2586545571486,44.50584928949035,27.260785706944237,104.07722249660709,76.69150870945703,58.872877254860214,64.12458607976907,65.63903234555653,37.65108829169435,39.15576393641231,9.51169961125322,25.09584021726141,6.131171768875188,6.8019243665713,6.854090680322656,59.39560548208368,61.916425718040045,63.73969328419976,399.99999999999994,391.7238222945894,378.0158374948716,353.80633116717314
128,17,128,0,4.266666666666655,40.65709169068604,139.45025714085924,11.968325849288039,27.29198202587397,39.07617151086166,42.44961202796733,30.653870930828,110.485216161042,83.21214703697481,62.86815275800245,65.83403201134252,70.19090391926989,37.3634772710127,42.39934220355201,14.183409847451571,26.150661906238838,10.704796070350424,10.704796070350268,10.397080689371876,53.79133628315401,54.781534444046656,62.41915093034216,399.9999999999999,388.03962916799395,372.53997640480895,344.94118710358373
129,17,129,0,4.299999999999988,39.148014634313625,135.20696147708443,12.0242171118013,25.73294835332639,37.564855120191375,41.12915057079772,31.030868003176828,107.78957843462287,82.06473122680646,62.53231927574552,64.40867178310111,67.39551863154452,34.88483947348698,41.85414878652159,13.593982451248849,22.018422280192226,13.709716856932571,12.379689211803528,12.253730660280894,57.74570573657337,55.75447450427765,66.0347408724865,399.9999999999998,389.85174767584095,372.76236662336197,346.86896654750456
130,17,130,0,4.3333333333333215,40.52128096149403,137.15005592065782,11.92834691835103,27.043432945011105,40.626485675881625,43.989569886299876,30.411436850788284,109.85742002499737,82.81400353719536,62.45971685375048,64.28508410886457,69.4207028628905,36.512074032995656,42.79209401950243,13.302482094912193,23.5548038801129,11.928346918351087,13.9107234131862,12.971456945021032,52.859987506906634,52.59516738699352,67.1598770731737,400.00000000000006,386.5704689114462,371.13072750231606,347.3013537615262
131,17,131,0,4.366666666666655,32.2063547093988,141.14756853432473,11.969397463728006,27.13650096850654,37.39359306475189,42.62181262188174,32.56028132204596,103.75472509694524,76.64153900746413,60.51686769459934,65.7883718491812,63.96091707559299,32.40217887016297,38.86855729978333,10.191574698858176,22.28089089336595,18.696796532375945,17.011710108107636,17.92311412557831,53.558482210551574,44.98350211909826,68.04684043243077,399.99999999999983,391.4633482314738,374.64405265413166,350.80341681529234
132,17,132,0,4.399999999999988,12.135149359484373,132.545609894311,15.540573797716178,25.74253920840862,34.36626306154717,36.08039292741429,36.20263063363231,89.50443921252332,63.86824910988748,57.758320413367414,63.05653469373419,61.24314415352228,25.964455462125898,27.347394712489518,0.5586708229945998,11.054355464827495,17.161692805605735,20.59403136672691,20.60671068422687,55.317570014546845,50.866520506753716,74.11387862028111,400.0000000000001,393.13763750733733,379.3704669838076,357.0292107658459
133,17,133,0,4.433333333333321,16.946284871355914,140.60472992317844,13.59472710506293,25.34942048914777,39.11154335268632,44.13255809610154,28.863409170918583,84.73142435677912,59.4018138651914,50.928217807352326,56.09950704823234,59.97561050117747,29.174768916556445,26.669482538433385,0.9264832643624459,16.222911037203744,13.59472710506293,15.26935675186036,15.37205905972803,59.11530461284093,64.28659385372094,65.15439548975132,399.99999999999983,389.6003799671077,375.856523481977,351.7695629519296
134,17,134,0,4.466666666666654,18.741739234139146,142.07030751411733,13.736430214275511,25.613647322999636,41.032804647081875,42.73094806323948,29.41205286153557,87.31011629404156,61.71406069951685,52.406751320285025,58.55791310315851,61.68367829818499,30.75580891436698,27.171215800804475,0.8172872298922584,16.30272948048264,13.736430214275456,15.428515174879182,14.6824933931523,58.930710786968916,63.89178765613957,62.48537031455772,399.99999999999994,391.3723833786306,377.65095552345167,357.0089817223965
135,17,135,0,4.499999999999988,18.814933399031645,140.92268753411162,12.094697267298772,25.71367910245364,39.48876983634541,42.89782991019544,30.97753968666123,87.50076732252758,61.78958182312313,52.404148288757256,58.44087729090165,62.06482203152541,29.277658825565936,27.16051216130677,1.0299632420719718,16.364971512922125,13.790076598187678,14.104719589667123,13.894967071286544,58.192923177069474,63.80050082835055,64.74900446311655,400.00000000000017,393.1837080736412,381.1077300495107,358.5297516309992
136,17,136,0,4.533333333333321,23.79620109100519,141.9044398378132,12.018896541377405,27.24872313947581,40.93488657904275,42.798073826250786,29.09466793183744,92.03681424083386,64.79065967052715,52.92101298991611,59.65096115264362,61.58183764501416,31.522027397287957,31.31581728645233,3.3274813339390903,18.71825415176454,13.70365047328766,15.391697550258417,15.493877873243264,57.68259191284881,61.65682313986321,64.34320500964442,399.99999999999994,391.1961582022911,377.49668445214036,353.32285232250695
137,17,137,0,4.566666666666654,32.47359186007296,142.6898613978702,12.085419480916912,29.10554434076758,41.161455546965044,44.56882487573819,29.25570291779317,102.77581703216735,73.67151177588595,57.46246949733154,62.182669032873946,63.52721071875578,33.599238512088846,39.787944569800175,8.329483422821,20.811788861255422,13.779498294155678,15.75745914957508,15.676783911983534,59.04540509914983,64.1661064134654,66.03993405453656,400.0,391.03382769616815,378.83501144377533,354.385221241797
138,17,138,0,4.599999999999987,38.96276884724061,144.62918904735966,11.978625245951244,27.1574217978126,42.48614223260787,47.70441446802828,27.31546826381129,105.24843051961831,78.09108251442626,58.65046799023139,58.87306877633284,61.03132857201308,32.64005004901912,45.192798726136175,15.85788643597266,19.961483536279275,15.340125128694984,15.340125128694927,15.432041453865338,55.73730118081562,62.695995320250574,65.17076720719972,399.99999999999994,391.09798686085475,377.3095825376307,354.8464288823273
139,17,139,0,4.63333333333332,37.32228107632192,146.2277040119155,13.663249165138502,25.477190211939316,40.814201731603454,46.03895854908938,25.64572914044904,102.03550432900876,76.56297709276892,57.92165178707455,56.90749666823899,61.57643721533077,33.60106393726551,42.747595009026895,15.001841757867965,20.818882439490267,13.663249165138508,13.663249165138504,14.504331699571367,56.40998660994262,62.22702729156464,65.19708335477496,400.00000000000017,391.25591337882645,375.63901408730925,354.9897169145106
140,17,140,0,4.666666666666654,37.20625297872354,145.9198851294078,11.946207873133694,27.08392653027506,40.68731789585293,45.89583190672371,28.91870729704184,105.08589568335783,78.00791416165326,59.419703584244985,58.17280100701305,61.24209965866089,30.788902099342522,45.320112903237714,17.648467246975088,19.710652278551038,13.620772640072877,15.298610635574741,15.298535466807266,56.3024471411652,61.96146653014091,68.6049406853253,400.0,391.4457156387297,375.91282481647005,355.2706618385606
141,17,141,0,4.699999999999987,35.615928768213784,149.86315855517938,11.992507023933749,25.496419664932088,42.535378533243296,45.91736593470952,27.60882451339126,100.42247834674949,74.9315792775897,57.21832319602038,56.61371989741849,59.88905115283592,30.715751831327225,42.13180466634344,14.186754565616297,17.93815141048367,15.357902478506873,15.636316126967758,15.453089033553738,57.88005436535616,60.850703643525435,62.19938942581187,399.9999999999999,391.27196782926944,377.487852323337,356.9498753090496
142,17,142,0,4.73333333333332,32.186635134676955,147.85719404076565,11.978625245951324,25.466906600113088,42.48614223260773,44.33709778646181,28.997181447651425,98.48732143848109,73.02050477101642,56.973476173541485,57.39956997906074,60.429570373864294,29.921253898685677,39.52256764971946,12.025314066876831,17.422502270120845,13.657734131905654,15.618216502885307,16.267314619601905,59.95613281217618,65.4480085277579,60.15607875672881,400.00000000000017,391.09798686085486,375.6211151605622,353.2740089213259
143,17,143,0,4.766666666666653,28.7206316282936,147.331182495659,13.620772640072845,27.083926530275104,42.269998456381224,45.740093989359735,27.5022358637446,96.66837160752705,69.59627356175915,55.31036666027774,53.75942921507681,58.71474637745257,28.829190157852963,40.42040685356517,11.283910205022266,14.645074946943964,13.620772640072834,15.575949419916784,14.630669955192843,60.145642224727794,63.40117036047468,64.99439763106012,400.0,389.76139461832736,374.34543666151654,352.20046608547597
144,17,144,0,4.7999999999999865,33.894349676483465,149.48138339886822,13.663249165138579,25.477190211939366,44.09523325639625,47.57298678644964,29.00889059484956,101.90876084775714,76.43157063581776,59.529141948132064,57.746430564723255,61.96359727816355,30.85240829673762,42.008731147747994,12.90069635520615,16.600301699269835,15.346319516363145,15.624523184668538,15.507672141696617,59.672908995181274,64.28303897055582,63.523654072486835,399.99999999999994,391.4063674945117,374.22570201997536,353.5426014939381
145,17,145,0,4.83333333333332,30.388404346516744,149.03481385733193,13.611063800063055,27.222127600125987,42.340961316244915,45.707490607281805,28.8980941416904,99.96347552515724,72.77098379220186,57.62304114380072,57.892038334868744,59.65012711934969,29.882705814903602,41.19019488230174,13.819730691123254,15.962101177129739,13.611063800062983,15.287705838397724,14.444188456102836,58.90077780137426,64.44404134588439,66.89369991008523,400.0000000000001,391.4434771406967,375.8875940163647,355.31835811657277
146,17,146,0,4.866666666666653,33.919932160203494,148.17420661376238,11.992507023933802,28.881781513105988,40.84500712133089,44.22618066462194,29.277440791944983,103.80275158181055,74.9315792775897,58.04697856174096,57.9054925886461,58.348815304343475,28.943313896116706,45.66695591593589,14.71925740097447,16.888708988429812,11.871976256071235,13.673561794018042,13.667545000968914,56.16993131868185,61.13137277521025,66.49085431745625,399.9999999999999,391.4079454677444,375.92253564928586,350.300288516626
147,17,147,0,4.899999999999986,32.33603433604964,151.8126060065678,13.721128598687663,28.98225380265545,40.98709639585453,44.380032172271854,31.05669758490951,105.86015394879358,76.88730856703278,60.78553571624286,58.24317490681835,61.78707179268281,29.044546216759954,45.83953580629202,15.023041146599894,16.87203082618157,15.411328671208759,17.356007375970997,16.332742169636845,62.55748415917515,65.17688620524905,60.43530241854858,400.0,389.8346258114269,375.96123484824454,351.78246849608945
148,17,148,0,4.933333333333319,16.97284835521759,140.42962357904088,13.616036986066602,23.704301216825282,38.88051232234939,42.35643178051473,30.58658326570551,84.59493767211484,60.89276856999227,52.52221922590263,56.45639667470368,60.66615660180253,27.981124391291928,25.995029978732873,0.62243628718943,14.23050900864655,15.570533992376633,15.293291632852753,14.525097175102587,58.66105650108511,64.27723735190989,63.30415356458258,400.0,389.76128842015754,372.79107931811785,352.0780134469727
149,17,149,0,4.966666666666653,16.994675275030932,138.8296191013797,13.633547078730256,23.734784720304187,38.93051228741093,40.620016026957735,30.485538042484652,84.61928397181565,60.900684209178905,52.44899376339015,55.23351698251929,60.202819958195846,27.24548872870912,26.817100541150694,0.17135527502341574,13.594185151850638,16.994675275030783,17.245224542369083,16.293030733468072,58.28935272043526,65.14356372136837,63.38556209747975,400.0000000000001,389.65754158496753,374.2688993709161,353.62415485075275
150,17,150,0,4.999999999999986,20.258936231011162,136.91445824361392,11.817712801423324,27.064621200359493,38.82962777610472,42.340961316244965,30.43526390302739,89.54065303667984,62.487863331648214,52.28856302592226,56.613903717404696,61.56401584210141,28.66739691632597,30.349473851902417,1.5619285830354102,15.306900113746451,13.505957487340764,15.564846936605775,15.427048466287715,59.97805758855782,65.07234773630398,69.54666557672428,399.99999999999994,389.91143141205396,372.654919334136,350.3829729433103
151,17,151,0,5.033333333333319,21.989526566645377,138.96077926598593,11.960725654120601,30.447036784585897,38.941301424519146,40.73676367617334,28.805241839015824,93.09410124239145,62.676941465217794,51.68522231393422,56.50917639656814,60.64399418168273,29.786002192771093,34.38024417623171,2.2205502920061235,17.84097303577289,13.532016348704914,15.59487829046229,16.309559041285922,58.959438787747104,62.941115173413266,64.63220233487043,400.0000000000001,389.66641762641586,375.97414348712437,352.1616260189239
152,17,152,0,5.066666666666652,23.79877960012477,149.8335992388007,13.599302628642588,27.198605257285198,42.531805382645885,45.92911545069808,25.724348972768688,90.15950474843784,62.98859481534688,51.105777272353976,52.15749677414783,55.682704733864284,28.230878108337265,36.15772694593181,7.410727230232737,14.461143149665645,17.083912493980105,15.393365364055498,15.4544337902488,54.611508945000196,59.18843640651045,63.718392892513,400.0,389.72888259053224,375.99212854938185,355.3834360578505
153,17,153,0,5.099999999999985,26.995462294480127,150.21001396110645,13.471445375171538,26.99546229447989,42.131931950170426,45.59069310926767,27.15256621418969,94.36023884214413,67.37827272135743,53.90360610964035,54.32303314939884,57.128855415368776,28.5933537104263,38.51497265091825,9.791451928153151,14.969206418963722,15.248640779944918,15.525073692548467,15.316318451867176,58.05448750311143,64.70746813376195,64.78210641431332,400.00000000000006,391.38258503522167,375.97311341573317,352.19924276137175
154,17,154,0,5.133333333333319,25.47294220526809,151.37777988089385,13.585569176142993,25.472942205267863,42.48885402367566,44.28353762457901,25.977405874656412,90.14846694901213,64.73224338298046,52.04084090271067,49.88959387979321,54.3371158148135,26.298390572294124,37.997306966586734,10.877091688908536,12.569083729405179,12.363054563842848,12.008060113411977,11.988972172663466,60.18657401195986,63.90895650105307,63.404376775758784,400.00000000000017,391.4148718658678,375.95009806503225,353.6327831904952
155,17,155,0,5.166666666666652,27.301607722771127,152.33419444977116,13.650803861385496,23.949770312774355,41.094361443354245,42.795052388719846,26.102143224537087,90.69377219223074,66.74426502457052,53.14133462163261,51.90320441410188,53.121681761195646,26.57066731081636,38.17568139886146,10.907337542531877,12.754706423609264,15.731774134728678,13.650803861385496,13.673477649038773,57.17999744143498,62.55505477095289,63.708829574779806,400.00000000000006,389.5863849231817,377.48931141161984,353.5482434690318
156,17,156,0,5.199999999999985,25.682804263304497,154.43888332719925,13.697495607095956,25.739813887866614,41.234922211358914,44.81222094506707,26.191424020474823,91.00398473295056,65.26554816215398,52.47297775550601,48.052322659367746,52.09633001188888,24.026161329683873,40.9158390960954,11.735550748492528,11.735550748492415,17.20726589652032,15.504512268774754,16.43373576098014,57.88481112432089,63.79223362947414,65.6239066452391,400.00000000000017,391.11387241674163,379.15180627068315,358.2564526714874
157,17,157,0,5.233333333333318,21.95519993840696,154.14042241787283,13.51089226978896,27.021784539577897,44.040120690820906,47.40860243365059,28.90865287533719,91.2610518121862,64.26556425934626,53.28493124667989,49.00319271189312,51.3035398253902,21.254047489832942,40.971308462665775,12.207304219944945,8.998416649856495,13.616036986066636,13.616036986066522,13.608776200857108,57.141395525189694,63.037243169026965,61.38262443884713,399.99999999999983,389.76128842015765,376.1576540744158,350.51099524358955
158,17,158,0,5.266666666666652,22.047955904132326,154.7916323261765,15.357902478506933,27.135945728162802,45.917365934709586,47.759698115094224,27.34712358803616,91.72504099790544,64.6484008335635,53.665583244346976,48.860139597266084,51.881526321478646,23.034476883163506,41.27789767507545,10.459753088107277,8.771613204102778,15.357902478506821,13.67356179401808,13.74970752113876,59.71794839665847,66.01969785001614,66.68524085818856,400.0000000000001,393.09820941743175,377.7468387125211,353.8094453169752
159,17,159,0,5.299999999999985,28.46085285786815,152.6800661272617,15.067510336518296,28.510050565906653,41.887665352882586,45.233523492462254,28.657136927659135,100.57555311758652,72.06704225449778,57.8206311885607,50.00912788014978,54.11840505479768,23.415126542333724,48.41969048240833,16.24327486959885,9.885525278634304,10.045006891012312,11.719174706180958,11.74633003696539,60.39862111416534,64.19776416242462,63.96986239696232,400.0,388.03873032460933,369.4149065960666,347.4614202419292
160,17,160,0,5.333333333333318,30.307847572006512,151.53923786003205,15.223704310634874,28.629410971662526,40.383254919163235,45.42289852374591,32.118839567289285,106.03416073720422,77.40719751527214,62.31745787335535,53.369630614477614,59.71628939025334,24.425020137076217,49.35969620614674,18.78995643616031,9.077645279291232,13.449415196285038,13.554081484541719,14.385759891758255,61.14909568963304,65.48597918641309,67.77040742270849,400.00000000000006,389.8047106158424,371.23568468109244,345.82425876065906
161,17,161,0,5.366666666666651,10.29084566230391,147.5366139904109,17.002425859494284,28.810394280984582,42.32893770345035,44.019442421136866,39.05834231733006,94.8769090867504,66.0670818550546,61.038418972125896,55.94553778839418,59.086941135368875,18.458124514496603,37.29702519226282,4.988167738832431,2.9986122857485498,15.226241448586391,15.31994228035795,14.550409138941745,58.76328139658972,63.31355654766202,64.84270156897398,399.9999999999999,389.7251018310563,372.72340738482046,348.4665762441308
162,17,162,0,5.399999999999984,0.0,144.82419188178977,13.532107559176891,20.21123091216074,38.64085234494704,38.64085234494727,42.09534619092177,75.82811588576088,55.6173039789237,55.6173039789237,53.945745662617355,55.31338428504989,12.536687372298502,21.19839864770438,0.683819311216439,0.6838193112163253,16.78451369535122,15.199023586774853,16.031763851848268,60.480019080906004,64.43097510126682,65.99537600344932,399.9999999999998,388.13983783985714,373.11864463971676,349.2227723179384
163,17,163,0,5.433333333333318,2.3756973834603676,143.14439255091187,13.438973839134897,20.22833431573237,38.67355149597274,38.7828504934632,42.130968647442174,77.56570098692652,57.33754370965635,56.423835436185186,53.91461392505141,56.95259858987231,13.305603721874263,22.131141450689825,0.05768325312953948,1.4228535771945872,15.11884556902685,15.211885496839976,15.209151075148156,58.663868432714594,62.70169615178048,64.38534385587494,399.99999999999994,386.4617844677509,369.4228528477157,347.52238565220716
164,17,164,0,5.466666666666651,1.698946554997542,146.59260693744747,15.38461538461552,22.151552935302853,39.1126869477323,39.22322702763675,39.11268694773242,78.31756647182675,56.16810839466653,55.27621735968944,53.6289602992166,56.579699033628685,16.05717534599944,23.161866667690674,2.7358791178285173,2.1629201402728313,15.384615384615406,15.38461538461535,15.469892394004773,60.70500367202999,63.88492599746428,68.48672513487409,400.00000000000017,389.68145714545835,374.2968584686346,350.106678173797
165,17,165,0,5.499999999999984,1.6839306718964688,146.9754138081173,20.277210449770482,28.676306025158816,42.131931950170504,43.91153954568768,35.402614994193726,86.02891807547643,57.35261205031762,56.4741475672555,55.21705018464547,57.569346044529425,21.032572496169337,29.575120618905885,1.023772489625685,2.166588291998437,16.92329380714987,15.248640779944918,15.247067496656996,59.61689102378068,64.19767769829173,66.01781422023426,399.99999999999994,387.7321220811804,372.31246375729853,349.88902601717695
166,17,166,0,5.533333333333317,31.77164238278231,149.425089568386,16.721917043569523,28.476398611391765,40.27170912377275,43.765445169018435,28.866504441026947,105.5602056081701,77.08422879717672,61.233026959531685,56.37036179135271,57.61127931201554,28.209229684836487,48.50640773598923,18.089499206252412,12.933438810319672,15.049725339212674,15.142339907750747,15.973205760160681,60.88191463779384,65.07602346732108,67.22127457383047,399.99999999999994,386.522328799525,372.883752534994,349.1158253211802
167,17,167,0,5.56666666666665,37.112305974971505,147.54550285011692,15.182306989761091,27.04343294501108,43.98956988630006,47.504182961544785,29.120806012523488,108.17373178004433,81.13029883503324,62.61188221212808,58.71076989822927,57.95383765821896,29.297159392190792,49.773146910416244,20.60214289156056,15.400659806361887,15.182306989761013,17.20330657825501,17.118313735615914,57.730639690010946,63.805506129067396,64.65560161973039,400.0,389.7631847047362,371.13072750231606,350.510775109993
168,17,168,0,5.599999999999984,38.748608011932696,147.35300172378024,13.582663703477756,26.95555339960536,42.15173316162775,47.29240264014384,28.837796968977713,107.94060562120195,81.0244489541214,61.6852315295921,58.02877005476739,58.11594397072338,29.23716281260488,49.69397509029943,20.442283291701983,15.240906306322358,15.255807352816008,16.931247435282266,16.931111676804107,60.27591988830193,63.26889100279436,69.40155333211406,400.0000000000001,389.4186910114921,372.4874435762096,348.3751092921036
169,17,169,0,5.633333333333317,37.37902103506447,150.14097324620374,15.36965007149253,28.90387381473324,42.56791476761526,47.796230544920526,27.629943102576835,108.83876536196442,79.93515557091833,61.3897219508591,58.72689572762522,58.813727017513315,31.235144556955333,49.981055251677844,18.847213866258585,17.158827673990686,16.97293912631295,17.057592714430122,17.057524502454612,60.598592420768,63.52191251366605,71.60890862191877,400.00000000000006,389.4910485717701,372.2456160972713,347.90799242318894
170,17,170,0,5.66666666666665,37.449211371828234,150.42290801020658,15.304329824785372,28.95814951753786,42.81701983889176,46.19553361483822,27.681826617913412,109.1624098361991,80.21153266988723,61.50478835960064,60.48408300512631,60.65906106589341,32.98336445457937,48.55641186284254,17.351991026061,18.86846755270801,17.00481091642826,15.398511204946184,16.243796641203176,58.90928045822329,62.58381973433029,58.43818998500951,399.99999999999983,389.67740283032174,370.8959378558806,350.09267498974015
171,17,171,0,5.699999999999983,35.410585734073045,150.67849580701153,13.489746946313536,28.863409170918676,42.2901415286665,45.80807025558077,29.448537783641243,106.71244634133019,77.85874803774539,60.23342916821002,57.00811067260986,58.25943724684271,28.445854100294127,49.07819226613378,18.241237386394687,16.233294744021237,16.862183682891896,15.175965314602706,16.107192065997708,59.54956464508268,63.94375796390045,67.78513948542341,399.99999999999994,389.9359468553595,374.49615474333433,350.36436616985424
172,17,172,0,5.7333333333333165,37.253036779644674,149.62663280644784,13.651981110197497,27.09311765792358,45.844895559320165,47.684320027078826,25.90281292909065,103.51434759174624,76.4998357548696,57.95866655283294,55.769719587435134,56.77702261575973,30.499973424944983,47.188272634592636,16.233075725693197,16.397731028400017,15.333663436585566,15.333663436585505,16.174962089443625,56.37022716201329,61.06774609218098,64.90077729942824,400.0,391.2411765776351,375.9093798593947,350.15299761128654
173,17,173,0,5.76666666666665,35.559716926024564,151.17088691118815,13.546558828961846,28.83619802839264,44.05886800352226,46.00099030975681,27.565250108897285,105.20409692081664,76.36853766856733,58.63665897574367,55.6050642847282,58.46231806699518,29.57499804797385,48.11324801156377,17.322706405371264,15.637410954135703,15.333663436585566,15.333663436585505,15.332314363825958,59.905473367191064,62.75304154341643,64.90077729942824,400.0,389.72116025360117,374.38838614447207,350.30445761488147
174,17,174,0,5.799999999999983,36.90936187379649,149.9171495472889,13.526035852353182,28.57017199403069,43.74901830948198,45.57661185956072,27.310949102729893,106.02734492292402,77.46534441178167,59.09577480407518,56.59171654966519,58.094151502311206,30.132167661399876,48.66219874403373,17.77881360631079,16.27637865366478,16.860658913027066,16.860658913027066,17.778813606310734,61.26595862456389,63.43614244505261,64.10476077167057,400.0,388.1433893586083,370.9344960865966,345.25139000078707
175,17,175,0,5.833333333333316,37.45630520159513,150.4430593896604,13.726472128827034,27.29410235974931,46.09504481909621,47.94450596952986,27.71565784406911,105.90137992514971,78.61326870823824,59.9694048426519,56.07402291068365,57.08682221299546,28.971903119014314,49.30579680388871,18.016141435353347,14.79271288664961,17.11050947739883,13.726472128827028,14.651505291615763,56.67780711013876,59.540912830135426,65.49876509853272,400.0,391.5220177344483,376.1076484741516,353.3538732291921
176,17,176,0,5.866666666666649,38.81476489244929,149.12107514238156,13.500787788677945,27.05426162858091,42.324754393388325,45.84556241052792,27.832587040884057,106.6530191815214,79.60386079143011,60.28634233090827,56.84223539985794,58.69452820311187,30.215526353081373,48.85422268582488,19.5648427343707,16.381214478777792,13.500787788677968,15.281854136842714,14.442095450371255,60.14163195565425,61.762388158501494,63.008698761484844,399.99999999999994,389.6123622381979,372.65368979376814,350.24885624788965
177,17,177,0,5.899999999999983,38.76614793347008,150.773177035949,13.588812023839466,28.702770046857566,42.2717410399948,45.788139112119644,27.797725674437643,108.34402586134976,79.66478659384524,60.38687224659225,58.35968221636449,58.88597193575049,31.09982397335,49.714886270152874,18.761253885521228,17.084923668217698,15.26271303737312,17.188638676485937,16.27599687730941,61.868280345604774,63.40816508010471,67.94406011919722,399.99999999999983,389.9448156033403,374.50392725195695,350.5200361368598
178,17,178,0,5.933333333333316,45.25488365839013,146.59947201049633,13.513205052711317,25.19741031871709,42.036544740366544,47.050560056789124,28.690327038758603,112.49910988630984,87.30248092265062,64.70684479802867,61.3720264424054,61.20149595831117,32.59974420937294,51.11177564939442,23.71321120489972,18.710983671465215,15.084961219463356,15.177792626234229,15.26247832644566,58.28352989714085,60.14041739061287,66.13722897946467,400.0,386.4871141857599,369.4513531162885,343.9083626723342
179,17,179,0,5.966666666666649,43.76087481193617,150.56080247127153,11.90138897314453,26.982315055959,43.890153896576415,47.39682398128321,28.810212227817715,111.28912400505727,84.30687234865536,62.46409400202185,59.693043621155766,60.0394249187641,31.058856352206817,51.32216226228957,22.110672830660178,18.5891296383096,15.2412144386115,15.241214438611557,15.327372419165272,58.480709079526946,63.2723170297744,66.17857205647034,399.99999999999983,389.973486423519,372.86122854315147,348.87516538130063
180,17,180,0,5.999999999999982,35.45692829222261,149.35645170505447,13.612518802611449,27.06751436825559,42.34548750225958,47.396352748893705,27.225037605222674,103.21512984515992,76.14778738338559,58.45629960198835,57.76176930968734,58.78427224001928,31.051291818283858,44.84543512370362,17.1028084479085,16.91952962077346,13.923110524646225,13.923110524646225,13.79414330541971,59.27623119706578,61.54310090110306,61.62173567297225,400.00000000000006,389.7373908839216,374.44991577103497,350.16814287578745
181,17,181,0,6.033333333333316,32.06265890468476,149.65640115993833,13.605127378176265,25.536635352611302,45.84311446336596,47.729944282892085,27.210254756352416,98.23849902691836,72.73924496067092,56.743293981036345,60.841473108007904,58.976095022627874,32.70064310280202,38.296777358942904,10.316106078239386,20.000998359910227,11.932486070723018,11.93248607072308,11.927114424703973,59.39062348604568,62.85758881644921,58.26182194249954,400.0000000000001,389.7413727899398,374.24659423316984,348.30188972489447
182,17,182,0,6.066666666666649,33.645238173532285,147.32043082087503,13.562829107895562,25.4572420860746,42.19091402639562,45.70058845885487,25.457242086074487,97.93307604422202,72.51309902628634,55.728656933282195,59.023667497460906,58.92815994487603,33.5231509572958,38.919327678341915,10.983368547262103,19.340279398439975,10.232799704246084,10.639558504720695,10.410323231752841,57.73431553756495,60.98157232545111,58.39654254241491,400.0,389.5771362435821,374.3439113859371,350.3711781845535
183,17,183,0,6.099999999999982,27.19573959729401,146.68915362080688,13.67700452957936,25.502839164985453,37.47522279222375,40.85529109566329,28.889053381093646,95.24176100426091,69.73931298382213,56.121217171993976,58.652345162643996,58.47778461156463,29.704387108660512,36.62862230147243,9.048055230943532,15.797729872676427,12.35015042188866,8.650097176382198,9.455363183461941,58.94327941444283,62.95817208926661,63.33819741254419,400.0000000000001,391.37415908007114,377.69720575652906,355.3956888492644
184,17,184,0,6.133333333333315,28.823545532801198,148.4265430272576,13.645991012937042,25.445009782450583,40.762649008165845,44.2989761032449,27.291982025873963,95.16136227581025,69.72512857042959,55.32584093511514,60.334706080388514,56.71005722882319,31.237623370380902,36.63178583452168,9.147243755328532,18.908109166630652,10.704796070350342,10.29554318575295,10.360216796206771,56.9383815659296,57.76605728794061,57.94449849639064,400.0,390.09031849063524,376.2587349566184,350.65356551453635
185,17,185,0,6.166666666666648,28.74705391209578,148.08592789889605,15.31268498593101,27.266606840417715,42.410143777668615,45.938054957793035,27.266606840417715,98.44194968201812,71.20308159790656,56.87036039276336,61.700472130676644,59.931834200774006,33.556059854835894,37.61239249841685,8.103053124499297,19.53191453022805,9.106330766836388,8.622458168004707,7.74259702465497,58.518846289384555,62.81548299952817,58.38248141876293,399.99999999999994,389.7276253682743,374.41498612512663,348.4697628324954
186,17,186,0,6.1999999999999815,34.071871625436515,145.80412454849403,15.426695997275113,27.469621101120836,42.72590965333211,44.58731093879872,25.78004886815535,102.56991616354067,75.13214671725301,58.13613049415608,60.43616942613801,59.04074831677667,33.96647452062973,42.800933681966285,12.958169129346288,18.039426686193565,10.362555203016802,8.686656914136485,9.498487137515667,59.675905511382496,62.59185445025497,63.85635975892714,400.0,391.76726378236583,374.43421251668883,351.82404124067625
187,17,187,0,6.233333333333315,34.17898440953083,146.26249343073573,15.47519337293483,25.691140127013263,41.15694733744339,44.72748143082371,27.819677767982004,102.89236834360825,77.20593035058651,60.20238105187457,62.043084270797294,61.18914978779185,33.87273449254417,41.23554736823439,13.103150233670476,19.70691023557822,10.39513228449707,12.084095825024265,11.324120060742644,58.3806541547965,62.40363438584393,60.68574692239599,399.99999999999994,392.99887450226083,379.4483057040205,353.36012085605836
188,17,188,0,6.266666666666648,30.342707306460774,145.53797826047784,13.569671231725145,27.13934246345041,42.212198336325216,45.56848968448079,27.139342463450525,97.85229083434761,70.7707466653377,55.67003824152209,57.715415308851675,58.46006795274934,30.951438789540703,39.684183431613974,10.342935099332635,16.851392623269703,15.241214438611491,13.569671231725208,14.404676793320107,55.810265038100226,61.10020005384126,57.84124017650227,399.99999999999983,388.302764382634,371.39199147456674,347.3941846760567
189,17,189,0,6.299999999999981,25.303844982935217,145.867637668491,15.275737453080064,25.360013409391136,43.98956988630027,47.50418296154502,23.856693836702124,89.6611872638113,64.30253084866719,51.69448775482101,54.67994095545464,55.79124530143201,31.389638857135765,34.36567422432904,6.771422243708571,15.153294005740008,15.275737453080236,15.55266158404119,14.720073667477777,61.04639636122255,62.45907137729512,64.89722353116679,400.0000000000002,390.0988918184139,374.82350967616503,352.6637502845796
190,17,190,0,6.333333333333314,23.696076228948993,148.04001491527424,15.23319186146735,23.75644849553187,44.137004898751506,47.66339751682523,25.891447518641467,88.2740097975029,64.51804658252938,52.70822317399825,54.62765008604924,56.02446075967066,29.52781747128165,32.89156562408414,6.684736795187973,15.094107177194132,17.01018705782407,17.01018705782407,16.262867128591665,57.95338978514775,60.91804917405841,61.77325911451804,399.9999999999999,389.90300196333163,372.89354665263835,348.7940600547173
191,17,191,0,6.366666666666648,25.38865310244534,149.72370853955033,13.540614987970889,23.936651698576103,44.29897610324514,47.51289699106394,27.291982025874002,89.96169482264429,66.09723988836025,53.37292572057595,56.5438299207741,57.294958651855495,29.63155304323061,32.997370395165035,6.907531938362581,17.004983994165855,13.645991012936946,15.604787732585516,14.666026173330067,58.86377182436735,64.89181759026127,61.77325911451792,399.99999999999983,391.23430232995423,375.9083299365242,353.3717877983713
192,17,192,0,6.399999999999981,25.507216374642528,150.25942048076536,15.398511204946015,23.867389483934918,42.64784881056586,47.885982320785544,25.56383623648573,90.26976286371861,66.40590947444392,53.60662045146148,54.643424715207516,58.02263861186145,30.796926649048828,33.79213896653732,7.641631425387345,14.592060008277485,15.398511204946129,15.398511204946129,16.33926719347909,61.47865282434822,66.20187224807984,57.035869730495925,399.99999999999994,393.0613397427998,377.4991424422573,353.18464195181815
193,17,193,0,6.433333333333314,32.108750771596455,143.9314737467918,13.60585386967537,27.054261628581067,40.81756160902623,44.16867890837576,27.211707739350857,99.69694198960681,72.64518491069059,56.64797406616492,56.432400380500894,60.98340041118638,31.49771073869215,40.79133185398689,11.664931657599254,18.94653170669619,15.281854136842703,17.210195095836042,16.31174221524668,62.75589515997984,67.11527413674173,58.5817913066414,399.99999999999994,391.4428222487515,376.016481615397,351.93206244287234
194,17,194,0,6.466666666666647,27.043432945010938,142.3427185813375,13.600408018360966,27.043432945011237,38.94564167888808,42.30781357353567,28.875470503501326,96.28769696553928,69.24608298591929,55.78864822503397,56.26482309892458,58.855214412890064,28.68477440317554,38.5511177901908,10.932975104530442,14.666186115833398,13.600408018360966,15.552661584041173,15.37092492919163,59.3123422918253,62.32176749481414,62.77983153581763,400.00000000000017,389.76318470473603,374.489306918099,354.02079708198335
195,17,195,0,6.4999999999999805,13.615172352020847,139.92860494644822,15.317068896023535,23.887256304526613,39.180600794764175,42.85266001864325,34.207697174483705,86.94676140796628,63.06209943562055,56.19144788836991,55.54535075336662,60.98016783015862,24.057616850414547,28.561293938525523,0.9121371317693274,8.247239899747228,13.72112859868759,15.690710849145233,15.506331240077714,61.01817354398236,64.89475635400169,60.17112935711003,399.9999999999999,394.608854080904,379.20225727031124,356.73716484149156
196,17,196,0,6.533333333333314,1.688244685917666,137.12247182184575,16.96664911149005,23.69564334529064,38.97615519402827,40.658316115240304,38.866311419407666,81.1938636010789,57.49954207342569,56.593519016916616,55.26107001450748,59.784758086743636,18.73489682746856,23.59051169745794,2.0721715802591234,2.963632122796298,15.28770583839768,15.56484693660585,15.467788775298118,62.250500012910095,66.58451562928735,58.28724373718976,400.0000000000001,391.4434771406968,376.16046520603106,353.87557776956874
197,17,197,0,6.566666666666647,3.407588951661693,140.21928350372855,17.12292256605287,23.91389504716296,39.33514997123584,41.032804647081946,37.52218108929392,81.9417098888669,58.029148834108895,56.27372414930278,57.63118380687217,60.355464912752495,21.5367996016422,22.87553567772784,4.676214475557572,5.668564294194425,15.428515174879223,17.375362558826073,16.453347228813755,62.218461270382136,67.27382827098484,60.502699044044114,399.99999999999983,394.90559975247135,381.0485969986901,360.4079107730497
198,17,198,0,6.59999999999998,1.6869229988623442,144.0221315930895,18.632673530630647,27.04343294501112,40.62648567588166,42.30781357353571,38.9456416788881,86.29728261715644,59.258798147177465,58.41636283682135,59.07675453555805,59.274872045178995,20.23157139915429,27.109079233140505,2.0047605140221094,3.0330847306262285,15.182306989761011,15.552661584041191,16.273938290296655,57.44464362296594,61.06736379889293,61.86662169136086,399.99999999999994,391.44247609867784,375.86597802552313,351.91655909040077
199,17,199,0,6.633333333333313,28.60022303807618,143.48521306497057,15.234472626259455,26.917856977012864,40.411819559282414,43.870739486860735,32.141558466375585,102.74836374146233,75.87452283864134,61.60714098121127,58.8383876181947,60.86500090452637,27.71132017108539,42.782472497608865,13.886582588737951,12.373758586264898,15.141294549569793,15.234472626259398,14.4764888035387,55.888856544190844,60.62713549533271,64.48094542312886,400.0,389.8046157013493,373.03408862385334,349.16290687679304
200,17,200,0,6.666666666666647,33.68786879823519,148.8378691104584,13.58001406211184,27.00288103013038,42.24437255780673,45.758493967659355,30.505662645106195,104.64950867162551,77.6467010141948,60.84308703016859,58.74734894552216,59.58564417938078,28.66398134864221,45.429886025814085,16.337230978039656,14.822583907772469,15.15954095920591,15.2528313225531,15.332229305629596,55.956206860061116,59.18554872685729,66.22901349564165,399.99999999999994,389.91434318417527,374.7879494087606,350.9364104110812
201,17,201,0,6.69999999999998,33.64732122126604,146.83885276763687,13.563668811282175,26.970379674716117,40.51674008088803,43.870739486860735,28.64966166276865,102.74836374146233,75.78120768485029,58.933533781872256,58.676639139942836,61.026749382778235,31.222213610786866,42.782472497608865,13.886582588737951,17.397476028439314,13.458928488506443,13.873145941436674,13.639202563176354,56.050605022442596,59.1143114928596,62.81333978864852,399.9999999999998,389.9389203169172,374.7109269690744,352.64335012854195
202,17,202,0,6.733333333333313,30.202660216453058,146.36968814110955,13.507040269063458,25.185915149177813,41.917047322547475,43.68757842197793,28.530048850218332,97.22759823802686,72.05919074842788,56.9565659367388,58.738226142306985,58.511983576520606,30.109114796746667,38.451809410121996,11.462956666513492,16.468573434538598,13.507040269063515,15.170868450405566,15.243092869861982,56.97541948388755,61.02893212089481,67.34792111661581,399.99999999999994,388.1771749665166,372.89067027467553,349.2596201337084
203,17,203,0,6.766666666666646,23.767678622558766,144.6628274490958,13.581530641462,30.60556570442322,44.27037361207661,45.86909386920275,27.636412591599104,95.31293326367101,64.71300065516536,52.87306379813867,56.63478375215641,59.40857725360388,30.511728515921845,37.27522499890358,4.7116492353354715,16.699756765563734,13.581530641462113,13.687225080985232,14.52441871134647,58.91461402731886,63.588266091401465,65.06832522384975,399.99999999999994,391.6629457806761,376.17177710988454,353.91876660192526
204,17,204,0,6.799999999999979,21.929998985210357,138.69749175689213,11.808460992036448,26.990767981797468,42.206799946937174,43.989569886299975,30.55147490616042,91.15629915669497,64.19179797702617,53.21432724199144,55.723071590662016,59.10022744464152,26.86286256422568,33.57857820528204,2.90435403442234,14.82088969060726,15.182306989761102,15.275737453080266,16.113857931845132,58.00023953791674,60.83705045525949,59.64173459175529,400.00000000000017,390.0988918184139,374.6526477842831,352.3408350283247
205,17,205,0,6.833333333333313,16.947174838241892,139.33834822424336,15.346319516363048,28.8599988131326,39.01532641781995,42.50329826186464,28.8599988131326,89.96380267775392,61.10390785353399,52.62872359170683,56.53557658626221,58.84934389371756,28.84623011999497,32.22205455218375,1.5551550755026256,13.52226303455393,13.557739870593416,13.663249165138502,13.655020175145523,58.96313572851034,61.78896629253347,59.70121926162312,400.00000000000006,389.8771146113318,374.2257020199754,351.72635532898425
206,17,206,0,6.866666666666646,17.018965440026147,139.81471135738153,15.317068896023596,28.982253802655464,40.88095785844075,44.38003217227173,29.379289478362814,90.457042104685,61.48064459378178,53.00525280923034,54.804636617127585,59.676372565104884,27.952661760447313,33.197674136658634,2.282728926507957,12.447333203034304,12.034225871422,13.721128598687622,13.796871058957322,59.86779637445579,61.389615658794355,59.9541219724854,400.00000000000017,393.06441958477893,377.5065876920629,354.9137843926591
207,17,207,0,6.899999999999979,18.668720510329756,137.73132704790564,13.577251280239867,28.901532229809217,40.872938852759226,42.56446621991865,30.73680986496027,91.78776688268228,62.88645844206312,53.53714226736258,56.22613381914118,61.14786203846177,27.952892322551293,33.02023380279854,0.4708162103294171,14.148755186705557,15.368404932480138,15.368404932480196,15.449566984316903,56.49794523953756,61.0410789804489,59.78713733915823,400.0000000000001,389.59629189962544,376.05325034302933,353.6973310793248
208,17,208,0,6.933333333333312,31.942361091177002,141.70835447607368,13.554081484541568,30.307847572006548,40.48810127887809,44.00061023167259,26.951315965195324,102.67573721622489,72.36875871007625,56.36645436052527,58.29819474014437,61.12372544466177,32.781922561594456,42.81543975722764,10.46599638509997,18.82726071479442,15.130592095820612,13.554081484541673,14.387141036267053,56.914261333850106,60.028111498012095,62.76894088591871,400.0,388.27907875127295,371.5400947973744,347.4997124715569
209,17,209,0,6.9666666666666455,38.58687635058763,141.43004690397558,13.513205052711315,28.543070324584207,40.36599716479591,43.867913084567384,28.690327038758614,109.06291857405401,80.5229340019737,61.283059166712746,59.746044002456074,60.97951071734542,31.675039780011844,48.51956960522034,17.92381320073673,17.923813200736845,15.08496121946339,15.177792626234178,15.177422468365876,59.96768255278761,63.292260807763114,62.57964216168433,399.9999999999999,388.35072693885354,372.78212973564246,349.0892304033866
210,17,210,0,6.999999999999979,41.88171715545026,146.36326940327498,13.506447945943078,28.528797724344532,42.015524899413506,45.35617874512362,28.67598080466701,112.44285613349089,83.91407303960258,63.00709799306662,62.96424573870729,64.5450177884087,35.08171223554109,48.58493372033945,17.855105983072576,21.188059099912834,8.376343431090023,10.190261592708909,9.337030088748122,56.650680263092795,60.050292442269836,62.54835000546009,400.00000000000006,388.15653708417545,372.787750460671,347.0678036641994
211,17,211,0,7.033333333333312,41.92291760388936,146.67030950390586,15.185126600704923,28.556862458541328,42.05685697901369,47.22240314418677,27.039469382659206,112.55346993853833,83.99662212484569,63.068233086679584,61.31394114947591,61.31394114947591,34.28058998601091,51.13329613685187,20.36129002524808,20.36129002524808,10.2002860944688,10.200286094468742,10.18064501262404,59.76096140178748,61.88911883380496,60.94848287500701,400.00000000000017,388.14735748198814,371.11041862219486,347.2351538946618
212,17,212,0,7.066666666666645,44.034602906547605,147.96819209908864,13.654550710637094,28.841625629451595,42.47623932429955,47.69329525556175,28.99042262197367,115.36650251780672,86.52487688835512,64.54124159524304,63.69881660853548,65.2113523801238,35.46800654262461,50.803970505184566,19.74912213156142,21.43397210497608,8.635896134376754,8.635896134376754,8.596564068900648,58.893164979818266,62.79895355455261,68.08342803634639,399.99999999999994,393.0591788863965,377.50288205406486,353.3378208355895
213,17,213,0,7.099999999999978,28.70015966059915,150.71780204291113,13.611063800062995,25.379882722612386,42.34096131624492,45.863117515192904,28.898094141690347,96.46660271960559,71.08693003587177,56.7815340160231,57.281936627072355,59.8028327997157,29.651215094333338,37.893695838594795,10.437643141788158,15.63994198495891,8.60839259721312,8.608392597213177,8.643746988970634,61.011352313192845,64.7974173515077,59.950517268210824,400.0,391.59271286746366,376.3081878177503,352.32578562439494
214,17,214,0,7.133333333333312,22.027718916483504,149.1411211368284,15.298610635574658,27.083926530275164,42.3711633361106,45.7400939893595,28.918707297041927,93.0578155396953,65.97508937256295,55.05820976139614,55.51943036672719,58.12340503432563,27.908651003835075,36.15296932412798,7.124897476103797,12.169497846912464,8.614533006786987,8.61453300678702,8.571016249069032,59.5455019007631,64.34988320629498,56.992301645004936,400.00000000000006,393.2643730588857,379.52483852287986,355.68818349631607
215,17,215,0,7.166666666666645,13.726472128826915,145.20745127578493,15.4173304296393,25.595078969744172,40.896878460661725,42.699970696815654,34.22101895479758,88.68029949133205,63.08665821929237,56.325960931603504,55.73893143957753,58.60671485963883,22.95189079478473,31.4205129748309,3.935984626862364,6.976989864242682,12.394818996092779,12.394818996092763,11.355652468698395,62.0711512060214,65.9975123985883,62.4400721805332,400.00000000000017,393.0663435411912,379.65546010053805,355.6067321902902
216,17,216,0,7.199999999999978,13.715543209488207,143.39644196316272,17.0968862116266,27.272370989859308,39.16465174925147,42.564104519873695,32.50145223239157,90.30812568835216,63.036429071368175,56.28917643940224,56.15045067100391,57.95866930736793,24.55446100649715,33.18416053030796,4.137854816017921,7.199389015152519,12.029327161033626,10.348018498288246,10.323110627707194,61.53683740260658,68.46355852814867,60.41070133103848,399.99999999999994,391.5356584486853,379.5171696824107,357.1758224556574
217,17,217,0,7.233333333333311,5.082100284422697,139.41596647650167,15.340125128695082,25.46690660011307,39.10979868608552,42.48614223260773,38.999578273350046,84.8539974453054,59.387893001896074,56.80303865133385,55.714132259451276,57.891945043216424,17.867533578107555,27.980159895764473,0.6533438351295899,3.853781752140776,12.33274951298027,11.97862524595121,12.053720320578066,62.152883098408836,67.30388376957507,62.12739129289984,399.99999999999994,391.5709807692511,378.08837547871155,355.67037680793004
218,17,218,0,7.266666666666644,13.60384873314265,150.11501891573002,15.398511204946143,27.260785706944134,40.9530077889299,44.343121690558085,37.44921137182817,93.66548697982351,66.40590947444389,59.55701579347158,55.41292723841991,58.62554634761136,19.62739189491208,36.545918564618205,7.423241196090203,5.389216079619928,12.379689211803422,10.343622667725597,10.40774533894853,62.0472708426081,66.2103689781876,57.035869730495826,399.99999999999994,393.06133974279993,379.3559510709625,358.71687925862545
219,17,219,0,7.299999999999978,25.66094649961011,149.13036569474207,15.457006082671144,25.660946499610134,41.002124331035134,44.674915258114815,31.14874607628336,97.53490031620409,71.87416618150063,59.19152921206171,55.751815875606894,57.53791524004271,25.554960137313856,40.83494206273542,13.24853924169497,9.499693322933922,12.069893937329102,12.069893937329224,10.363301806836944,62.76863480731936,68.02879557291095,62.60075827663987,400.00000000000006,391.332691515651,379.4518198374575,356.8486136940781
220,17,220,0,7.333333333333311,27.1567026021006,149.9777921382953,15.369650071492531,27.20969134049105,42.56791476761521,46.10895021447737,27.36804199650315,96.98367714939114,69.77509009449822,56.23733308625856,53.61758154497318,55.48051597433164,27.187199328449992,42.38175826790496,11.4104733798207,11.235823277068107,12.001680352882389,13.996244158993298,12.924107603674315,64.03837100919714,69.21965739085033,65.58234741454355,400.0,391.3725696784625,379.3746156870907,357.06562259684904
221,17,221,0,7.366666666666644,25.47202399669568,151.74334606401985,15.377265835863854,27.223173924473286,42.58900745398997,46.13179750759122,27.381603044294188,95.33783831898793,68.11616960717689,55.41626821535749,53.029643218687625,55.930459779680746,27.101776130882513,40.79091381503338,13.073077979725895,12.704412329833758,14.003179391552495,12.007627265740037,12.093203489223242,61.489549710948154,65.0888906612102,67.2855834050829,400.00000000000006,391.5664974034406,376.60329812161524,354.06825994789773
222,17,222,0,7.399999999999977,25.33292300585429,149.57631740698787,15.293291632852743,27.232073972133087,40.84811095819969,44.20173635574208,29.15427031272093,96.79696289192053,69.5720764122712,56.97683651020145,56.1375705059595,55.76456339296317,26.856512135741355,40.84427887310687,11.376716946390616,12.682241841877726,13.616036986066543,12.295097553286707,12.961997176625232,61.919180757403865,60.80015941841458,75.52818387981102,399.99999999999994,389.9039623149076,376.6009749755549,354.4276216123397
223,17,223,0,7.4333333333333105,23.41620913403672,149.99286026171836,15.145913727419455,26.969644789523652,40.28121385204009,45.43774118225859,28.873317369674172,94.20091946945979,67.23713980434961,55.59828418747156,55.1207997818766,53.84114157488216,25.660011956670473,39.71715285738469,10.265914720290652,11.736566689522988,15.145913727419567,15.145913727419453,14.314982479735477,57.852010581879426,62.03477397489098,62.983482188209116,400.00000000000006,386.7437803836197,371.60412585556065,347.7210111013997
224,17,224,0,7.466666666666644,31.911372331224797,145.61769603710175,15.208935091881093,27.081864088027036,43.79719900106067,47.296442314102606,27.081864088027153,101.12205475407866,74.07159270774689,58.13191672495327,58.49878481673443,57.36482889668366,30.85027135432108,43.12367660663483,13.440712817071699,14.708075315951987,13.540932044013577,15.484648205313292,14.574668737122522,57.16471902843938,58.83230126380806,67.93342796220979,399.99999999999994,388.12412770264183,372.91971176721376,347.0650670837459
225,17,225,0,7.499999999999977,30.340610008544456,147.61183257603096,15.263661608522153,27.17931312549923,42.27436821079101,45.79098482556611,28.852643736910615,101.48592361003926,74.33812552062625,59.17788494589945,55.16128642015963,55.897662816545335,26.676908541788293,45.88963815657712,16.099865757340353,12.351040466649806,15.540366824175662,15.540366824175685,14.62711296456905,58.84316840208783,60.918410973719915,66.27603946350487,399.9999999999999,387.8504318985398,374.2615938048742,350.20123692893605
226,17,226,0,7.53333333333331,33.51066437142457,148.5943874135323,13.50858067395738,27.017161347914872,42.0221593370798,43.852900965351424,28.924187919933612,102.70075586613005,75.69628133071848,59.02446146913928,56.495792319390375,55.76380914446315,27.249737284794264,46.547475532878025,18.798658810633356,13.009337336208318,15.172598605905469,15.447652998288476,15.37164667347372,58.691741844172384,59.956076419046724,69.42856515687,400.0,388.4094171759054,374.6493775412995,349.29945130452097
227,17,227,0,7.566666666666643,33.63288068104627,145.61769603710152,13.540932044013509,25.416141600933553,43.957923207243816,45.62680527564346,25.416141600933553,97.93351419045743,72.53227480629194,55.73110134665808,56.882394182434496,55.65055822645979,30.852752866567812,41.65500663434648,13.654427788920202,18.060610246829924,16.87922751726775,15.48464820531329,16.14178885386923,60.22730258596607,63.50588136109877,67.93342796221002,400.0000000000001,388.3530012715428,373.150351423227,349.16786026256574
228,17,228,0,7.599999999999976,26.717539646197107,139.32768497952364,13.436513077828328,28.381078818951305,38.47631799254361,40.54999025796449,26.873026155656664,95.36065784517494,66.99626304665668,53.64843588283429,60.50824470383168,59.65668222950103,33.21093649889747,35.245224632020836,6.29210050477684,21.005207700157484,15.36524054917234,16.749065761664223,16.842013381207266,57.57508507002598,61.88020646803119,64.39613537737077,399.99999999999994,388.21632805471233,374.77997480031826,353.08208109928694
229,17,229,0,7.63333333333331,20.035092143791974,140.9544580601115,13.414176653866667,28.480076610537132,36.942884545130035,40.48258126808739,31.787309849376182,93.70740953999127,65.22953412702333,55.21201332237092,57.05494700863039,54.83202699530705,24.157630743081427,37.76114125196568,8.654188598878136,12.150062807865197,16.721222657456355,16.967740464829866,16.909391554339322,57.73892239734516,61.519786351630216,67.29750953817708,399.99999999999994,388.61240728209674,373.7423906511201,353.33053345547563
230,17,230,0,7.666666666666643,25.09298719856457,139.751717672677,13.457203621730216,28.42478211860094,38.715893212833585,42.028392012798335,27.171967248202,94.00798301556863,65.63007344475237,53.09976105161297,60.34258560183298,58.71402150178346,32.4141398509845,34.47127345104707,5.357118750162726,20.071338250609642,16.7748572209848,17.02216575253377,16.142784500490336,58.14259550176604,62.57114700190061,66.13753002147905,400.00000000000006,390.2589050301773,376.80170140844683,352.99887401628735
231,17,231,0,7.699999999999976,28.375731552082144,139.751717672677,13.457203621730216,26.758681304289393,40.19871237962573,43.686115657731676,23.898743935428147,92.18241150574671,65.43876270221384,51.34262610155952,58.48545110177645,56.856887001727046,33.87127615102884,34.471273451046955,5.157119650156574,21.528474550654096,16.774857220984853,16.774857220984796,16.87135265051245,58.342594601772134,62.771146101906766,64.4952973443501,400.00000000000006,390.0553876118481,376.59830964666406,352.80545104268987
232,17,232,0,7.733333333333309,26.648239322898156,135.666204550272,13.401661264650913,28.307463584772616,38.5560998392685,40.20498379395308,25.80539312780605,93.8116288525573,65.59130393626445,52.23942174469255,59.178588492069025,58.128645793016176,33.12091968830316,35.15399055101443,6.2519315261781685,22.573768029636085,16.95190961054005,18.584760333114982,17.624719943646028,58.83497088146987,63.044286611308905,59.028194773832446,399.99999999999994,388.4454992406543,373.59713707042386,353.1926009757155
233,17,233,0,7.766666666666643,25.459408689469463,140.01388891443906,13.5783513010502,28.90387381473312,42.56791476761506,44.42243283196951,25.96360434242772,93.59771871806373,64.69785179870865,52.006830167424596,58.334494480571834,59.56288980998647,33.06668822784604,34.55218955644057,3.4994983221695293,20.154253602371796,15.648276684596809,15.369650071492467,15.569196616998795,58.90584114541582,62.16251713502652,58.91835014794262,399.99999999999983,391.5749387552083,377.89096898926306,353.50195164432785
234,17,234,0,7.799999999999976,25.32692645620774,138.97680858454572,13.582663703477749,28.8377969689778,42.25261499676849,45.76742205844806,25.771292397052463,93.041818348972,64.21863598657,51.72055001499416,57.809256420381644,59.21434251393259,32.818796613654285,34.49151815359562,5.118527912221225,18.29957364696122,18.60836366979444,17.180861598035026,16.392671091427644,58.81288934434667,63.228874209792366,65.09658015945747,400.00000000000006,389.9540297527029,375.09193745159416,352.55803608371957
235,17,235,0,7.833333333333309,25.270831312129957,140.65159412118294,13.582663703477749,30.37175935649524,42.25261499676873,44.093396679533164,25.4944713468281,94.58480528028737,64.21863598657002,51.62018672259762,57.60852983558857,59.21434251393259,32.919159906050595,36.063876401140874,5.018164619824802,18.39993693935753,16.931247435282327,17.58901497557409,16.49303438382418,58.81288934434656,63.22887420979231,65.09658015945747,400.00000000000006,391.62813525641434,376.56459480530197,354.0522731655363
