,frame_seq,video_id,gap,time_seconds,m1,m3,m4,m5,m6,m7,m8,m9,m10,m11,m12,m13,m14,m15,m16,m17,e1,e2,e3,b1,b2,b3,m_0_16,m_1_15,m_2_14,m_3_13,label_measures
0,0,39,0,0.0,56.71837034325096,183.82478644614824,16.46339425129406,34.41145750099252,50.874766126556175,55.22996038365513,40.35445165588033,147.9304499904611,113.5248393032397,85.13157506720768,68.3722231811546,63.47789917903299,25.58396637472697,81.94284882340116,44.27138529191893,11.494245762558537,10.851190749987175,10.851190749986952,10.6043686712635,75.19461421441508,70.59691590939167,75.25309752609934,400.00000000000017,397.7134792192332,386.6930384845139,362.3939705275925,{}
1,1,39,0,0.0333333333333333,56.48858901061809,176.85500288693612,17.41846203181527,34.83692406363054,47.82289754358338,52.15518392060925,39.16316590465275,147.89254423388186,113.06049112217244,84.77312661905353,69.38536694633797,63.05941623317369,27.073837723737483,81.59091175300318,44.92810251028413,13.43687341263376,10.530857592333325,10.530857592333444,10.293137565519942,74.23372333233999,68.6773529979061,68.53840251995928,400.0,396.42426560778415,384.2122753491448,357.58425966392355,{}
2,2,39,0,0.0666666666666666,42.17149384131554,173.16544398217795,17.50035830841787,36.44922195286864,47.98176159291357,52.33990470635178,43.62398496964659,139.7083696717621,103.27819249938184,82.10462349486409,71.18365594666898,64.21002606649631,24.14454873606985,71.9073345191398,33.3550032947885,10.197288975724293,10.580370461188776,10.580370461188796,10.39465585912535,75.92046114829583,67.7626299677163,69.28873897250578,400.00000000000006,396.595502239045,385.8326432516887,359.1596721255297,{}
3,3,39,0,0.0999999999999999,24.43850195148104,160.42065255495717,19.876159799998035,42.92839116874697,38.14127314998552,45.75835618216448,48.877003902961725,136.0934362273525,93.19005497976408,80.93393046666154,74.32134142972325,69.57660660531553,23.099772302595056,64.12324255388603,20.21133795332105,6.500902908766307,10.779361112725889,10.226199851298322,9.54338709000183,77.47166049333157,68.78324997071479,80.20308282902594,399.99999999999983,401.0733601629373,391.4437088481619,366.3999822409954,{}
4,4,39,0,0.1333333333333332,14.94487911998768,142.95231897280593,20.872036849391183,37.44349236266453,35.720672478324154,40.15091842446763,52.06872638499882,125.23222109634656,87.85053956959422,80.29451833275175,77.29467461047034,71.23265275089932,22.307928771146862,50.93500886377478,13.986284367519715,4.464702474979731,9.04550007960775,8.008122699021104,7.682716649790677,80.2088085121153,69.73662679069668,77.01247955611136,400.0,399.7566741559123,389.047459476686,364.769162937951,{}
5,5,39,0,0.1666666666666665,4.309147847087777,157.10670834546198,24.42378471437181,36.69107179797936,41.247571956100025,44.20816080135549,53.34474416009011,117.66617216594594,80.97587090437372,79.32395489680323,81.78354948682909,75.99579060006886,25.63092382180276,38.773114056956615,0.6534566485051982,4.41996453554134,7.61756915952803,9.63554751118525,8.608581065089993,80.208759551301,71.97764102230394,67.2592965902784,399.9999999999999,399.7300817066077,393.4236645116492,373.3728036676205,{}
6,6,39,0,0.1999999999999998,19.28517664667813,155.5926397137313,20.735550391788248,33.75503047893051,41.08046946479266,44.084384834403096,48.38541936910698,121.91727785774196,88.16876966880606,78.52686027642233,83.65498124899614,77.3471516958773,32.30154446730717,41.3700526034703,5.06391914506105,13.39410626482868,6.045399842382733,7.895862350453236,7.559765189615632,76.92983981704492,71.103523970271,71.88988706073793,400.0,399.6854658549901,393.5632591660476,375.6398191959099,{}
7,7,39,0,0.2333333333333331,49.02795429954987,166.29926825360016,17.333999476457947,34.8171093139624,44.83329364121763,50.56760184740803,46.06432973782171,147.08386289864973,112.36482171677254,87.71774634466055,79.50747422309394,80.54076700717394,34.14271699334449,66.9918155011934,29.945465684367942,17.42580195167659,10.076572130148511,10.479793202106157,9.575980801300602,79.4113539641096,73.33975760494133,72.89097986137737,400.0,398.4532278824469,393.74751446921806,370.5026599082043,{}
8,8,39,0,0.2666666666666664,59.31948508217303,175.86319103993813,20.282922581766066,37.6835558362512,49.32423776639519,56.52533375437691,41.932761660967984,159.0658872444159,121.42266775288624,91.53130783990308,78.2086484950421,81.43935340219934,38.20868328316078,79.02432151615608,37.76086280098036,18.66451795372484,10.21838877474112,10.218388774741118,9.548172423627818,78.59249462262517,73.57050778674721,76.02920736296768,400.0000000000001,402.8819266192055,399.7911145202669,379.41195381900974,{}
9,9,39,0,0.2999999999999997,54.15057303504303,182.25885252110663,20.68987043675168,38.29023739821645,51.5381308699566,57.225354092178456,40.98997010680244,153.7885181429311,115.61361864236306,88.37359066722888,76.28168232285236,78.22516467502692,36.56568006147813,76.42274152583286,34.7005639331818,16.707678930791076,8.77796861261893,8.899049761495412,8.142250660924958,79.88652862124076,74.16579427814617,76.03351449198321,400.0,401.5434278316766,395.7907862365598,376.8113365013624,{}
10,10,39,0,0.333333333333333,56.82624226958661,181.2841669298785,17.5225786432276,36.49550180046226,51.2625147730542,58.37031523274961,42.22503929998957,152.9037799005891,116.450049727446,87.78463591948662,76.43629662852891,76.85481694280531,34.76937995527476,76.01777631425239,36.19395871733116,18.26197294410156,8.73102571021041,10.289612477339782,9.621942994567348,77.2089495164239,73.10423104948171,72.24744257922006,400.00000000000006,402.9010731538752,401.45051980508566,382.47750498698537,{}
11,11,39,0,0.3666666666666663,56.56519773980745,179.3326275516431,19.07062977037348,37.80910872072998,50.933035890041786,55.40110300045693,40.59756770765308,153.86167735657014,116.07457955453717,87.67667341705453,76.21092669209395,78.39223443983803,36.87996499322344,76.39732935417396,35.38081166841016,18.826668870075537,10.14939192691324,8.819477274048468,8.142226920215876,78.21772982001852,72.8636108028283,75.0881440811057,400.00000000000006,400.0,395.90859766641154,378.44954779918527,{}
12,12,39,0,0.3999999999999997,57.635550107602576,174.98423578142894,20.19860488337674,37.52690234204074,50.55287279970431,56.29035351306099,37.444030907051456,152.78782576767682,115.27110021520504,86.35115269226515,79.09620802466281,79.14342024592702,41.74347230111778,73.53303461902851,32.83609988926753,22.52809824657868,7.195455059059895,9.101610715204307,8.089027243270323,78.59261099784442,73.19468036663477,75.94529273545741,400.00000000000006,398.6879514510306,393.0826454973604,372.7579085842095,{}
13,13,39,0,0.433333333333333,48.39785114768929,170.57599274467208,22.007475046962497,32.33894960258214,47.20985517803344,51.42491450947151,38.17424486222298,140.90899271218686,108.57674577957508,84.34277800602172,85.85561705348653,85.16723526469309,47.346259078069465,55.35069848264607,20.94761792177667,26.198530171178504,8.9046501334676,11.14884802189789,9.829451588819891,77.17880473892592,75.62594349443799,66.909104673729,400.0,398.5427513728554,392.5750741656275,370.4400406736048,{}
14,14,39,0,0.4666666666666663,47.14013363461539,168.53570987176363,22.102859935074928,32.4791132098534,48.71866981477999,53.11283799730608,36.87394255197156,138.58715138881905,106.11369336384368,82.51365370644373,83.30148866973593,84.36265413049682,46.96461077095137,54.71433428741773,20.306848135471228,25.869927672187828,11.76208298101388,11.1971694044682,10.603615475331196,77.51331342922157,76.09842614820684,70.09611847612172,400.0000000000001,398.6683590941829,391.2136034807252,370.3247043716198,{}
15,15,39,0,0.4999999999999996,46.0969340658987,164.66175621661054,23.048467032949464,34.62497596622213,46.20890152272284,51.937463949333086,36.0579312681416,139.82188047122818,105.1997401939022,82.1263506928592,84.17099012919596,84.37545407282971,48.21941337360829,55.51196069654259,18.912914786114925,25.932843517537663,10.166242993788131,12.283918147267531,11.075130280157396,74.3567208347796,68.29095717364726,68.3183631745593,400.0,397.13722675528527,389.59133649206393,367.8606949101298,{}
16,16,39,0,0.533333333333333,49.94034838451356,170.94274291116085,20.60715327051395,32.43357333098695,48.53946320307953,52.93666341436344,41.13577809901472,144.07063871253135,111.6700138077942,86.585994914519,84.2747901713526,82.9125569121353,42.52769787342959,60.34387218499057,26.00487985854136,24.267649803247195,11.745591033382542,12.544296722523454,12.038162453644816,76.18557357027015,68.30298785682186,74.3436532646483,400.00000000000006,398.2474236466897,390.5353822763057,369.8054616795742,{}
17,17,39,0,0.5666666666666663,52.51140555345994,168.31284612269542,19.17814979992409,35.11540258317162,48.31531608090838,54.02800403411342,43.742631866651365,150.3598843458061,115.27195629073428,88.83933321736072,84.67107461242688,81.71001658706405,39.6857699963374,66.93509628615095,28.608375998890324,21.66127832400048,17.557701291585868,16.301916394763502,16.25544931359451,72.56869899081562,64.65735934356405,82.70069998167415,400.0,399.7235218725388,391.965333496945,369.9349890777184,{}
18,18,39,0,0.5999999999999996,27.319838399891346,163.52560167749715,20.07080571368011,28.742356809365308,40.14161142736022,44.42171797727889,44.35261492588267,120.42483428208064,91.69765866428364,77.96671671520983,78.57093200072097,74.80797098209416,32.44406634352754,43.67941133613533,12.849135185555497,14.417035609983373,23.057826546993752,20.07080571368011,20.134135938080192,78.57858029547435,69.10999139088045,75.46477710529372,399.9999999999999,397.1577723287784,389.5890994783605,370.66431960723327,{}
19,19,39,0,0.633333333333333,22.32203508934939,153.56966276192654,18.15480905408717,27.98710050376232,40.403898420492325,43.187171454599984,44.64407017869867,113.0942349012032,85.11944313798809,73.9177795481155,73.52736874064294,69.45484816073451,26.877104804622377,41.56726832500692,11.490325921884846,10.7937105595322,25.21762293542312,21.07099121317855,21.75200606731255,76.40569155651826,64.08861333645626,76.46855673834543,400.0,395.7116383135054,385.878571624256,363.2056274061027,{}
20,20,39,0,0.6666666666666663,24.86546022226951,157.86853731112532,18.011440898609923,27.76608694397073,40.08482966172007,44.22684195114884,42.91287912603557,113.4863715553174,85.74790165498459,73.24126422799384,73.65026085680904,67.92430805339814,27.912090687246177,42.58195090191453,12.894969183961509,12.107843596430484,23.84691088229101,22.274638815777934,22.271023976608376,73.87405146502851,65.74042039387632,73.14977612834191,400.0,395.5986080244279,386.83798142492014,363.0913290078765,{}
21,21,39,0,0.6999999999999996,28.142350016301243,154.78292508965637,19.65182059529359,35.11518820123037,37.9071963645964,43.60693322187245,39.30364119058729,122.2053338526577,87.09015079298304,72.97244941749511,68.26991486116651,66.10765620664904,27.92035388508168,54.948587066551454,18.061664075673093,10.350112230889977,23.96643776845477,22.576486319633418,22.57519000835476,74.18210460883353,64.3309751443706,75.78853074900006,400.0,396.9201549059921,389.541906218628,371.0355747411742,{}
22,22,39,0,0.733333333333333,47.08186169583005,165.33643294695102,19.54967898468816,34.66968975534259,41.677971585692646,48.560395196650525,37.34960925733897,138.57537283939354,103.90796909969455,80.27813705579297,69.45386144935344,66.86793514168392,30.92813632579941,70.26625422742666,34.063285920053545,12.414734707174375,22.290063546918454,20.7815938199389,20.756063372179145,72.95515990133072,64.09893440515293,77.27689139592823,400.00000000000006,396.9884722810231,389.7452950239575,368.5516350023542,{}
23,23,39,0,0.7666666666666663,50.576527113055306,175.04492587399025,19.837746052247947,35.180552152052606,46.62925402142922,53.46999404964648,36.57899633223731,142.12052576896954,106.93998809929296,81.61080675292965,68.4321385810058,66.93963325388779,31.14258538233969,74.30983997233659,37.85885935437091,12.794001850501672,22.83496054680984,21.08781331313964,21.05663443465005,73.80977375448794,66.79346005174733,75.40953277844781,400.0,399.5053142959733,393.4730791596999,376.3032710548461,{}
24,24,39,0,0.7999999999999996,51.99923308324466,176.36310514998618,19.696759534089978,35.33509788746147,49.29685911687324,55.017215148582345,36.59452599613807,143.57986042110053,108.28444750082156,82.16976994519746,68.68891298112385,65.51603619853483,30.54474307531507,76.34251087863754,38.50015120336752,13.937441671812168,24.021243188381067,21.09676617368784,21.06480634684749,74.98823420314221,63.937336531100186,79.82996268914529,400.0,398.441174530449,392.24433951865217,369.4800101163276,{}
25,25,39,0,0.8333333333333329,52.849102189658254,174.99025984071574,20.018680963155585,35.91261040612811,48.681652045744,54.36697287242175,37.32910960037264,146.0449561372319,110.15585081767308,83.67491621714385,69.93724340537392,66.63525281115756,30.959061695424,77.65864295648703,39.28750167193755,13.992861780409612,24.62127150534604,22.82035141238334,22.73115070655649,77.40732048737215,66.76671379500209,79.9984742966665,400.0,398.2186058592168,392.20663692800144,370.4574976711448,{}
26,26,39,0,0.8666666666666663,54.23188678824392,184.2940847503164,19.27158710387433,38.34773490450837,52.92973096694772,58.89997479393252,38.09498252455592,149.70788677243323,111.44128530203947,84.03880729815955,68.86913926836144,66.14667413145469,29.716399121490667,81.85852801478927,41.20612486877496,13.958401761259095,25.293129217566783,21.97787453339768,21.89507978749577,78.28240855529327,68.54613493008435,80.46557134083028,400.0,399.8255355472192,394.8086578222752,373.68132114576673,{}
27,27,39,0,0.8999999999999996,56.347282680287066,169.85891041383323,17.374889710522744,36.33144609393507,43.50307910938482,50.58409644614215,38.98517476758413,148.96214362791136,112.69456536057412,84.26992566670026,70.30572270084065,67.30515016272204,29.982644053969807,79.88447349560374,40.784705191196736,15.395245253270105,23.488808780588187,21.691634347153737,21.65028492888655,77.04547024799933,66.28957176520498,77.82334900251637,400.0,398.0433601892653,391.5277119844637,369.4346733578009,{}
28,28,39,0,0.9333333333333328,45.00440155244039,155.6910060642352,17.445175203902302,37.91723149885448,39.2232270276368,45.00440155244033,43.46228837821902,143.6887180192347,105.84750345084778,82.99902824622882,76.3792862623244,71.12018408573522,30.63732779617657,69.62195148891612,29.964651936380164,15.777306529767545,23.58382650683248,21.77938208240258,21.739660741598414,80.38476524565687,69.28561355901809,77.88256670566793,400.00000000000006,398.3858711603922,389.0893113178014,367.0212337190175,{}
29,29,39,0,0.9666666666666662,19.28707461656039,156.17136971200674,22.385131045042325,46.07101359007248,40.18556519312118,46.071013590072255,49.01658719830389,136.74074240903226,90.6697665407351,80.97106445880627,77.75759732013898,72.4634951715941,26.149541639566905,61.5165607003878,13.945163505403684,5.154386185993985,26.99379943389696,25.19073845994904,25.111112188176207,82.22095590757135,68.85353678785043,84.421055790789,400.00000000000006,399.8057515215005,391.7363021418298,371.963269639104,{}
30,30,39,0,0.9999999999999996,13.408030463079887,144.54547883212555,23.875074520049207,41.69602510048883,38.6111305529383,43.04140269378052,54.86474062928736,133.7856582627976,92.09953270436736,85.24776520467185,79.90003615398177,76.33488345352168,23.444263644164835,55.50807369070742,12.071877814848904,2.4143755629698944,28.749396790888586,25.214889005688505,25.869921335933327,85.51853629584605,72.58921669227885,84.22913065610066,400.0,401.1083575508275,395.88178752729584,373.2050308706216,{}
31,31,39,0,1.0333333333333328,16.204310618653157,154.05896662428202,26.557033099590928,41.48341183182427,38.414247549009,44.41399261185632,47.23179291863072,131.40520055413822,89.96887506768098,81.58191334376647,78.33526689659038,73.1572626676832,28.65288325499625,55.3214948164333,12.340280151373577,4.841622932284622,27.162974936083,25.215738068879308,25.209699421029427,80.33843641580262,72.3786722507819,80.9009353805604,400.00000000000006,399.6091946851012,390.28762081732015,367.49229922612784,{}
32,32,39,0,1.066666666666666,11.981535014761624,149.50905462871043,22.489175009659448,38.895653147941225,38.7534382178432,44.682760727360055,54.98668107450881,128.1175524812221,89.27898084506208,82.98407372559893,75.42221138610648,71.98500123179178,19.199273861958204,54.16061143155946,13.405119601827437,0.9329570418854018,27.402818958130965,23.82442043742889,24.502398100043703,81.80560167269118,70.41370516124789,79.89225956400793,400.00000000000006,400.769499330504,392.6131372923909,368.5264159260256,{}
33,33,39,0,1.0999999999999992,10.346111703243858,149.957957812014,21.9961352000644,39.748463166136766,38.15457472326979,42.65811136691322,52.69411912285281,124.67815853445418,84.97679193041394,79.52153137180437,73.04797937255796,67.72561329465566,17.985411212686586,54.04593643712599,12.67799560129538,1.4352447850524186,28.409450653172275,24.91673651947205,24.847675341218064,79.01321551043168,68.14422635696269,77.47849311419263,399.9999999999999,400.8981447000804,392.8063145895274,368.79208232274135,{}
34,34,39,0,1.1333333333333324,4.207235237474865,153.9310603525248,20.87780874415452,38.931136984527406,40.40917488248666,43.23944950825636,52.08312532513687,115.00845177483284,76.09456926648257,74.3078032722965,71.70877804023212,66.10035517104052,17.106449699932455,45.99970681194645,5.418435644625561,1.1627218143446498,26.35825321375588,23.984931126900683,23.88519387245117,79.04988439746671,70.55365571487039,81.97363576103437,400.0,401.1351144641228,391.6346225705871,368.86261624822055,{}
35,35,39,0,1.1666666666666656,15.077935698625732,159.19269504510967,20.751922188906928,34.29385877593584,38.69639459432207,43.105697819888086,45.929199261479965,115.92901521062171,81.65356238650246,74.01232999248259,66.81626774086942,61.77751555630175,18.510625540313185,51.53406425893195,14.346866250071455,0.3469799408535436,25.821123620800183,20.909334726747705,21.64098805018682,74.47999860841549,68.32487617936272,80.03114445750073,400.0,399.6063260251582,393.0092880147891,371.6218831561864,{}
36,36,39,0,1.1999999999999988,27.781705633585343,161.07088924422155,19.126500875740152,36.6148367433425,39.50396192783415,42.56992490685213,42.19573137474829,125.59775794850673,89.00130192976188,74.9006557203619,66.91981426577343,61.21702908845259,22.16900404052353,61.30111841412349,22.0619812623969,5.9244752177260125,25.395828921512205,23.447640513180968,23.327143389537014,76.68182052775563,66.82043597179859,77.28971381257944,400.0,399.37306317134505,390.1408367040691,369.036135536784,{}
37,37,39,0,1.233333333333332,42.7054172632948,170.1886544051545,18.681932815585863,37.363865631171386,42.98792586048475,47.06520172195591,39.77010940502973,138.24280047580345,101.00554845438153,79.09405754532577,67.83836474079851,58.46876100081397,23.97158359450645,74.5309388407876,35.47064272994214,7.300989927260844,24.805539329443107,22.90263376438432,22.754751939962944,77.87722589078214,68.2034142371615,77.51060041903352,400.0,400.53677937767554,393.7501119540908,367.1928639032441,{}
38,38,39,0,1.2666666666666653,60.18012259001305,180.7043489074136,20.21220517432248,36.18492818589751,46.28992150951144,51.94576053008424,38.615363765378845,155.01588647517443,118.93470211026955,88.30507049561038,65.7036775714248,59.94448518722868,24.61787407727297,91.5589378108192,52.77222835863438,7.1722568285943,26.35349131737851,22.912119300524065,22.74651846171855,79.05522702444154,68.56035920496498,81.1136720789628,400.00000000000006,401.7935253308488,397.8109103676168,373.53227006134745,{}
39,39,39,0,1.2999999999999985,61.98013080533039,182.30532695789444,18.774207979601137,34.2383223818108,46.967151213931615,53.93398641081751,38.02008238120945,152.62621401138952,118.50481235838954,87.03550238549963,65.55701477121397,59.780254153924034,25.073599275046035,89.27860624221353,51.45311517900063,9.371872278050205,26.288411057606965,22.558913820593,23.07631501906804,77.12589973084005,67.04729610067449,79.86325115107545,400.0,399.0682332123459,392.6453478377138,367.5882206850299,{}
40,40,39,0,1.3333333333333317,60.43721307379092,191.89598404842087,18.90542090604109,36.3908595766432,49.39559806441518,55.09018073512631,38.83512696412014,154.3398070317739,118.0818132074904,87.16235187059829,64.91608532002215,56.89309169259457,22.5360705028977,92.53135140834434,54.32298822069049,8.038246467023441,26.85196131010236,23.04251404853219,22.98602927097579,78.13267082984328,70.75792288524019,84.03289555686202,400.00000000000017,401.75224700157935,396.2742098633244,373.2082466631258,{}
41,41,39,0,1.366666666666665,49.54942878479533,180.31694939715496,20.236697567369955,37.42154549816946,48.57218713744675,54.17184269361061,35.36306321567749,142.19175784271698,104.93426266288716,79.80396738621926,62.540128016832455,57.80177931813125,25.17247746185035,81.63020594717716,41.90856805790429,7.942808876348522,26.06166567756576,24.193378557045666,24.01067080976497,77.81067165960224,66.76971171102582,78.84651546762151,400.00000000000006,401.5228275882966,394.8022321581704,373.59837151482833,{}
42,42,39,0,1.399999999999998,53.3565705721092,182.9451104086382,18.90542090604125,36.39085957664334,49.20702457323576,55.09018073512623,37.39879709145634,145.88243134655627,109.57868946959464,82.40062272540047,65.13006612996264,56.70390699119764,23.93551034044458,84.38437694887114,45.78366614013862,9.607970165513509,25.102282855510825,23.04251404853231,23.7014503643677,79.16599059699467,66.94115315796671,82.96898852588359,400.0000000000001,403.4251955901556,400.7636844373102,377.8925287053711,{}
43,43,39,0,1.4333333333333311,39.99243594181522,174.93511429682323,28.54512484252439,41.4048034184899,45.99694715808171,51.4408553916896,29.95858311707101,139.899659707719,98.49491332852982,78.22211940632474,67.90644388570911,59.9941986823967,34.1096356619172,75.479156869593,31.63753590697661,8.419636048076427,26.18669697479068,25.91572607872139,25.78155886402368,84.0285018554286,75.10910490010338,88.18805754184578,400.00000000000006,403.21161216543584,394.8642952620045,373.98309534413,{}
44,44,39,0,1.4666666666666646,4.512448614563659,149.7426004181307,27.149794998610936,38.765059092330894,38.94847033172497,43.187693072395966,41.99245015976208,112.21399129087884,73.45734144560028,71.18453234075469,70.28480219220978,64.8108137254327,25.555360521694183,44.56310500439804,3.6291636243825,0.3326733322351174,28.03534609139661,25.843372728220675,26.500455215543862,82.66932306041537,77.05924095772394,91.51486095094346,400.00000000000006,400.681552805935,392.7334156167655,376.3636434617876,{}
45,45,39,0,1.4999999999999978,3.1965853134514,146.9942726805674,20.21698065109894,31.579933315611488,36.19347748978193,40.2566740535654,50.05489246562789,104.70951807645484,73.13127732013739,71.27130624886502,67.0544334541795,60.2443377912291,14.1165203318443,40.625875765588944,6.721602894448779,4.543911286974321,27.756964676085023,24.47006414453644,25.012673392564807,84.82224236463395,78.91246443339577,93.65504012407828,400.0000000000001,400.7299322717296,394.23112269643065,372.0144183101567,{}
46,46,39,0,1.533333333333331,4.428556867580791,156.18295031207717,20.87641727957717,31.314625919365813,38.63547507959843,41.56976456246823,53.16318103561184,109.59622002952112,78.36307427540876,75.6443966368912,70.74116103032861,62.844940913135474,14.1954084477062,42.33100960965373,7.335518884581347,3.352606680512394,25.78047357220807,23.80277794628887,24.500710412602984,85.11058020539701,79.85158933400487,95.26831281872376,400.0,403.9600229633357,398.9772280506016,382.1296883445682,{}
47,47,39,0,1.5666666666666642,25.935526611787555,158.10038345885908,20.345500967509217,37.51525013516931,37.84481942461149,43.54127347764004,46.23848019433272,129.9884868003478,92.47696038866556,79.30569958385126,71.5540146621214,64.38312531394786,21.876633270616253,61.55658685597439,22.016024208269528,3.345382503683709,23.419430346297247,23.197440214484786,23.16987141440132,82.52717903184305,77.9969735581048,91.13558171210391,400.00000000000006,403.4698029887533,400.0672594992629,379.22671238568137,{}
48,48,39,0,1.5999999999999974,46.09643078391113,172.175836531153,21.01816327183234,38.89780092210595,44.98083367315456,50.87958606065287,40.155144548651386,146.019520051489,107.17202466295154,83.66083729153183,70.81767182436886,62.800869474205,26.996620680145952,78.53209961780522,37.79681959095672,9.706998590333797,24.19372280573724,23.82573599509557,23.81781123762425,82.99793922485975,79.95093407629645,96.77489122294908,400.00000000000006,405.23106000294393,401.4964346710661,381.59689545489664,{}
49,49,39,0,1.6333333333333306,47.71636589076567,170.1392012657735,17.58267581804721,38.019566293927895,48.04356766149514,52.21068209304565,36.132176232567,139.115917052946,101.26296213727876,76.95645107512871,69.72031049166901,62.23464781912435,30.276626409414803,72.67234874561098,32.94843216330787,14.829289694379211,25.24085318960158,23.169713988409164,22.357179181999754,81.07548494571347,77.69733973964208,96.9528026772264,400.0000000000001,401.03525443280944,394.5660114966301,373.7960511630105,{}
50,50,39,0,1.666666666666664,54.71607754688922,175.1695289478258,16.092963984379185,39.10292218996048,46.26272321997558,51.99795797469714,36.013737891685814,145.72798689272787,106.67098297083308,79.02381452843042,68.15011290120663,60.44726309984458,28.5067312929923,80.94179319382965,38.653457135750045,14.46217783990653,23.431709250102685,21.78205117334511,21.77833839421225,80.524168807009,73.6875029190532,94.00274821547586,400.0,402.066529736978,397.0757466677829,373.2457619780489,{}
51,51,39,0,1.699999999999997,52.24270874214862,172.01080822792724,19.057988567124337,37.92270400180545,46.72729923046669,52.34307907241651,36.223800988259086,145.24976339816232,107.3789801340223,80.84234482679858,70.12032384767531,62.39246378806331,30.465010075642112,78.47164672086171,38.64699736983289,13.546846319638805,23.587230303867724,21.926623108558065,22.63708808298713,80.38821759221969,77.22472109371313,93.20715535414318,400.0,401.2210728488626,392.8691242632465,369.3264774903939,{}
52,52,39,0,1.7333333333333305,52.75502546465084,182.75462615720303,19.244880221008323,38.48976044201653,48.63773026169666,54.31462302623955,36.57902872138592,146.7835797023665,108.43198922356665,81.64843614283348,67.22631482697727,61.25747955172176,28.090446424270223,82.14840301511651,41.88953209928127,12.637624171707444,25.25807758244772,23.456257602452936,24.083019647970787,82.6022190991888,77.35641283923457,96.98893424408124,399.9999999999999,400.8981447000805,394.2615254806509,370.2491631041808,{}
53,53,39,0,1.7666666666666635,72.88616032944147,195.76560387568463,20.99672443841328,40.33339054749068,52.302499199084224,59.55449862783421,37.11731558276836,171.15228492761656,130.86367475662087,93.99670366261093,70.0607471965269,63.03402814451249,29.84635236075985,104.05125812768028,58.93192284374447,11.373497921514172,24.16904485522813,22.31982423701421,22.97637731371424,87.15731281165665,78.5937379060461,92.30204005211324,400.0,400.90274930076737,394.1572311262011,374.21912452247295,{}
54,54,39,0,1.7999999999999967,76.06039273501543,200.47747585704147,19.55598762582277,40.25396730755742,50.90031946076675,58.15705652007187,38.685751392473165,174.4711695602157,134.21741221519932,95.89153796539506,67.01141680343665,58.1293664926759,24.15071774973524,111.3563026190228,67.81503087917213,8.747473790900699,25.666392670774385,23.974158718812976,23.846959319194184,87.98997372790029,82.76840475733184,93.89322949425964,400.0000000000001,402.60007695289227,397.2354658936997,377.5834861464055,{}
55,55,39,0,1.83333333333333,62.68242076193444,195.8290848441929,18.11015845693176,37.68950271572236,52.29365199315458,56.74455567134126,40.193438088498574,158.36421431854893,120.80982514024068,89.12992065158255,67.09806537371685,56.486993318294026,22.024143742941533,96.2785135261298,56.58724327230607,7.804073343087111,27.1652376853978,23.864808523694013,23.04592212037153,85.22017244511488,77.0536569605996,95.76055086774024,400.0,400.6780955930691,398.1675478010277,379.5317132067357,{}
56,56,39,0,1.8666666666666631,39.71378643618963,185.9084535909016,28.081887695624,44.3161279477787,45.66080066892303,52.99703123022929,33.839021844217726,145.8807479107407,101.5915266375175,81.38204742328901,70.989598174869,58.07545168234708,30.909895007249247,80.80893441326589,34.65423333940055,6.533488314264105,27.10312228017112,23.56385966554918,23.459425876948217,86.1197816394805,77.56129402313462,90.56136666435772,400.0,400.9333390980922,395.636238026818,377.551454777551,{}
57,57,39,0,1.8999999999999964,27.23048632503197,168.18914071510645,23.07744828654744,40.30303076972896,41.7263671714776,45.88784574967628,37.23878020735132,127.77040551713814,87.49085514335603,73.58805259261737,66.79205859437457,56.2734426717127,24.552401154759423,65.85083839676611,24.69838632826611,4.82903587099554,26.3900717492693,23.07744828654744,23.065657414047223,83.66487127966695,77.12627219260702,88.97661131857619,400.00000000000006,401.9717889746785,396.5774304429682,377.110339438512,{}
58,58,39,0,1.9333333333333296,3.25504605388715,162.11305828335486,22.028751131919133,35.20870635386052,37.960033911443965,42.44060812709295,48.12627145443205,108.34952649976069,73.14806238396051,71.45331759264798,68.89371676666656,55.80459112479412,14.469117224565592,45.84218613740711,9.395285158882984,4.5029314383217525,26.841797392853323,24.917584835563048,24.892779672469143,80.34953730244746,75.72183950185467,89.36865134925017,400.0,404.8104886075004,399.4911006858397,378.3842282615293,{}
59,59,39,0,1.9666666666666628,2.051282051282022,157.46178689661778,20.51282051282043,33.64352711150102,37.96257543245495,40.84575949074844,50.78735755134335,106.37039723047522,72.75547836294636,71.67903302219122,63.88463982710459,54.406296048062586,8.807777327265626,46.9923928059502,12.10786840454739,8.66462269149315,26.745445764933944,23.388213848187423,23.97086703737864,81.95979620701087,75.68359559656403,87.05269814942758,400.0,400.6595482897743,393.8808745379225,374.3940974039792,{}
60,60,39,0,1.999999999999996,3.27013111649183,157.16373983046375,19.067977230100805,31.02318772651101,39.72906505081039,42.63729327992345,54.130301682322255,102.88187980569742,71.8982780371542,72.16492928876823,64.28446186200676,53.77967846965407,5.380223705961612,43.66215087165085,11.34321098594421,9.147508229632876,25.914628536720983,23.444810438113592,23.21654883599797,82.83514234084305,74.44334687494063,95.50798481670611,400.0,403.6062540244664,395.3749453537079,371.39534290994527,{}
61,61,39,0,2.033333333333329,3.31294325713719,162.46938550124017,18.02436000362609,27.036540005439125,37.51094541339057,40.439626120014815,52.04590626142103,100.15833477479414,73.14030380296617,71.45552220807224,63.50431818934055,53.13841550456061,6.476808571549668,41.75698534340552,12.20889699375732,9.681361941445177,29.108689107048782,25.360791613544475,25.19260383986034,83.9954059348704,75.48001998481902,95.01853936139906,400.00000000000006,403.7688245455596,396.6023433617512,373.4379265363726,{}
62,62,39,0,2.0666666666666624,3.3439159243099668,165.47485445904778,19.669503560750226,34.68658027354025,42.11210408213223,43.59932947311553,49.372326950735264,106.6913568927396,72.03015341444518,70.10505648258413,61.481096640715805,50.08312783439521,6.944457815771443,50.57376887572684,15.20987228128206,9.020246836789966,27.93721183078324,25.466504964630808,25.286884437863364,83.59768511920538,75.18130417943883,95.6383338094252,400.00000000000006,401.8268437472289,394.7180793296602,371.4155923573199,{}
63,63,39,0,2.099999999999996,37.60681740663004,178.6993172618768,17.544580271219935,39.1778235591604,43.64754907473478,49.22379436437375,43.48045366039143,137.76172165635904,98.58481269000622,79.60741909698322,55.52225354705092,45.73207977258767,7.273868669941066,86.78464975700172,45.80269985676182,6.225717946934651,26.94169024169461,25.998830078969217,25.80978234239683,83.11612222647977,76.60420709631285,91.07301199358552,400.0,401.4117813073808,392.63994326704153,362.4834541287278,{}
64,64,39,0,2.133333333333329,50.72846482331669,187.6962024877092,18.080882114455427,37.42255073818974,48.38844763285817,54.01820712241996,38.898606429150384,145.0892404855339,107.66775810702376,82.1217018985866,52.251513094608754,44.25103308480573,9.45005724976295,96.45435051670472,54.73915076216099,5.4238657341715,25.95605445452328,25.44031984500519,25.24340518385077,84.77987806495776,77.36516072501036,90.66060063072236,400.0,402.94632377765726,392.8538563764324,366.67064100506735,{}
65,65,39,0,2.166666666666662,59.05200051825537,201.3256877728628,16.840411044421938,36.64869666811011,53.254055633828514,59.68256879912515,34.93725815802467,147.41276677470424,110.78891615409673,81.1174642631463,50.80462596483813,43.98506496434516,12.524598277604582,99.76642557517424,59.42287376643219,0.6289886359677439,26.69085618133041,25.65054990476055,25.4243827591198,83.71066302546967,77.33249755898896,96.89311636529725,400.00000000000006,404.87094081430655,397.4964904413857,364.6996990792477,{}
66,66,39,0,2.199999999999996,65.9199716003857,207.02667654494832,16.68138521501826,36.30261904750837,52.98276856521559,57.39948060976933,33.1284078768748,151.93802719830992,115.66829685883364,82.48643121279372,49.09460467458416,40.17512687874376,11.58033041560816,106.88382636023972,67.23337464595716,1.1617807213068545,26.05715669385413,25.408328977818464,25.14693109667621,83.68568873156221,77.80183153010432,91.5988821432014,399.9999999999999,405.9661089639317,398.1703734842578,366.98137568021326,{}
67,67,39,0,2.2333333333333285,66.50112846388042,207.5109239076785,18.23892578036332,40.24682979015195,52.36137999404997,59.64103758280749,32.47314935143344,157.13949515609346,116.94424741920236,83.20431540093989,47.8076287101436,37.54640541499976,10.62391749114306,113.62906915491362,70.23421982942693,3.6042735727419313,27.546489089117227,25.23988378093982,24.988118878527644,85.4069270287265,78.78775795174124,99.18884483049888,400.0,405.1631067252684,400.4644737021963,370.76727421878775,{}
68,68,39,0,2.2666666666666617,72.97485958912728,215.7874548954969,17.66705549716688,37.98653960123698,56.82685735360221,62.9220444158436,32.6868072920617,160.86500868867714,123.0368043395506,86.19322586139174,50.18059856159925,43.43178145693753,14.342183151152994,113.46117375901554,72.57440077252295,0.1401269544738852,28.94710994330222,26.52322364564736,26.404462880865708,84.22008685379978,77.02437838081562,103.36476048191562,400.0,407.8108923135279,404.5509418921606,381.3478339628893,{}
69,69,39,0,2.299999999999995,67.72699948233199,218.27054439580465,19.43500675928296,39.78029462894052,55.795159559527214,63.552206007684326,33.14507347548216,159.81010178140818,120.07301178547443,85.9589035776836,51.05185014776998,43.85952529413851,14.490865475143435,111.83002989718068,68.44088871794224,2.4050284584401425,28.971997504616503,25.33527686180992,25.10864884292539,86.04994566443838,79.10039970881985,96.46106428665556,400.00000000000006,406.4500786191396,404.7701986904154,382.8671506583355,{}
70,70,39,0,2.333333333333328,62.41999807110224,217.7770470312853,19.369467209029345,41.883200842267264,61.25163344447706,67.79313523160232,36.65428496941996,160.1764003746263,118.34582958569104,86.69120560471015,56.63800023240242,49.8536368129088,16.99902294996741,106.37729384161184,61.24984278160878,0.3049152098648164,30.914162984147502,27.11351455541122,27.02311047427554,86.7483772065599,75.96200165758944,101.94800827299046,400.0,406.87408950200046,406.75881138961375,386.3934156619447,{}
71,71,39,0,2.3666666666666614,60.40581817532219,215.454560596045,19.278658999672142,38.55731799934439,57.83597699901642,64.09698676682166,38.03270419381708,155.95373361076463,117.53488490868978,86.72220268854073,59.33195895862252,56.734441152671366,20.62894364994964,97.2828571712438,56.38939774262701,3.400034501222649,29.22035059549708,27.125626284700715,27.06846167336016,83.64007335162842,77.78596605761902,95.73977359875286,400.0,403.82395174150525,402.7778546009621,390.40168954010494,{}
72,72,39,0,2.3999999999999946,67.52034161541661,209.8399805602425,19.020681374618864,39.36768180395032,58.18621395288924,64.57802016264792,37.55632766114469,163.3529479343015,123.99967176600912,90.02790334668975,63.752861884674985,59.39189152325389,24.25838522153652,101.49202847389608,59.0213260632047,8.28896423794265,28.82933809561441,26.625281725052496,26.622202787745096,85.50310404503648,75.19748356661557,95.98608570015516,400.0,401.0954702762255,398.71457095523886,388.3157424752753,{}
73,73,39,0,2.433333333333328,69.58805097164941,209.94683325119,20.11794698246765,36.02113970664925,57.60903301109013,63.73070342726011,38.60524964562299,163.91170971805138,128.15064418522795,92.77793676275223,66.63626126734209,63.902748717422696,27.27604381583785,98.21345163146792,57.29741651826612,9.4963959046911,28.1566715877284,24.7357885797874,24.7709804415602,84.66011346969213,77.25520915578954,91.38796168916764,400.00000000000006,406.7432500033126,409.58677625406347,395.2097666000932,{}
74,74,39,0,2.466666666666661,74.52241750393323,216.68555523914864,19.054175682233065,36.7026398261356,57.31563146835615,66.75997497232774,39.59071368317967,169.57884142424086,133.0032481121721,95.2701073009746,70.2573215182914,68.2811600419916,30.224114837119146,99.89177526974048,59.1254764280053,13.203627283181165,27.08569440489365,23.788134403817928,23.745811287797267,82.20991109268613,73.81919321146103,88.45678992493134,400.0,404.7139333725954,405.5945903508604,392.3909700609751,{}
75,75,39,0,2.4999999999999942,77.95645547075556,209.8926175061424,20.312313124486742,34.590622818256364,56.278197331475965,64.17647266354167,37.38919922156703,170.0663503434778,135.61640340947,96.32017471980714,67.89730217967428,65.92438269748675,29.762212188609965,102.86449300218544,62.5239035899765,12.639516682632577,25.360502764988407,23.420121385326954,23.482553836768943,82.06863846026533,74.48172045152785,95.03088135481634,400.0,403.4677142416023,407.5614468446623,394.5137606204922,{}
76,76,39,0,2.5333333333333274,81.314411459737,211.72918079830944,20.354811591179505,37.59729698115826,56.395945471737335,64.17797037292567,39.05977998907732,178.14137312678753,140.58088607389757,99.6618957308392,71.14509385478425,70.69429896274221,32.23183478100884,106.95913804577036,64.65686737289286,14.634734173794754,25.172671021102104,24.978284552030946,24.15777626818368,77.69771960696738,71.27389239536774,90.34418405063256,400.0,399.85069566916286,394.7716183021621,380.3970347368096,{}
77,77,39,0,2.5666666666666607,85.4305625547486,205.8448309419448,20.42687145383609,40.64658749785566,55.99515878170585,63.74978977205485,35.854395837404105,181.8102333685334,141.33392416945483,98.29398225029706,75.92576125119228,76.21884804135334,40.77162903130716,105.46239665965538,61.40982383848859,22.87705223202329,23.75673389289696,21.79776255237653,21.79425936837248,78.066923079314,72.66924136051279,86.55248273782577,400.0,400.0000000000001,398.1688012436677,379.3232905618901,{}
78,78,39,0,2.599999999999994,93.1080259119712,210.23673918039617,22.14653813061836,38.00027435641948,56.89111054904465,64.71213540266724,36.32542215898387,189.40422219927825,151.48426676681854,104.70825854987766,83.45514587513549,80.78313865108385,46.038848397234005,107.06880480916254,66.64445011890837,27.531510017146047,25.442478100623884,22.0902571295184,22.089139474905664,84.24199462823043,78.42259239179884,90.82040899208084,400.00000000000006,403.0537752656024,401.3049591913012,382.1717415270062,{}
79,79,39,0,2.633333333333327,92.06317563983248,198.2396821566603,20.342111419117035,34.35915205067755,53.06867537417625,60.846580305010576,34.46525364769824,180.98629692952224,146.65586022233302,100.34290819097588,89.41852822014948,82.11922371770754,51.73822400131508,94.89505466221748,57.89880423233228,33.207329742590446,23.60963696686273,21.84236216077303,22.569678904856858,81.97176302068857,76.90075349542315,88.0493767859176,400.0,401.4002146172479,398.0387627993096,380.7610873754616,{}
80,80,39,0,2.6666666666666603,70.9403831463748,183.579959800273,18.565946808263977,37.03573835727769,49.3622597991534,55.52685662786195,35.49531507408716,161.92025126918298,124.89677192433766,89.31497929446255,85.6781670092987,81.00285656306983,48.0315743099743,78.45005431057143,39.88908673636513,30.92738547394777,23.178606378702145,23.12726942446956,23.086931230050595,76.01310045851051,74.82151691115303,82.42599776417536,400.0,398.2190764254875,388.6879963950343,370.0491590514698,{}
81,81,39,0,2.699999999999993,54.110871777372026,174.4608833823685,21.04311680231143,34.603494966264066,46.61970983803586,51.12681157023781,34.701291190380466,144.303486401118,109.76599586937265,82.42380703401102,82.39932956211408,79.88630911403698,46.76013048029279,62.90710277491837,25.048612907781944,28.34491245655852,24.096201807379057,22.546196573905043,22.55599035295228,72.26565619681611,68.70826361447297,77.37576700363823,400.00000000000006,398.3416626507104,390.8036311416865,371.2637462427705,{}
82,82,39,0,2.7333333333333267,34.09480843742467,162.9082224829548,19.3096668334212,32.61528585247727,44.42951522262397,47.39148290413223,37.14288576437743,122.9305800482566,90.38855809084129,73.13776866436558,83.70814071453117,76.47491567242707,43.2349587743945,42.64314945276783,9.600462328610774,24.921748099612955,22.214757611312045,20.786598757498787,21.51884450025949,65.75659129185487,64.3757028747259,78.84065847678575,400.00000000000006,393.9862399902777,385.0814301556104,367.2869783494063,{}
83,83,39,0,2.76666666666666,28.284857265768643,163.55512742718494,17.83942911519287,29.732381858654747,41.651872911858725,46.1091633737612,37.19519782172896,113.02216584718656,83.30374582371722,69.01595824776496,81.50573291014666,73.11628190459021,40.21518637595011,35.51151179064311,4.999193407420762,24.61015079712149,25.316210912514567,22.3487854258056,21.593396154712536,70.25139110132284,66.29472242746948,80.49736959769737,400.00000000000006,396.93843338038056,390.9836477031327,371.6815314135956,{}
84,84,39,0,2.799999999999993,30.069876190617144,172.90832490208842,18.04192571437031,28.56638238108625,43.60132047639477,46.632551690383714,37.617403096124285,114.27542050289853,85.71233467078837,70.55510027547825,81.57266422354576,73.46137273271813,40.01461004685609,36.60753922834044,8.866593937341918,24.35029409088532,22.55240714296283,22.6024680417263,21.84219737990572,70.52226103867326,66.19569158961849,82.91056111823167,400.0,396.9337556573429,390.9112818015792,371.4116639175949,{}
85,85,39,0,2.8333333333333264,25.361837295595084,168.58162437660226,16.410600603032112,29.837455641876563,44.75618346281473,47.76323385095679,37.326645082543614,108.91693092024832,79.08333047011969,66.38980958164098,78.4524948553252,71.04946193787077,37.424624372529934,34.11618930764985,2.309353188851901,22.078071621081108,22.37809173140737,20.93943233224379,20.898827439539616,69.28059566555856,67.77378365581114,76.61024577300614,400.0,395.4166523505984,387.89839911911474,367.00373664430674,{}
86,86,39,0,2.86666666666666,28.44826231909009,166.2584323587556,17.96732356995161,29.982947841602325,44.918308924879085,49.43282062637292,35.93464713990323,112.30575371502722,82.35023302894493,68.04295801103899,74.57527918224719,70.853088628087,36.82339286637739,39.51848889676273,9.223308823498428,21.482709059275635,21.015283642153896,18.0296021746114,18.76707113841485,69.00431848529229,65.58614791016942,75.40094129118698,400.0,396.916798857237,387.8987776193377,368.4062064746393,{}
87,87,39,0,2.899999999999993,38.15015848944016,170.93995797388243,18.3755496658604,30.55825313595076,45.80561656539911,50.35820920606102,33.60680353721627,120.56415870774596,90.03437403507873,70.8781234113859,74.20230902093385,69.07819852036232,38.17948789112518,48.84931292079614,16.410126033475763,20.90993826103454,18.31207607493124,17.06126954695578,16.87632279579043,72.19158211564633,65.21079233559556,83.09381269443615,400.0,398.392882545628,392.2578443476084,372.3955764905986,{}
88,88,39,0,2.933333333333326,56.90179157799712,178.49526968480797,16.98030834501754,30.78490681234256,46.14536148955254,53.80637094168617,35.39187666019261,139.93034772935192,109.16089246214264,80.63339268902098,73.9744477306532,72.02447630982272,37.77551018438567,66.85912648230374,32.87983725549225,22.051272556838057,20.04426416332953,18.511842989597,18.503984121071937,76.50526170236918,67.87560094635359,83.92160652274796,400.0,399.89363430696415,392.1655213803572,370.5750252449601,{}
89,89,39,0,2.9666666666666592,59.74592329773202,182.40255967130548,19.908764211350643,32.19675370925451,52.09159198776764,59.74592329773191,35.35611642151152,147.01856648381963,114.86846423443605,84.7864098358491,74.70856546365735,73.59607614984407,39.11708749011393,72.69626861661266,37.2356717388119,22.01256429023352,21.44020761222364,19.96757900480757,19.9593671007691,75.3302506684355,68.45899314194116,83.38987054241521,400.0,399.8504579672331,393.6554335240437,370.6377791706197,{}
90,90,39,0,2.9999999999999925,62.47188410195602,192.19964430922943,18.73571123536952,29.70593479439165,54.66812430456685,60.91107501147026,35.944038681720315,146.77137594531075,117.09819522106012,85.70932111794389,73.65942817315693,71.25442545189878,36.68043805560376,74.18189428156825,41.374339918473424,20.94010990061031,20.356982291467265,20.35698229146732,19.571746283342748,76.24687937671757,68.74990537665747,86.77565336370647,400.0,398.38175922505167,393.648147509966,373.4173950382863,{}
91,91,39,0,3.0333333333333257,64.2834414490213,193.02223077639616,18.80907201377025,34.5189035529115,54.85979337349647,62.716496435498975,34.62549846506086,152.03999877797594,117.56714910613566,85.21439148101115,70.32841788977657,70.50330205504429,36.12190794516357,81.45021801905989,43.65858268645991,20.17413763623256,20.436691251966806,18.809072013770194,19.570370875189496,74.15088607348383,68.24646354135217,85.56462576521706,400.0,401.4560829833065,395.1428712195424,376.3414139911217,{}
92,92,39,0,3.066666666666659,69.46494017467252,191.5700500385824,18.52398404657936,32.453705206138984,55.59338780192003,60.20294815138297,34.2749327927312,154.39740394152568,122.03746026627786,86.88904086237551,72.41656285580359,70.8247152892875,37.925143201212336,82.41353225913383,46.83448900543078,22.24002738873424,20.12693355839922,18.52398404657936,19.27302354747912,72.93328824388738,65.98249834611545,87.32289822618466,399.99999999999983,399.8838166214539,393.661901200286,373.570200983595,{}
93,93,39,0,3.099999999999992,73.70509022607091,193.047092780616,18.81832090878397,32.969378386015855,56.476738990508736,61.17964469376357,33.081076204758,158.39529745905742,125.49467143661168,88.38947385288952,73.00507174724805,72.63837960605179,40.052782513387456,85.35592977572071,48.95340084969564,24.018335248352628,20.38651431784936,18.883549253098927,18.834641797806,71.7049814284614,66.10459236291905,80.95584885818215,400.0,399.93851451021226,393.6290410420792,374.811347494282,{}
94,94,39,0,3.1333333333333253,71.7473640016722,183.34370474419657,16.86118164744717,29.00425353259101,54.9766255973754,59.55461453032443,29.164499246725672,146.55575783429293,117.55346596723044,81.45757467578198,70.73308658670578,68.13604897879134,40.64576728321174,76.79993673634203,44.88617622990489,26.851665890354752,15.341533709789235,15.265396596100528,15.241630551366711,63.72534248403838,62.43959599618563,75.35912659371184,400.00000000000006,395.4002938392828,389.2795858765166,366.37269858356615,{}
95,95,39,0,3.1666666666666585,68.23005755353729,192.39128160954004,15.58014926683657,29.49614180610645,54.282040202477646,60.461029003148106,34.42186419926445,147.2768655204889,117.83169120389476,83.5352469962329,69.29284091827788,68.68678108517338,35.11780032933143,78.1480484797487,45.286137529195,22.2558638712253,9.301696769715107,9.430002096503143,10.13466720913584,64.51170223489811,60.80800325481516,85.95336009754034,400.0,398.4256944057669,393.7748816438984,375.181248414246,{}
96,96,39,0,3.199999999999992,66.64415555116183,187.5404775374702,18.593341725356066,29.48020440561487,52.68113488850892,57.35040494545705,31.027614824323017,145.65608501160455,116.24969697773577,82.77553007786412,72.71790339326344,71.25344561659358,41.06373271478378,73.53429652163697,40.37358594646821,24.88736577938425,10.956231682431756,9.799551527661729,10.141790924639224,62.70235882868201,54.74042172103998,85.72507425611111,400.0,398.2556307862102,390.4724732225205,371.8700625038277,{}
97,97,39,0,3.233333333333325,49.60688622352476,168.3896067782308,6.198013080532974,22.548584647056657,45.12221632147855,48.12712962445836,25.555062599997697,103.7343818405892,81.18882241570094,56.38889377758858,37.53281662161157,37.6694548618724,12.049784812990652,66.13290828617971,40.94023273811274,7.9250179351207635,15.107364742349022,15.107364742348969,14.265886272218893,34.176639845208115,36.260373009183866,76.6651877999927,400.0,392.5296347520843,378.9623421230728,356.2961787924521,{}
98,98,39,0,3.266666666666658,9.358026984538853,149.2375954099018,10.769151116040767,21.53830223208153,44.64157174607152,46.1791385005221,29.27101056145943,70.83556489006837,49.32646452027052,44.58750130772603,30.02712928425933,29.95229013622327,0.7774955934860373,40.74160064476007,14.82230904159303,6.6648419056587045,24.806763436542123,23.280975420106195,22.27296200163073,51.09019172597323,48.82007090221168,86.20813606742726,400.00000000000006,392.307807213113,373.8940338769905,349.3128923372377,{}
99,99,39,0,3.2999999999999914,76.73608220001316,184.45138854917468,16.323131730015408,26.16797083749277,48.96939519004628,53.86633470905102,32.64626346003087,151.8402245405004,125.69871331041313,87.3230673871891,78.87045563040135,77.87343566326467,45.72615911226711,73.41331536779899,44.17327845548766,31.1767261405106,14.690818557013907,14.78122444758412,14.695015533329638,45.03353904660128,46.30407776578443,83.26397335553283,400.00000000000006,388.57625645095135,375.71934890604354,351.32673482741995,{}
100,100,39,0,3.3333333333333246,30.684431538546168,183.8940358536177,11.914462136843737,25.530990293236684,52.79149214577491,56.16817864512079,17.105551795404928,85.10330097745569,59.572310684219,44.15340197489195,20.398439542070943,24.63370876902616,5.60380860301234,62.47742393641329,33.81012542742951,4.105618128171045,17.357735694208216,18.72272621504015,19.59172159407933,54.568706910567926,55.922840608982426,71.56777768877451,400.0,396.5959922945895,388.1046444115961,376.1912461767934,{}
101,101,39,0,3.366666666666658,33.332283580287566,168.2786149789774,11.22356369145442,23.80877398591956,42.885176649601966,46.0576546494119,23.110732126205047,90.59856382392874,66.834413466831,49.80840087547165,45.73500128970432,43.20761144771007,22.477637318161555,45.78877554166161,19.573827712466027,13.604885745203092,19.11304025043605,17.531766936740002,17.422857634173113,37.37310511034036,38.28726739361491,82.67432735652966,400.0000000000001,398.5139619162189,389.0353345502518,374.8065361425501,{}
102,102,39,0,3.399999999999991,13.46308989761176,163.27210915511935,8.16319730809416,24.543952905542657,45.71390492532667,47.37468498044758,23.089008690868315,69.05505248144367,44.56238493020826,37.36893654270944,33.74680353808981,26.735645098454825,7.504270606105592,38.023430872751874,12.722293894938616,1.7303754205237285,19.86191628524232,16.40782352340283,17.9223858322639,38.55240574223853,37.65583816683761,83.32861302283311,400.00000000000006,400.1598987371904,392.1734565104287,377.64824742149744,{}
103,103,39,0,3.433333333333324,11.834319526627178,148.9620731603272,10.041753105607734,15.06262965841166,35.146135869627244,36.81976138722855,33.51432487220438,70.37192306422965,55.33098095886849,49.2616752239345,39.35019474786861,36.08795455388133,4.320388925464613,32.42371025666898,12.905717934569791,1.7605007279165648,23.668639053254413,23.668639053254413,22.498367570147025,49.86699174718132,50.21816774540093,72.04369824958306,400.0,398.3791255369653,391.803561955955,378.60945705192535,{}
104,104,39,0,3.466666666666657,3.773954392404772,143.45991561181432,6.751054852320761,11.934291665595737,33.79744201603496,35.44303797468356,40.64673275541704,56.103865446733,44.1730036398393,45.43655926072688,37.42270524034564,33.482985218758586,4.945507368274548,20.036952533318527,7.049781356275162,9.543392381703145,20.32336637770856,20.32336637770852,20.19917629891336,42.400657361739206,43.27203073121956,75.96811770414793,399.9999999999999,398.4016205221395,390.1692121378933,375.4278538639469,{}
105,105,39,0,3.4999999999999907,16.475067574613657,157.38426544850796,4.917991484389095,13.216704983693829,39.34393187511209,40.983262369908346,24.80757190653171,59.37907599629665,46.16396587856339,37.60238312748709,29.63930765601731,27.72261390881465,4.171355232438714,30.17172258579557,15.903002467731769,1.3379818670086934,19.7401531989884,18.10699714150976,17.990994931471846,41.62095842355433,39.91723064826317,80.34392036581488,400.00000000000006,396.80264686785,387.1042150537681,372.6476234175196,{}
106,106,39,0,3.533333333333324,21.740221725473724,163.63496658127818,9.91727070189562,16.528784503159365,39.66908280758259,41.35500561444516,46.310102889567005,94.3444718296114,77.8433806205047,66.87879036493325,75.71692221009766,73.04931534219736,28.135617891237303,19.73759627006996,1.8816957536198515,20.222615700597203,19.83454140379129,19.903292186727093,19.81843284182452,32.76575708451202,34.83158058490619,81.0584804169359,400.0,391.7879821176055,386.9465764612593,372.1950505300058,{}
107,107,39,0,3.566666666666657,27.71818679701657,153.8688945088252,14.57382386551306,19.49911982791502,35.66168637789697,37.24421654519997,38.897251381891294,100.60618003519326,81.11129545154563,67.16139077044375,81.80628015890909,76.85868239253568,40.489340993539656,20.986810161725884,0.1529257491424687,27.75152565320377,21.05107891685212,21.11326835490055,20.22218141601365,37.58375175983304,36.79213611721343,74.48843309040016,400.0,392.0378351188477,385.7367175092989,371.4198907684512,{}
108,108,39,0,3.5999999999999903,16.659582066098782,144.976656806368,13.43138445958198,20.06079330920792,35.14342686827792,36.65108054541723,46.67656955844205,96.75474502490344,76.70647627079535,68.37968788816346,84.67189178499535,82.82861324192316,37.07368295501726,12.992140698750973,7.997450453006991,22.56529700309397,16.742672766414916,18.401109831551864,18.37332483255869,44.29814563189723,43.22785486495195,63.65617369438226,400.00000000000006,401.5270336914581,396.50155306990246,383.2609180324668,{}
109,109,39,0,3.633333333333324,8.22415816346961,146.78186212048504,12.903120910278515,20.967571479202583,33.8706923894811,37.096472617050615,37.13151889091976,79.09742042913409,58.1535800694008,53.983999301872416,56.09390417874437,52.035361039793486,17.000188976069012,24.902253100913413,2.6205824903820485,7.592969779825353,21.029514218227003,17.814953587805473,19.338554890563728,48.03057343910683,43.78388591623116,80.90215652359512,400.0,393.558407952213,387.17762288866624,374.537950721103,{}
110,110,39,0,3.6666666666666567,13.193832451739036,140.80796415642,20.79983360199691,30.39975680291846,40.03166695817511,41.630424817958215,48.10616356302412,112.18181066403642,81.84994080263617,75.17124607508435,91.58433890458376,89.19338452744967,42.40798026811524,21.57252069594688,11.909829134220445,21.72532605087622,20.79983360199674,20.799833601996795,21.59948634681666,52.15156878245125,48.61906851848994,72.07049946746388,400.0,393.60010323085504,380.80031493936855,361.6537395149719,{}
111,111,39,0,3.69999999999999,45.00859671043182,162.25694839153684,17.670682730923843,30.522088353413643,44.97991967871487,49.79919678714868,38.58766955651178,131.7660829199029,101.2558040759482,78.69998964602718,82.38018866597332,83.06994236638246,44.18053965252386,48.98158843563499,16.98972272586775,28.24359889043842,22.48995983935737,22.48995983935738,23.292800948685738,53.95507564384843,52.03102584797023,70.84683396369462,400.0,390.37466716995374,380.73644765996943,361.4600621900608,{}
112,112,39,0,3.733333333333323,77.0666181871682,173.77822438718735,21.31147540983597,34.465239412506094,50.84610629269131,55.761807710475246,31.31962815498831,164.0655213534008,129.60154344952372,90.95998953175103,88.96875022910694,89.66367938170765,58.18695250814108,74.58015303102877,35.38793069397275,37.01834139815139,21.37443411541856,19.740318981626736,19.67184062746525,61.65268892303413,59.630266902004,82.03276067670035,399.9999999999999,395.08536832765,388.5557157069575,367.27165809679855,{}
113,113,39,0,3.766666666666656,73.78808480092692,173.7767649673804,16.393304947963294,32.82756757572577,49.20722943352372,54.12273896962727,38.02398723817672,160.86335086926456,128.03580465686957,90.95085936435588,92.23074615637483,89.66220622444655,53.2687129568684,69.66178351217854,32.09798280121322,38.65521102333764,14.844768999074205,14.75397445316701,14.753763499779438,63.30179811759177,59.663763743017455,83.67011800754047,400.0,393.4393187511197,386.88546991417286,368.8530042678403,{}
114,114,39,0,3.7999999999999896,52.04244332262879,159.33538805667553,19.506393963766868,32.51065660627808,40.67081842058428,47.168470180880895,37.52833958003333,141.5054105426427,109.01982254141952,82.90217434600902,91.02983849757857,87.77877283695068,52.017050570044944,52.01705057004483,17.880861133452868,34.13618943659196,8.28862362175633,8.12766415156949,8.12766415156949,68.27237887318398,61.77024755192832,78.17782102589396,400.00000000000006,395.08808686161495,386.962178820141,367.4279561304884,{}
115,115,39,0,3.833333333333323,23.95725429451958,143.460565796337,17.529741355916624,31.872257010757505,38.24670841290899,41.43393411398472,44.7348444829169,118.02422004375194,86.18779268778951,74.05325293156068,88.39935451157908,83.59181246970286,41.41328350679942,31.87022252479801,1.3774418209869737,24.11873619885125,6.570634109109272,8.125863022004784,7.18880584351723,65.6310514705583,61.83183285319535,76.75855944692243,400.00000000000006,395.2159869333926,385.6674799594216,364.9686569660483,{}
116,116,39,0,3.866666666666656,6.543787793791668,152.37002554681993,22.219423277413394,30.1549315907752,36.50333824146476,41.26464322948196,44.46717862436379,103.21043041816694,73.07564832304779,69.74010492788454,81.3408123836823,75.54703253609455,34.06584777254113,24.590694950691955,8.199820041480052,13.96730436782309,5.018856132284935,6.543787793791638,6.389811662468162,63.52121415350712,60.13785708668581,65.38011313812986,400.0,395.23930193422177,387.282074903502,366.63422495975306,{}
117,117,39,0,3.899999999999989,16.12064700547895,162.82651507808546,22.62640629782527,33.89171947022829,41.91368221424554,43.525746914793366,45.1665893113569,117.69176416109728,83.82736442849087,75.65777514116485,83.20451272102014,76.07319188867984,34.65268035520751,37.95870530418097,1.9732295506961464,13.15486367130734,8.060323502739475,8.681234092214407,7.416919846256917,67.81678403181974,65.79162738768417,73.41534505682652,400.0,396.7775603942748,390.4525866903976,374.41916208937386,{}
118,118,39,0,3.9333333333333225,27.429093377721085,169.39853502334586,19.395297929185705,32.25407862864537,43.60782652242622,48.34759211402136,46.73782517799634,125.79905291972396,93.54500975587206,79.80958732566148,82.00773273929201,79.21777894506863,33.91062020796903,45.15497943923288,9.747929468907614,16.173277601058203,9.66415094061288,11.389311107529473,10.618733228922736,70.07011226219089,65.09892186521114,78.66048968793224,399.9999999999999,395.09255936081206,388.58086287292366,374.0274738104348,{}
119,119,39,0,3.966666666666656,51.23436446505916,174.23582640948504,17.65000006781522,32.118516564248544,48.17777484637265,54.70519896215225,40.07653068221466,141.0643052164231,108.954348750814,83.0917171330874,75.78741476315645,73.02613513891663,34.43999678122941,66.26648884165695,29.97297255730632,18.91940978015066,16.059258282124276,15.159540959205817,14.823933884871394,68.61822087636864,64.15964093264205,72.87800298788439,400.00000000000006,394.8244811185348,388.2802729727943,371.64071485562187,{}
120,120,39,0,3.999999999999989,52.59488673105103,172.49134273061415,16.186726315208908,30.81860873583696,46.70907857561296,51.67676119320984,39.8077541776371,139.18919528340447,108.50262485475456,81.67908909495281,78.0834264876579,70.47671786717126,34.86191772199152,64.29356279397712,32.12731029983718,20.773497205322315,19.63306342111236,18.0973101869959,17.303315001892088,68.54691579394193,64.34115880923616,73.2885204549203,400.0,394.4057624607151,386.7264996963616,366.8823445491042,{}
121,121,39,0,4.033333333333323,48.8952462442751,173.68866591920295,19.09904395466244,35.419274538836376,46.49225029466402,52.65711143805087,40.36281991563291,143.5092802049298,108.1431159644856,83.58504858053163,78.32144143290839,73.98316178875132,35.79080706429647,67.02814204176923,30.058080391660155,19.00579653630757,19.41898319582942,18.375579924209884,17.51236098420179,66.4169955045964,61.16629990353312,75.52008112571207,400.0,397.1772173453789,388.5636564491648,364.957639449655,{}
122,122,39,0,4.066666666666656,50.23266123402772,168.33861105277077,17.820000106063336,33.41135787164225,44.75514333138603,49.34959641084726,39.07293499268721,140.07960537784058,106.66839690611562,81.64276207878413,80.80179548402612,74.46220115431231,38.56802183036109,62.08921058836063,27.30338210980836,23.404747229494543,19.33222056932906,18.293479148818378,17.470541924946133,62.99917957038076,59.376554239115706,74.64464703474404,400.0,395.75154864528463,386.698108270582,365.1545037877302,{}
123,123,39,0,4.099999999999989,45.04740050971781,171.10595869331925,21.34239445047474,34.19725455518843,44.61931920750683,50.51038982435112,39.573900017245776,139.93315363060327,105.73631321748874,83.12346619800849,85.11029244974702,79.75749807955333,42.86976296321836,57.0145867337302,21.544781849113065,22.406745515811053,19.786950008622945,18.72377547645673,18.66151338400869,64.27663062565966,60.00129083883826,72.85133542475896,400.00000000000006,398.19183480463033,393.44651470819457,372.6293318465671,{}
124,124,39,0,4.133333333333322,41.51846355586923,169.93655321363266,19.693936468086143,34.0365017498582,44.03698068720272,48.71074159550991,41.33488802045108,136.14600699943244,102.10950524957424,81.44948779293486,84.04018716825271,79.1388640257594,40.260868670481386,54.2471443520966,20.165443786258606,22.721133710558547,18.63575965549781,18.63575965549788,17.58349677369506,63.507144146307326,57.78309890489527,71.55870983696359,400.0,397.6099835308943,389.78024637142056,370.8776938504226,{}
125,125,39,0,4.166666666666655,40.65424865729644,165.4485264517983,17.710561466352246,34.733268659082405,42.65268018811896,48.77520584107426,39.9357075335541,132.82466975040546,98.09304774095956,77.78024556819639,81.50739794300523,76.08290387638192,38.86387523216285,53.77248473139878,18.88073902544079,23.150340806912027,19.21349487297049,18.18113271437885,18.093312467382475,62.2241964545571,57.77961099351734,64.90569028590674,400.0,395.8617538127913,386.6797253789648,366.6260626625081,{}
126,126,39,0,4.199999999999989,44.07551604660807,168.12808479236656,19.421376722771143,33.565444058401496,44.96154468149842,47.75349511707845,41.89616718170472,138.61636239839092,105.0576892575724,83.09110408905815,81.16730305797796,76.49887922255641,36.93697979674107,59.57798037585496,25.171867713334905,19.36626371287457,22.86136868358105,20.94808359085224,20.94805567176303,68.3419628507761,60.44155328313974,72.03778440147447,400.00000000000006,396.2257026948175,388.5861734387405,368.2872606901444,{}
127,127,39,0,4.233333333333322,43.650303401956585,160.61888209392384,17.07062727820788,32.00633185695416,41.4103137922737,47.27433005866924,39.95009355511373,132.440245455754,100.43476338559772,78.67694633439237,75.18830952718463,72.94651403374428,34.11811231308934,58.27408847274421,25.024986772280727,18.40035514559748,23.24268653822269,19.97504677755681,20.86884905972272,65.38990001091162,58.639324817181205,62.97116387820674,400.00000000000006,392.8384655535823,380.0777249807396,356.37283444556846,{}
128,128,39,0,4.266666666666655,44.145700521605015,162.13803995184733,18.72943451943441,33.85820670821222,44.84135697393685,49.29829309795182,41.57809841173605,138.1564200061249,104.30306204803986,82.20653846154505,75.89067026267026,72.73273616323286,32.757300539402195,63.65994136961115,28.47153283302293,15.965111280489168,23.50647302002331,23.162577135978125,23.15818339587429,66.06598639775393,61.0784555581663,62.815870859754206,400.00000000000006,394.3863447836151,382.8732963045903,361.9504058510856,{}
129,129,39,0,4.299999999999988,44.242488767248354,162.79793112571812,16.966219951976164,34.236469830231975,43.45472567684634,49.40637826243645,41.66925725970782,136.96269384359198,102.79905333013936,80.58874141878653,73.730125127826,72.42963870550614,31.43118299039827,63.72797637017516,26.925038953825265,16.03242974777072,23.558010321685533,22.0952040633751,21.8887603247141,64.99947105696549,63.425633985368336,61.92089220280742,399.9999999999999,396.4145582782857,388.0838777155977,367.28633459902846,{}
130,130,39,0,4.3333333333333215,42.66924586347924,160.0594450336178,18.352736590853016,34.03524372180325,41.72541753920654,46.15384615384624,41.17637496498649,136.15769058190278,102.19484811989558,80.69150484304771,74.12847500735938,71.6827788201582,31.822871769155768,63.09813816306291,27.66436478418393,14.719467793340982,20.5189832951476,20.12704301975737,19.22794813843416,65.9020423776825,61.57884204677123,66.95809462678247,400.0,396.74655494097607,387.2836439182644,368.65092537418695,{}
131,131,39,0,4.366666666666655,35.108932372351745,158.06885464840195,20.00216798251797,35.79389016036147,38.77132980737386,43.25419954997731,42.82433348388783,133.55670143565953,97.90757323036314,79.91684628329017,77.03027288812484,73.07154366046962,32.49456907700335,58.061362005610135,19.46375203597165,15.010181654859366,20.684254984852192,18.50056008402725,19.381278510395305,65.97882046092059,62.8448264890269,69.77182274157,400.0,396.3875323609847,386.22220823209534,365.35995234135737,{}
132,132,39,0,4.399999999999988,18.59201854539697,153.16892233465282,20.389458282413987,34.478993328343755,37.80692861555261,42.2694312024288,47.59721623308752,120.84812054508043,86.45113021534792,76.82512843186623,78.03458689457409,74.83115637172637,29.27216360418516,44.145233888835264,6.799117844411512,10.125128616857978,22.719136615197066,19.33106038932025,19.99692471787841,66.31591503293203,63.10431249344447,70.11674330213236,400.00000000000006,398.8597884959664,388.88897693585335,370.81199105808753,{}
133,133,39,0,4.433333333333321,7.611112726123549,145.1309678451195,23.035407056889905,37.31774440921448,34.71201475194187,40.617963658455295,47.798757478723,114.93536262379271,77.61842462131754,73.9420828544861,78.84391618355983,73.45433824462805,28.58589867609942,38.58466317819023,0.272324073837467,7.084490458188725,21.20210665417349,19.25476139427509,19.02203978446539,64.95945295626626,61.72408037754087,72.36563368374792,400.0,399.5913915886028,389.1802409636867,370.6729110030626,{}
134,134,39,0,4.466666666666654,18.779149290666293,145.08981532805146,21.737376602217097,36.08730274465773,36.08730274465773,40.51074182035035,44.44476457441729,120.88567171657922,84.87019693894041,75.25569031056386,77.49700547677605,74.53281568938917,31.86705941726097,44.71726637021061,5.835496243561352,11.384265682075691,22.569728559030214,19.20393336837193,19.89318650227188,68.74174190858173,63.79873332580041,71.54914994211465,400.00000000000006,399.20400226825245,385.5312187329645,364.1728626896262,{}
135,135,39,0,4.499999999999988,23.176696355293664,149.56656651546595,20.21406246594989,35.66140787290612,34.54977902953878,38.62782725882281,43.38609156373133,122.43347972835345,86.77218312746243,75.09697879491125,78.056071676074,74.09728525397816,32.74596162681189,46.20583546193836,9.433108252246823,12.464179068356655,22.52370025485908,20.60769729854241,21.129522681166804,69.08282245265661,63.15663914200377,76.19351637030745,400.0,398.3898727055176,387.6811836335007,364.546454717446,{}
136,136,39,0,4.533333333333321,27.09832513062865,149.82842749519065,21.261664602897973,38.17869347663766,38.55229892588088,42.52332920579583,39.62418378080764,126.1183553129323,87.95289212940321,74.27608322113247,76.65713666346221,71.83110888102192,34.661106821565454,51.656075518999614,12.975942249474883,13.94274582840751,26.31389615721879,23.0530744985539,23.56683600050883,66.53366447744929,62.62649960060617,68.56680807457569,400.0,396.5895099270885,386.4656245818248,363.5318539701471,{}
137,137,39,0,4.566666666666654,27.001924867982392,146.07084092563778,21.18602782305502,35.17198114556972,38.04287563325079,42.37205564611016,41.27265491038987,124.5496567698118,89.39619619930109,75.82693881887008,82.03142605580024,76.26365288564193,37.88396170222063,45.26482286676185,11.04375122007832,18.707886373876704,26.67560563225529,24.40377767418241,24.393037963835127,69.52015819693008,63.03633133170416,74.867372286852,400.0,393.36831122678126,376.86678414593786,350.56002520474703,{}
138,138,39,0,4.599999999999987,32.455330342647784,147.8356460622568,19.881467540208824,34.74455855721368,37.58056490061475,41.85713515802974,40.77109473619578,127.63873703684791,92.90803113895392,76.68227554181533,79.73352844049873,74.73765312938235,36.48272026954123,50.22739167123245,15.200131062955393,19.113433072305043,24.97778942605618,22.359933261909795,22.48143890002393,67.26388781644403,61.7788497541589,69.81121826875273,399.9999999999999,393.334325437114,376.4986301901869,347.53166761989417,{}
139,139,39,0,4.63333333333332,38.885111480419454,148.07009311554964,18.28420224934211,32.284159975431045,41.23064222947328,43.77539744703181,41.23064222947328,130.51673963136432,98.28575058215417,78.74182072431176,81.35151281869366,76.16434705084828,37.5505695802724,51.53336425881196,18.02620650378572,20.47480649357624,25.259324189658457,22.61196111023845,22.52067622188781,67.0143155100526,61.18278132384131,65.44226721316514,400.00000000000006,392.592385501779,377.5900653165315,347.8806731997824,{}
140,140,39,0,4.666666666666654,33.37039767725906,146.55686038090792,19.568435655345947,35.591472444075514,36.98886234941903,42.60592917092026,41.19809839995428,129.52295795140424,93.95713426298887,77.1670995890388,78.9140960790537,72.87239988441888,34.79030278610742,53.34405254580281,17.789438795313913,16.818885189750176,25.936533145682205,23.72764829605028,24.405379206574253,63.94330671323144,59.16333020582943,67.35820716471763,400.0,392.9020958471546,378.1181701295872,346.7983297258607,{}
141,141,39,0,4.699999999999987,29.343505279501432,149.21451068096746,19.35799347613832,37.66866998324483,40.13109922407528,42.69817216383881,41.54868319322677,127.79010698512816,90.2038527057462,75.34910541834961,76.53935902469038,70.50336107524731,32.060186969435335,54.04961800183207,18.124132880279944,14.678449558873126,26.157246102450536,23.92956423381897,23.720342209075056,65.43570504282718,60.76345529319127,70.20225214221695,400.0,393.7860247942349,378.4987092157493,349.4875545267225,{}
142,142,39,0,4.73333333333332,30.85556863359476,146.75779788368797,19.78395710361509,37.76219632217365,37.39624765725804,41.37152771877198,42.804186093271845,130.94948871622725,93.28389087897573,77.71155884039774,73.41699381822934,70.15794073598556,29.162906029042915,59.00009890268802,21.28017172667024,11.10967848725454,27.598059579651427,25.10934763873764,25.01283104500351,67.16378605697844,59.95533859920778,74.12475523631069,400.0,395.1253384153581,381.4821031730353,353.47848777869643,{}
143,143,39,0,4.766666666666653,23.537557657892467,149.04002998811958,19.66637536433014,37.17399101672624,37.17399101672624,41.12564484708079,43.76089511246624,123.9179898853122,86.77813538713518,74.72901717898264,72.26462669975331,68.43918396238769,27.0076257258022,53.254189685959886,15.555458204677734,9.201196478821885,27.43403638503607,26.38521131140158,25.54187714011664,67.2150422864305,60.8044056149713,72.71313585204345,400.00000000000006,395.22049152404014,382.8388951113741,358.4900708884778,{}
144,144,39,0,4.7999999999999865,22.7283627089908,146.29640856386203,20.962185539368512,37.64093128432088,37.326417420785205,41.92437107873703,44.79170090494216,126.08800395401576,88.45167517453577,76.94499804758448,75.86015038549544,71.2832018549301,28.91079426486897,52.34983864285073,14.245554336482884,11.331510981382507,29.171239542131488,26.99597943683286,26.756936132838064,66.6745789400702,60.48223681048171,75.02517049218619,400.00000000000006,395.9280989630941,383.97814035621633,357.7708763999664,{}
145,145,39,0,4.83333333333332,22.161505654593533,147.92793496395876,19.70503445394992,35.83992114289038,35.83992114289038,40.07024999186739,45.491451259384654,123.04084369905834,87.22587601951143,75.94855428633241,73.21418311805166,69.41954557839654,26.116034831743946,51.50662425149517,15.17855015862051,8.314720491303092,28.865998700804703,25.30120782968448,25.2789824332906,67.07579886272708,60.15616570217964,73.30123925239323,400.00000000000006,394.5930074334492,379.9602853574903,355.18142709585214,{}
146,146,39,0,4.866666666666653,25.101634619717625,146.41581604813229,17.778609847092444,36.95326477045447,35.23622057893581,40.88145505297147,46.35202943565171,126.00100813506592,89.09037034226681,76.15224840552924,73.24567403890592,68.09688516088761,24.830449589152863,54.94809635949673,17.52249118164309,8.553633136062672,29.10341903403486,23.397799816290533,24.193771394559235,72.4705875411396,64.22145267205656,75.45563714481065,400.00000000000006,393.22858926836847,379.7696326113527,355.4705073445013,{}
147,147,39,0,4.899999999999986,34.2566863792319,153.55369161510214,17.915437160895625,39.50546855991483,38.13611266592079,41.943746059460366,42.70211249146461,133.90216341831194,94.54531426436763,76.88223489345137,71.30753832003052,67.80523421838757,27.50523165283676,63.75838842756298,24.183135592217923,10.894751349742023,28.22036795476814,24.449813499092887,25.009742041263507,69.88154425627442,60.70660442848009,74.79829111055409,400.0,396.78244533595534,383.765328661211,358.89052261332426,{}
148,148,39,0,4.933333333333319,39.40546897925667,160.04298256759986,19.26142284340517,38.52284568681034,40.26875129850061,45.881652476778456,42.26382263942673,139.330591555632,100.87353762046172,80.6748039432158,70.06198567543845,63.01311456981125,24.65524422596081,72.17190561400616,31.767333906526343,8.05246598277381,28.765611955703143,24.922206848312182,25.5007926657612,74.7401602208771,63.740128181602245,81.73204795149884,399.99999999999983,397.4700163037248,384.82245451725385,359.69403036429554,{}
149,149,39,0,4.966666666666653,48.54551560736607,163.70720897444423,17.54005810440468,36.4574292813577,39.93207755861864,45.06568732902673,40.33291146995952,142.68648130328813,106.30494572447932,81.71809815431698,66.70493870248333,63.38274324949589,24.86900596236296,77.12239444435102,39.04370656177605,8.432048459249017,28.25404065121516,25.681609269452924,26.245344078600738,71.37183231501331,62.5838343429441,74.02332101976049,399.9999999999998,396.5643581875998,388.2398417073563,359.5900644521247,{}
150,150,39,0,4.999999999999986,41.462188137063855,168.22232198454253,18.132301836168423,39.11535005788438,41.97726612395236,49.1681067328259,41.46218813706397,140.03082935847894,100.9776670795487,79.86401206157461,68.41397449002272,61.050964218316494,23.5759454164247,74.79896071915891,34.35806412963598,7.959366395224606,27.813681351107984,25.305525272254187,25.015151527848843,75.02955175358602,62.323190615155454,80.1974543238754,400.0,399.26870847170267,390.7412536693865,365.2263393471953,{}
151,151,39,0,5.033333333333319,54.05105038647277,176.01768181336251,19.840962234204326,36.45775862694096,42.92153349733641,48.71386523044418,40.83554933392843,151.10426657771475,114.66441476153835,87.33772315694182,68.44263798814143,63.94588529529369,25.49349476394912,84.34781880913988,45.16976183794429,8.236115822790907,29.63111422748769,27.13781303363596,26.81000437067348,76.38928031306813,65.53997222873704,78.53748439673424,400.00000000000006,399.291662652183,390.3573313013128,364.8837999043196,{}
152,152,39,0,5.066666666666652,58.832172234211335,173.67331640295552,18.561952868698675,36.78876308567174,44.4403782642252,50.33316167268892,41.20630029101707,155.17713652989798,118.4274156592661,88.77989405647816,70.21414512449905,64.82091888383115,26.40007830344507,87.11711366303598,47.178936837097694,10.471978648061054,32.77458035616746,28.865481895140952,28.558154984295584,79.24740598532651,66.29108405439217,85.41820784956114,400.0,395.69819106178727,387.06459500157047,364.9499401723593,{}
153,153,39,0,5.099999999999985,57.938349787458655,175.48695601020438,20.23017756246124,38.98436128843445,46.39034665779151,52.35134225427867,41.19247382346431,158.053660616972,119.24067722601352,89.74615368654975,73.44024080367922,68.8825393003209,30.332975014061503,86.25827915038462,44.6662701432972,12.28511338906992,29.79088093870817,27.670168908486325,27.584832135509487,79.96260595682742,71.57898050387848,79.60297521679905,400.00000000000006,399.0763740439297,390.1914270631186,364.7047125659759,{}
154,154,39,0,5.133333333333319,56.9418409725836,177.94068344310907,18.61390422997188,37.227808459943766,46.81063599968656,52.58132990233368,43.27644829075649,156.01294659562802,118.80350656808466,90.01486351034998,77.21376079749064,73.32592978959383,32.12849258989888,80.20347889288541,40.93399074536103,15.251953060753408,30.060781697082827,27.710447496055306,28.28856093733532,81.02974277238735,74.25996721859576,80.32416581952403,400.0,400.0234099521759,389.38283459782247,366.7822606361841,{}
155,155,39,0,5.166666666666652,57.927625215768245,172.89688530574352,18.487737885683483,32.487105406990615,45.00416561183413,50.72189993407631,41.47926515845565,150.23352827514617,117.81216948622904,88.72908307785815,80.9044152836974,79.29853169331045,38.65361802061523,69.91214210749854,34.735262060071136,21.11736921358909,29.506900527433768,27.522624145511223,27.444550559713942,78.98538439318509,71.85526125186675,77.44419901246228,400.0,398.8870358100964,388.8636102878114,366.5429291540532,{}
156,156,39,0,5.199999999999985,90.87332094276964,160.9563034375637,21.34571197843205,38.44221584564934,49.878571316893776,56.95533984633832,32.93423373507941,183.364555461502,144.94067683335064,99.51729580549228,97.86267088728027,97.0473484638137,64.55435188153842,85.77671496295079,43.95547065336564,43.95547065336552,21.34571197843216,21.298434595961623,21.98972536232202,58.5593340619306,57.45625078312264,74.32445048549313,399.99999999999983,389.98565276789526,378.5560009546765,354.3770519814755,{}
157,157,39,0,5.233333333333318,72.30712926684325,171.35040902095628,21.735943336720105,34.82076197538709,47.80071080032381,55.11338438081232,33.286045958237814,162.09687292972694,127.3090172513286,91.1125092010061,85.87689480110657,89.45009146882694,54.39110353621732,74.37216292925405,35.6598618117107,32.8798186644035,21.73594333672011,21.73594333672011,21.735611120011413,59.86306166189655,57.15512338008159,75.68321196865507,400.00000000000006,392.5964702465252,383.68548294869663,363.2575496832931,{}
158,158,39,0,5.266666666666652,54.98732191311325,171.08284225260073,18.86049581774931,31.85660673081408,44.93578175339847,49.26717263404351,31.856606730814136,137.45117963661028,105.60688904330448,78.0970129797899,74.8628529039126,75.82535199332875,43.49190800650047,61.99146677595729,27.33334278503071,26.069043133678747,21.746174290048952,23.189704071910484,22.3781038289261,62.57059758399584,60.23776080795318,68.37073194618247,400.00000000000006,395.581428010902,389.89391223764176,370.8660409759558,{}
159,159,39,0,5.299999999999985,50.16776861176925,162.41476196894567,17.706271274741976,31.021086328160425,45.76499335687365,51.72753807859877,35.44326927331214,134.27255716679392,103.29712134551062,78.03438003123449,77.62141402712598,75.4999023981768,41.2642109203249,57.54802727840445,23.34472529107086,24.67269440232144,23.608361699656044,22.181968652422384,22.17870363241167,65.34579712068728,61.612908338452144,69.60026213541343,400.0,397.01430265305305,392.5583456014149,373.3538733018371,{}
160,160,39,0,5.333333333333318,41.60092032441746,153.09685443031145,19.37177284554172,34.20446815368655,41.627443068791386,49.05216225163997,40.14267757716144,135.21115425382396,101.0308065021566,80.15462159788422,81.89711337175129,79.70286447132617,40.78721485496192,54.33992865170581,16.71501368265058,22.32970939844438,22.335677316072985,21.011637760712027,21.619805342424456,68.15078937791128,65.82746701275516,62.84201143988072,400.0000000000001,396.9726225378998,390.98022843921393,371.5823633049554,{}
161,161,39,0,5.366666666666651,32.691173500348725,157.6241259863051,20.856476613223936,34.20942421140307,40.14849405195856,44.6036321199152,44.57887295502113,132.28404463281024,98.08477714619114,81.70487736495818,83.93521256405984,82.30016256044803,38.59035493961778,49.122934331817305,12.945468717917947,17.183899309805042,22.28943647751057,20.856476613224,20.85085611402235,66.10046810718597,64.79877781304822,67.27981060530242,399.99999999999983,396.97730410621097,389.5036064516867,370.1508258053909,{}
162,162,39,0,5.399999999999984,25.347737201495924,152.2033228597553,22.41529681595278,34.423409161004216,40.28577330098032,44.73130094381657,47.71338767340426,129.79787275738877,95.43842341219772,82.74054111390967,85.32743442334663,84.75078947511304,37.36979622858405,44.75405514902036,8.345333834158737,15.85773607642443,22.41529681595284,20.87460710711444,21.63219451637508,66.82674233418487,65.81761367477594,68.84681832200808,400.0,396.8977073868608,389.3450852081255,368.3963541101541,{}
163,163,39,0,5.433333333333318,20.493032426205456,146.44465869150633,20.54524405840862,36.59470076108123,39.549374718069885,44.01111859353606,45.401032289390734,122.95819455723272,86.36349379615149,76.00481316270407,85.90259715107459,82.34384335750326,38.89209502974484,38.6537856239255,1.1597724416549229,19.461934808593696,22.1511323899656,19.085460897544905,19.81145527046237,68.66488346346296,64.34353957126905,64.82118832305642,400.0,394.0309658129315,383.69120559444536,360.1989460060494,{}
164,164,39,0,5.466666666666651,23.73368220973892,148.16503201608933,19.24606346513788,38.52058691710634,37.129908927794425,41.47948824666808,47.467364419477725,128.936641550207,90.4176004202359,78.54636782204409,84.43804064992776,81.60940204341853,35.55662293294699,45.90181244327016,5.569875458323168,17.392949184406802,23.871803737854183,22.20699630592818,22.907205344287377,71.77273183314173,67.14838444834277,74.39251693108965,400.0,398.4215431266201,387.9528286535284,362.74146421799327,{}
165,165,39,0,5.499999999999984,29.37288280490508,148.39847837834938,17.623729682943207,38.212980365683975,36.74546464917304,42.61599399509302,48.46525662809345,133.6546859920171,95.46186911594174,80.60784365804307,82.78260073034221,77.62937201554644,31.84128017811861,53.25790960749873,13.450399718893324,15.38877015289927,23.544156641169312,22.07856263466765,22.07851201660185,77.62937201554638,70.11227691781687,77.26799085231352,400.00000000000006,396.805795798652,384.8856507344461,361.2983984992957,{}
166,166,39,0,5.533333333333317,35.408929086178176,156.41727152862748,17.76583202187361,36.88430113143561,38.38803523097564,42.78578931246537,47.30402632695268,137.21753208744585,100.33614681490783,82.42583452988958,77.97462003920896,72.61435470184028,28.305962571017403,61.64305137974054,21.48808122085541,11.566888359585164,23.789659406999544,22.1305806788614,22.09933954880097,83.4445984097988,73.88389122911184,87.65746421099912,400.0,398.39416454842166,389.4982199479604,365.9993350135933,{}
167,167,39,0,5.56666666666665,45.41441415879134,168.39160616264533,16.106414271519064,33.67704802226701,45.3908038560992,48.3414228675107,43.9509812598267,139.10085052675535,105.42380250448834,82.59510364299558,71.68571973915425,64.9661716824404,24.522397731678097,70.61059205008007,35.186715765215695,10.964721358426004,22.01204539423648,19.034853229977053,19.0123683251727,80.4527536155021,72.82409023346816,86.99484784881452,400.0,399.7989552246835,392.4135521766245,369.0094546157873,{}
168,168,39,0,5.599999999999984,44.29026340296158,172.64245046574356,17.706271274742065,36.91756381309026,47.21672339931213,53.20072414863145,42.81558806761534,141.6578550030526,104.7621050422239,82.5438375516211,69.82931894322542,61.897036326142825,23.15816505603584,75.74304852852572,36.81493791168919,9.241188098629207,20.70994667819783,19.18179388097055,18.431123874185744,83.94342022014212,76.50000591544404,88.83822508023322,400.0,401.3855442717895,395.44005846923926,373.3334629265823,{}
169,169,39,0,5.633333333333317,39.99972565439999,174.8701034841296,17.839277021970588,34.10603106472921,45.94949942238097,50.56572182517163,41.507643389462295,133.34064899021635,99.25857847573336,79.24873281385067,66.68132510312432,59.46300112334313,21.61970325540301,70.26697463705477,35.09234052059696,7.136030383920343,17.839277021970478,14.814713205333344,15.55348961767163,82.52872042029844,72.88861347661685,84.91040951293152,400.00000000000006,400.0082302551045,392.6597744457473,369.1272423668082,{}
170,170,39,0,5.66666666666665,44.4664200136648,167.05002264253815,18.637513976579204,35.84137303188305,44.65092877307285,50.50455171290509,38.73522294122956,137.66073701312865,101.82987604815708,79.59195670172221,71.62821031933152,58.49940556893307,26.337246964620817,72.59523666576479,36.37156740643309,11.661200059929229,11.469239370202526,10.035584448927224,10.034320441812326,79.25065328533407,71.4689353916836,76.03779176741185,400.0,398.6488838847027,388.8404114366063,363.3516306230032,{}
171,171,39,0,5.699999999999983,48.69770278891925,170.878594796775,17.700130642657303,35.4002612853146,46.104414135312126,52.37846526797903,39.85259960153243,141.63177120110615,106.24174847997686,81.88449931477533,75.6726244425256,62.06529681824907,29.016748020342902,72.7327697088856,36.32438692967651,14.836721421980542,10.325076208216815,10.325076208216757,9.57934483987367,81.64396574565939,69.35002776861938,75.24001473267312,400.00000000000006,398.8670538407021,390.5187079179044,366.0434994858696,{}
172,172,39,0,5.7333333333333165,48.53455931885914,167.15804002448576,17.616606585441083,33.79706169640107,45.72217450405566,50.45055619802087,38.42255982425272,138.2775818966053,104.48972891282595,80.20817360685248,77.31153869039542,65.64660565740917,33.129036960617555,66.79114881790372,33.050643593460336,17.293576794870432,8.92980287074382,7.340252743933769,7.32977982919482,79.80444776599302,70.89896125693934,70.527568588705,400.0,397.809194429206,389.73908159708327,365.830420484306,{}
173,173,39,0,5.76666666666665,40.712503652062914,168.19994287143072,17.46420026676989,33.38894037496819,45.332741480183095,50.07290979484304,39.26600242836266,130.81880322594895,97.44184066914656,77.08468727898367,74.71513668087766,64.70515395620475,30.444424021211603,61.10781641452559,27.44924950281348,15.797003987374184,7.395224724339104,8.701937348494466,7.957154236214478,79.63410475417379,71.21164272724224,66.77788074993647,400.0,400.7565217297617,391.6220943065314,369.8323373110127,{}
174,174,39,0,5.799999999999983,36.0044145498969,161.59433443023562,17.32816553042215,30.526347499685016,43.76626173451051,48.266393372395335,40.93010395410579,124.59005449847392,94.0775168441674,76.04223643124647,78.39834222570857,66.19049955689877,31.57024952213385,52.19891622838827,21.416648843836583,17.010221368004295,7.749391210278549,7.19512910729474,7.174165730225354,78.64140139252487,71.56132308171237,72.00882909979383,400.00000000000006,397.25975248300585,390.1273049262919,364.6390346278387,{}
175,175,39,0,5.833333333333316,30.685090147055167,161.4882253621762,17.51585733006963,29.41772284548625,42.80616725099052,47.11239061338716,44.24032048091197,121.78853517842784,92.37650117463072,76.95555321245888,77.27934936903307,69.10735113168528,29.09539749787814,48.46149143393279,17.25370948602324,14.200774295466772,7.833329534844715,5.818451108101086,5.85916854753242,77.52605120261342,70.12499619520418,68.36680052018815,400.0000000000001,396.6161185910091,391.7204959793373,369.497415164534,{}
176,176,39,0,5.866666666666649,28.844565358270525,152.7243600209088,15.946205321413371,31.89241064282651,40.84221351544901,44.78584809106848,41.7534874978212,118.41493596347912,86.53369607481159,72.04431992235106,81.37422772642776,67.39719386961974,32.65269644212356,43.87235627275845,12.645887775207257,19.04806654862045,7.680709582025575,7.272588572424223,6.532916334999015,77.5234122760827,65.38462777005662,71.32785945734412,400.00000000000006,400.965105278532,395.5173279980575,370.8553951059406,{}
177,177,39,0,5.899999999999983,29.18286776436873,155.14766018273357,18.81441736767193,32.26645958836378,39.62342257890168,44.14730913312839,42.46442611980687,122.65499495581336,90.40368716366056,75.77220198978284,76.17058370371444,67.24683331164749,29.3208941453629,50.83350669766719,17.688148098561328,14.182389015963508,8.414063238233416,8.777425970248673,8.047310621417523,70.75259239424531,64.3784849713403,72.27975035441254,400.00000000000006,397.6531884732816,392.5516839481601,374.4800316674402,{}
178,178,39,0,5.933333333333316,31.58915492756255,156.9494641537459,18.712749320905434,30.18010907714736,40.74004218633559,43.52637231070037,37.23572669053003,117.70672448319984,87.5280977628672,71.72980527698195,69.16530320279224,63.52259597851895,29.108503198900507,51.3502410629992,19.89395427505167,14.034528565635696,8.29571850118274,5.86595880700096,6.5256343859661,69.52650067803023,64.59013518311116,82.82288084911406,399.9999999999999,395.1174532236191,387.6365813732013,365.7677597097823,{}
179,179,39,0,5.966666666666649,38.18062048662192,153.25185088887716,17.09801362296186,30.045047926034567,39.97505425764539,42.99844256925969,35.83203547438316,121.0726412610224,91.04006116609716,71.89749389940727,77.1879881224034,66.01020612076815,35.872131560803496,49.36450478499967,18.073167002644027,20.774867558594792,7.568569443213746,7.027240311370281,7.758316223357269,70.67164767700575,66.40538023193699,78.81794836414814,400.0,398.6372014439719,391.3207592790823,368.7339707377595,{}
180,180,39,0,5.999999999999982,46.954029977909904,164.5192226994635,12.831535476779342,29.21232796979857,43.35204883328519,49.18868657646827,36.12670736107111,124.86549204029896,95.79212397621735,72.34034940570263,75.14342131953316,66.46241712908835,34.74024293783634,54.03316626949811,22.887021328266428,23.39814587405885,11.6849311879194,11.424267962335575,12.12501005852323,74.44569574908627,65.90261405512507,68.07530645495792,400.00000000000006,400.8399288415265,397.9845062179669,374.8831362946927,{}
181,181,39,0,6.033333333333316,50.8140001974324,168.51855657533568,17.597730514719565,30.92316267628542,45.42179182909633,50.524929992315805,36.62307613720586,135.8347389122052,104.96028296293784,79.57852495069938,85.30559473301798,73.57814598137213,42.82672139460544,56.39279558612816,24.79659714860736,26.75117194054837,16.492917297411626,14.751713689717716,16.158370419817288,72.93214244844239,65.64389746154376,72.45629713765186,400.0,398.5693558866348,392.6588126660117,371.596359322888,{}
182,182,39,0,6.066666666666649,50.999221427511706,168.05324145457055,17.697766560219954,29.67114254027843,45.9340970625147,50.49880813218541,38.074384410182965,136.23459383515927,106.68368380914872,81.12528616367774,79.92169566056589,70.48193123684155,37.15520853463295,60.94768701253156,30.41017233630589,22.10416551960861,20.573235736649025,20.82881368183568,21.40172874134192,75.70707499096568,67.20389293826366,77.44395564752044,400.0,397.33517928324414,387.7741140889676,369.2766871584872,{}
183,183,39,0,6.099999999999982,53.16913212508239,164.05968756900504,16.013636613700594,33.43745491386914,45.22541302611734,50.02820006889679,38.91017137002508,141.41410293015068,108.03212767178702,81.41005512065487,79.08077864035852,68.92857183695799,35.12336063434498,67.35661723514124,31.512777408296984,21.80268283665748,18.839007291053896,17.42472049110837,18.83889343114868,69.79642177337774,64.35189151187666,70.31427188305477,400.00000000000006,399.1631414068572,391.56403312894986,365.2008048447698,{}
184,184,39,0,6.133333333333315,61.45657726807796,171.7666668138964,17.755988665030372,34.07314744251384,46.38469318872615,52.40110679705183,38.05997141438367,151.18679564290588,117.20879197966968,86.26051250105968,78.22232844324174,69.82422569626806,36.11184181198723,76.90262658300321,41.39064925294247,22.194985831287795,20.640917558717984,20.640917558717987,22.07501293490259,76.06281630830574,70.30411728180934,86.31013930579873,400.0,400.52156811851273,394.7032441222924,367.6865317262914,{}
185,185,39,0,6.166666666666648,65.74561875877535,168.40331326840584,16.10168247450438,32.5969033597759,46.32890436289279,51.27151997738714,39.38698818929912,153.62792945704095,121.214906370317,87.70208199241995,74.49401248507331,69.28084959142518,32.89297259376178,81.07927985232948,47.21457369519169,18.71316952303914,20.6160918570574,20.87220219682369,21.44903740962559,70.35684641267409,66.11958761271705,67.8297619812986,400.0,400.8332402536372,395.4556578358493,370.8891650417744,{}
186,186,39,0,6.1999999999999815,59.45370288139746,186.9394382063816,18.05957742837303,34.65572410948555,51.85094092082652,55.46505341815088,40.108660344955744,152.0060745653685,117.50921409995276,87.24399022154637,68.10494818921575,61.14754739867908,24.92036973549898,86.75292812541704,51.46248235989526,11.665819712246275,19.52539273270309,19.805541806809515,20.51319058704513,73.17237889549051,71.397952833847,69.07257979492442,400.0000000000001,401.1799963058843,397.2274964124047,374.46782935716857,{}
187,187,39,0,6.233333333333315,62.71598920754209,174.61975808073598,14.642028705187196,32.34923588084644,43.46458830594548,49.83488930399896,41.20838178736076,150.7700317643051,118.45169966178383,86.83170679894715,69.63595655642052,63.39199041971688,25.34023392349229,83.69730204729956,49.744701038698736,13.03448633842379,20.60419089368038,20.860153389723607,21.56818276265864,67.99629436137093,66.82037500936582,66.35061353381741,400.0,399.73457901313526,392.69771692194087,367.1508409002111,{}
188,188,39,0,6.266666666666648,68.15677461154509,184.30667103396587,16.712750197808727,35.09612307716592,49.909412107329096,55.077718964013776,42.47477777220638,162.35372555905448,127.32547463075792,92.64257943766756,73.41055257162282,66.82536259834933,27.8909381538831,91.34599234355107,55.90049153088762,14.908706492286797,21.237388886103183,20.187289340734207,22.26285032579358,72.34710574364078,71.77448052857358,66.17980628316006,400.0,402.68114809732873,398.6469208866093,377.99681372403006,{}
189,189,39,0,6.299999999999981,64.11721596238075,178.94974455652766,19.56477479878405,38.93113698452732,49.06437256002959,54.14517240146282,40.162021647285286,162.57167440952273,123.68484505317478,90.90799177556232,72.08732429451948,62.6810766737292,27.887767164159072,94.22183487741349,53.72021610361924,13.0633247800464,20.87780874415436,20.2319464076572,20.692110317846414,70.00340323170332,68.0093768029692,67.74171350091291,400.0,403.5109286218127,398.4953654387818,373.5032173647587,{}
190,190,39,0,6.333333333333314,58.03048395995138,168.00972222729257,17.627262348508886,33.60819190194934,43.58913995065264,48.57772434412444,37.70060719279838,146.8025121106575,113.25022488523756,83.84097200610461,73.97830002824355,63.89260280465214,31.54155188229652,77.31128842277212,44.17964914035963,17.94527208702084,20.285328553425146,20.74583603126506,21.439334270132463,69.42693297648373,65.89983001622687,61.28570421399363,400.0,402.40713842056834,397.3088846512973,371.80515897000976,{}
191,191,39,0,6.366666666666648,53.42849304469728,170.7458517054882,16.336069956557537,37.09308817707149,44.90897364220528,50.04611995582813,42.992829031643154,149.8466872076244,112.75361430024076,85.6950297059625,73.95385200554722,60.64773017339462,24.514726922290947,81.96702143402308,45.45712064333861,13.289734982605635,22.18497421379547,21.176032739101625,22.613852374840462,69.26721303510914,64.49863981693636,67.14391573880422,400.0,400.5464856705058,391.30895911460425,366.4007429155277,{}
192,192,39,0,6.399999999999981,35.54496476410812,161.08549413070347,20.71558510647499,35.54496476410813,41.56240643079487,47.1603437844545,43.20703873273122,134.96438276591576,99.42516881217146,81.5754409489681,75.20928483421108,61.20374138174577,25.00529420770988,66.55453588832643,30.630075179989035,8.944852262506515,23.61478924175705,21.132020425653906,23.28482037163332,70.90608563765386,67.13474252157005,71.39569407704748,400.0,400.8432228595832,392.501533819136,369.48845104101554,{}
193,193,39,0,6.433333333333314,26.73723834146936,160.99782778073134,17.64324365564912,32.53253385082178,39.857521641426175,44.94581319442967,44.56206390244896,121.42540871080064,88.89500105705817,75.52647926664474,73.25253761105591,58.660398644710085,21.4099105611773,55.46634155985441,22.7961637629802,8.61746873401421,21.97787453339762,19.27158710387433,20.72083733221104,68.01558107091176,64.31079912223413,64.88334442059374,400.0,403.7128103927236,398.5563644379211,374.59938796332585,{}
194,194,39,0,6.466666666666647,20.423852956426664,155.23471863268173,18.82986203209881,31.9030781867391,38.88585751591806,43.851871998698506,45.34831291302536,116.43387613377976,84.55573789341263,74.3437364914696,71.43302563164798,58.77706183783721,19.771928188678885,51.32339065812789,19.61111543399249,5.813381081909256,23.152038655757124,21.854477028189564,23.285686878574097,65.25781585169443,63.23157514264733,68.25968214306789,400.0,399.1230577993409,390.0073632774002,366.4161032865672,{}
195,195,39,0,6.4999999999999805,20.6204744132373,151.5569800133175,19.011138058331284,30.758394336912573,39.26021361662189,42.46015557807544,44.6089066927921,114.8562275845845,84.14063238233429,73.8079027686423,68.63279166880636,59.49359390747372,19.545934434793708,50.79036494394313,18.59326187663339,5.659520875171552,23.32940366221408,22.06487117469507,23.51002109629036,70.13446197234697,63.71603244914945,68.7778606160811,400.00000000000006,403.3398530015603,399.356361164208,373.45836791869823,{}
196,196,39,0,6.533333333333314,22.036271473593946,161.2747180457077,20.57391813844201,33.84133592104049,42.306431547365655,45.51163223289165,43.136294983929545,119.46297615745412,85.63514522141362,74.63442116463887,68.79532451348257,57.77459459201805,20.19645323042448,56.16791845507066,21.092247086829843,4.754282072757178,23.45329558490781,20.729980436576103,22.18117081135938,76.82459605208885,69.88013909188174,70.60376924250987,400.00000000000006,403.210109661706,399.0938504038895,374.9090178132317,{}
197,197,39,0,6.566666666666647,33.84133592104038,162.44290972201648,17.65094231062755,30.92173827268356,43.40939080233824,46.58483711412074,42.91156022495609,125.29211151364316,94.37265251368966,77.45705806322383,70.23537211342409,59.32525482728033,21.87991792724449,60.50698525542953,28.37346694656856,7.723026131438701,22.036271473593963,20.573918138441982,22.09477800508972,80.73964258586,72.47946625980813,76.27956793085012,400.0,398.6440456547293,389.9220602288517,365.3920005147255,{}
198,198,39,0,6.59999999999998,40.64975993684213,167.60325387560133,18.88075414347934,33.431701532873404,42.88393934606263,48.85016190328829,39.76312874407137,132.56924921491827,99.14907752234076,78.81980887292059,70.20774513901358,58.00192548606992,24.4763916647886,68.45943144867158,34.14068123084621,9.3243396818242,17.437285468862765,17.616747680065213,17.50741903800855,82.55925759948553,72.65214668754737,85.4371766073932,400.0,402.6933868357672,396.6835423783087,371.86543522460494,{}
199,199,39,0,6.633333333333313,23.264211662490062,158.8894808221467,20.36830510882568,36.39545067940356,39.8480846922156,44.397621375772665,44.13596689504072,124.03995864407284,87.66146221379293,76.03149584488665,69.43629244099304,59.58081867517478,20.45757433207757,59.5310435551454,22.498354253282287,3.932234482321519,6.4898816442964105,7.255908261287455,6.570315843878916,84.31905332977948,76.75323508531278,82.76825717068184,399.99999999999983,398.75820721776137,394.3611171812525,374.2501541023536,{}
200,200,39,0,6.666666666666647,21.70137885855493,153.7842671169618,18.82164465997413,30.622409947411903,37.97398342617825,43.06536303441662,45.58066829538826,116.57091607189668,85.94907934417617,75.01585806957098,77.80595576291694,65.57338770999365,26.34144634504014,44.75527886560928,13.792098641343728,8.837340001049597,7.773777537141298,7.360711282911525,6.599576057769127,85.01878473436182,80.42954107572848,75.07869997721345,400.0,400.1536543420075,396.1261209186868,374.5599085540956,{}
201,201,39,0,6.69999999999998,20.360133324687222,158.82573420542028,18.91350267402061,29.33655806133931,41.0291479402969,45.80312227027543,44.37980900620144,112.8301568358162,83.49456807991689,73.17196569194186,77.52906805490647,64.16468233173225,26.767848597586067,41.77347467272944,12.192071186053909,10.668062287797056,9.17439638533994,7.396634834366979,8.069431730513202,78.38876538212833,77.21645084500767,75.43117071071376,400.0,396.95833155103605,389.67161905696406,369.0029589491015,{}
202,202,39,0,6.733333333333313,21.18784709867808,163.4533224743348,19.78179621994528,26.815561541123085,44.0534466618098,48.24989987615817,40.08730602181946,107.70578594562954,80.93901899055356,70.28330103500559,70.7333873174424,63.050880082744925,26.981896621255828,40.787129318757934,12.004887567754736,9.669094964073906,10.26054774105004,8.456367744798417,8.427477633213641,72.16124724793173,68.98736294592032,70.48382374378261,400.0,395.08325473188376,385.8808203944505,366.5753865563016,{}
203,203,39,0,6.766666666666646,25.9690989264478,159.60191037763653,17.20684335141784,27.581686696128084,40.55691872200714,45.275946501078586,39.65981431201755,110.11222105623632,82.53357872003099,69.43626163252407,75.0038266499896,64.3088508536099,30.343615445396267,40.27411282745004,12.459453752677746,15.633197472758525,13.21993810400587,10.139229680501725,10.123547486681389,69.56753570367107,62.53278989103421,76.0104176576147,400.0,397.5043584364449,386.7102731828176,367.0625208876644,{}
204,204,39,0,6.799999999999979,35.610801477079185,169.27752615417157,17.09780763783293,25.910663982864623,43.1844399714409,47.62474757090336,35.94888628834917,114.47564623194764,88.59284069685945,70.74710657201263,76.84291177615137,66.54846523242736,35.851731883014736,42.678411690710846,16.405802271342623,21.24979033534578,13.090790975214238,11.447564623194824,11.43741001950002,68.16571967434174,65.07116550183252,70.99478198653867,400.0,396.092352996644,388.3615742967073,370.285262351098,{}
205,205,39,0,6.833333333333313,47.3795225075576,165.0097412259243,17.45855471414834,29.022785000233466,47.70441446802821,52.1589499138976,35.18152547635768,128.69434533738254,99.68414527731032,76.03012059371315,75.61706027873345,70.03495546134275,37.85099428389742,55.82490855068227,24.478649133522936,22.49441547090976,17.458554714148296,12.995241562069271,12.994028226374098,67.93491049546412,62.70023958786959,76.11360580437778,400.0,397.8316825306615,389.6723113501615,371.4069294197493,{}
206,206,39,0,6.866666666666646,71.42516223047741,180.65186331843395,17.718402080496734,32.33829770138592,51.30735020621528,57.26620978793368,33.62461339358974,154.27994533505426,121.94182883559624,86.28303625477088,78.1137103366691,74.51825238634592,43.35231378155265,77.92280106497049,42.41367652903466,25.85229720918278,18.989702274939773,17.718402080496787,18.41479016592558,73.35688765017954,68.32961016211686,77.20525381769481,400.0,397.969071237932,394.1153819568031,374.0112205049252,{}
207,207,39,0,6.899999999999979,69.84370313051524,191.51959369805832,18.06206531616936,31.495086657619822,55.43294315553098,61.52076090938523,34.75576323102248,153.06741724464646,121.57266635723552,86.66311403839404,77.71601604870807,75.43165060453293,42.78426113153,76.40726501298263,43.069806812051866,26.34158902814454,22.31982423701416,19.528082551249096,20.249947843677376,71.69576128437143,65.05682421223759,72.76508688982197,400.00000000000006,397.6815083407657,393.7235762058045,376.3747046530619,{}
208,208,39,0,6.933333333333312,63.47461902697979,190.6007593672356,17.938794342330926,31.28013726310441,55.054621365309615,61.10089064671985,35.04988659887317,147.23463105888405,115.95704347191553,84.25639891611866,75.83670233973714,69.73489870320668,38.116461677548045,74.41030668444432,41.44471820656474,21.911022149359724,22.167494676610264,20.853424842069582,20.841225407890192,70.80469544467621,67.91228203255451,75.43349927068029,400.00000000000006,397.67486641425927,393.7267986795894,376.24109485092725,{}
209,209,39,0,6.9666666666666455,60.584850962096006,184.72653790213715,17.772482382053987,31.30908301713295,51.99361116955279,58.23826088262846,35.08232077228122,144.25603137059372,112.95402294829614,82.71172852143366,73.18302311284322,68.1240301697884,35.94610912866256,73.58790289671686,40.71647489905513,19.855144252733908,22.18800784900911,19.412753627542727,20.861330646320937,70.68960503789856,66.6969291494022,65.00772326740235,399.9999999999999,397.4431556171305,394.9138862280466,375.92056284690887,{}
210,210,39,0,6.999999999999979,58.71871871533637,176.64207157467183,17.62716823468101,28.157844768411824,48.85861409320441,53.20469490726023,37.63563760885633,141.8128832203424,113.66354325851782,84.34830768902543,78.32117459190465,71.82070643480063,37.64591510400578,66.74024345764633,35.37390681608588,22.62541586720215,23.60397914922545,22.152170709231992,21.426300381911062,74.34516008804485,66.58246510431866,63.09884404817058,400.0,398.9351803470767,394.7883232304478,375.9576028542591,{}
211,211,39,0,7.033333333333312,48.28485012323541,172.0446232273998,16.094950041078505,29.469405291043227,46.01053644247225,51.74486532031083,38.8821001401088,132.50620430028383,103.03735929677605,78.91756268080951,78.01028289391638,69.12683037181387,34.84743320615189,58.93373920080444,26.311113819903994,21.388134802326817,23.49613298745893,22.29038893397591,22.14946088437199,74.31804863073336,64.55098449009137,62.72597596261128,400.0,397.72954557300426,390.7439683539056,370.1379608586648,{}
212,212,39,0,7.066666666666645,41.50396343666787,169.95977303413505,17.930146410200138,31.26505773775104,45.09110752152147,51.1618808096335,40.22824760267493,130.8990302417235,99.6348056936624,78.89222959896688,77.25045906242462,66.98741039437755,31.891590953799778,58.77855771166617,27.13283577541631,16.711161934756547,22.156808173057435,21.10230562683229,20.94645404351786,69.44610056987574,63.52938163141897,63.52955788136626,400.00000000000006,398.5392227746496,391.4394107722,370.8041120047281,{}
213,213,39,0,7.099999999999978,5.25906222846853,141.91224928422648,19.184906417971806,29.4983882595796,35.75805347617552,40.34292205104933,51.795756058983294,104.12411980409917,74.67412527134745,72.74504361709319,79.12687891762891,69.80624785524162,22.67915174394045,29.54947320328256,1.3748521727696923,5.172438117039064,23.51924128151419,20.883994206449724,20.73702532223433,70.21594592391801,64.96078031224232,64.32746487970653,399.99999999999983,397.1174642766064,388.4729625129016,366.1786849792818,{}
214,214,39,0,7.133333333333312,3.2363900143870623,134.85303603795825,20.31463218504953,29.5204188835234,35.805649942536874,40.03193362503684,52.30550973796779,103.92793656842971,74.42289773973285,73.26069910602621,77.27568703461532,69.52995811043456,21.32246784887912,30.29993348271546,0.5171715030926407,4.054466669283329,23.33794028854467,20.72300734290766,21.40932107840598,70.22478394665063,64.9188411973646,66.82969060736211,400.0,397.6047059740101,387.6136106860615,363.81688010572367,{}
215,215,39,0,7.166666666666645,6.202523691444554,142.8975549059085,19.22893497473587,26.67806313517234,39.00966098414821,42.19438681669374,54.24992590717767,105.31106738337732,78.7283551963125,75.84868113933987,78.58457082286463,68.75754015063819,19.578834276454245,31.385524632852253,2.712133767314868,2.9259370132050435,21.97791041566569,21.28629662260768,21.035863804004464,70.81638622217639,68.12404905170348,66.19254963656728,400.00000000000006,396.2393853117184,386.2008458816387,362.6959280855655,{}
216,216,39,0,7.199999999999978,10.588759354848335,158.83817784394793,22.22087456327301,34.280066659069696,40.95747785510228,43.80648528573612,49.86066428831458,116.11481135994308,81.91495571020455,76.87208861872,74.50035448710787,66.31554650350552,20.601533731453745,45.62100359042006,10.324019161134856,0.5580550897910825,23.67718571482759,21.024241529514875,21.88040997889152,69.0128127708291,66.03651895861003,66.87253437233518,400.0,397.1219144948273,388.1958844976597,367.4690304085682,{}
217,217,39,0,7.233333333333311,31.09771451679739,153.86739499117476,20.57241943018561,37.087456557942986,41.98487582029763,46.57279529090815,46.95742048613627,135.53618288407074,98.4578885917677,82.90373371387386,75.77837412754991,66.86875919473243,24.489779265597804,64.20986887446759,25.422723237620744,5.411075037732076,24.90027723489873,23.000664153766326,23.568497093225403,68.66467634087627,65.95913882201023,73.65960450838142,400.0,401.4232054441608,389.7374141018543,365.7611869334263,{}
218,218,39,0,7.266666666666644,48.52089820657944,174.18187499151307,17.9817498520513,32.797831290943954,45.13617507367392,47.951332938803546,44.59447424699519,143.5083457035087,110.7134114866871,86.47356891423931,69.82299300169723,63.22640035398774,22.23439757139738,76.95507375845625,40.61172861819296,7.015670298269924,26.328320632270405,24.369094739064654,24.985564740354,67.75088684059313,65.34507069848735,72.17631384522014,400.0,400.5701994632007,392.0271610630584,370.0899119772624,{}
219,219,39,0,7.299999999999978,47.642044694647765,182.3107982697944,18.194845137609395,34.6224287715423,45.31434995505496,53.15868590869754,43.26240930352323,143.43993237432537,108.82166643708382,85.0459043351002,63.46399990496741,57.654077553043294,17.4719791732565,82.87773648249981,45.646648861385074,0.510382875036953,28.102766848788768,26.51821751593283,27.05029237695703,68.37595539404464,68.6752776816603,77.89178434140136,400.0,399.2392625338172,392.43929577822064,369.607844368124,{}
220,220,39,0,7.333333333333311,43.132819707049954,177.0360316868695,17.83116676526209,34.498783914002495,45.15252172568181,49.7695320864086,40.830036172662446,135.79812029705755,101.31458661522932,79.7279098109965,59.77605999787579,54.05282021084509,16.533803829199655,78.85352595464462,40.38063627516078,1.112852180811501,26.423514707859912,24.569825045188622,26.07253680758413,67.56602526355653,67.2480674976103,76.1747778128906,400.0,396.3879504051454,385.7276236450312,357.27935259341893,{}
221,221,39,0,7.366666666666644,48.207441659526765,183.8239235837035,17.043904450553068,32.648001687538944,41.695310582978586,46.41260359979135,41.641683151676126,138.860156117227,106.22900257838822,82.21726997755889,57.48642511711012,51.34761706900849,13.216762103561903,84.38570466121666,48.32402504531683,0.4581200035897836,28.44144778432299,28.362771429497474,28.94936656017024,68.74090653862947,68.27515120164674,81.83532022496769,400.0,399.2143341347391,388.3444731785535,361.1260163222997,{}
222,222,39,0,7.399999999999977,46.01753353314238,184.21931973112308,17.251392141916188,37.09280762040149,46.61069485739755,49.9076267909466,40.20266301636122,140.18363771195862,103.1205760160521,80.1225266283102,53.30161007120421,49.21893355511213,11.34076810025624,88.91162190600869,48.99211819310688,3.2888227490742565,28.78768595744326,28.70805181883788,29.88292394417521,69.17868541156304,68.49823932554739,81.60642104245488,400.0,396.4992033500967,387.6354830332173,361.5454656968026,{}
223,223,39,0,7.4333333333333105,38.67502071229201,192.4207480575919,16.960118531290608,35.70497711074651,48.56638846859523,52.98510410494037,41.43270524251945,132.11486009427728,96.47907691550526,77.00556062700696,49.373507777268856,46.44335174141497,7.1663893745108,84.12273549445581,45.106988588112245,6.136670457518335,28.86211560583105,27.347369408191856,27.753196251737226,70.59631751499069,65.86415337439996,86.29350975580029,400.0,398.521646053356,387.8345625672889,360.2131142853488,{}
224,224,39,0,7.466666666666644,37.88838773999346,190.9197913281604,18.51069929706853,33.762609179739265,47.91142004886771,52.63346482201464,38.35833919459845,128.12358962614476,94.3745526286842,75.41180352712695,48.89209200731284,45.94254611068425,9.41758562933694,80.66334273140353,44.22072997813473,5.270254597021676,28.47287986390289,26.51807132973425,27.923365975696925,70.80407383328202,68.296211205438,79.2439499622601,400.00000000000006,399.2518618082853,390.17667360733975,361.1408432937514,{}
225,225,39,0,7.499999999999977,42.71179416121216,195.5901726801497,17.217674670998296,33.76663812542786,51.276393894042926,55.68936624525888,40.12408778545079,133.33333333333337,99.620166838625,78.28565371394654,47.65049304980471,44.38354923175734,6.223830468177994,87.30756106332228,50.66031628957956,7.327936480758694,27.22353398607229,27.22353398607238,27.59508794457008,71.22996255135831,69.14274844538386,78.48110577257441,400.00000000000006,401.0504421609789,389.3250911080999,361.4923239878672,{}
226,226,39,0,7.53333333333331,48.64610391546666,197.4615073387913,16.792498786938783,36.82116753402746,52.82568884056741,57.19318997842623,37.66913450084841,139.15703719559954,102.36539774907877,78.06737064336812,45.133807299485625,44.237554299992325,7.655494370672272,94.45759737160267,54.52205746917832,6.049707746580111,27.077090691658263,28.49781543674714,28.9302999461454,72.14836645921423,68.45879161129994,82.48519162982758,400.0,400.7099797100976,391.6016477829885,361.3751981508441,{}
227,227,39,0,7.566666666666643,60.216794359598566,199.8512896209197,18.52860271167941,32.7156944507432,50.53218587300992,55.96798392407293,36.99660488334423,147.530841994027,114.8742115575526,84.98002647038538,53.89923054825772,52.70610978349293,16.73351872582873,94.22671239731405,57.12065661312317,0.2684521720721022,28.618270620168698,27.00465506897832,28.441016230085097,71.08016956087363,70.93102946527779,73.4453298411268,400.0,399.2897517302641,388.3878089934594,353.54446562012083,{}
228,228,39,0,7.599999999999976,57.67837394984896,191.98648058714167,15.359933081567576,32.131815468359164,51.38732253698437,56.02218918124396,39.09114804592584,143.46418593667877,111.38562998240756,82.76370897951676,54.267633550725805,53.71085208474733,15.163015256820472,89.47478158278034,52.80144235698185,1.31771613614967,29.5710507898877,27.914337498080418,28.510922934550308,69.61253075309958,69.21907185047439,77.90495468537091,400.0,397.862281911754,384.30540291956186,352.9229265215017,{}
229,229,39,0,7.63333333333331,56.71908671117993,182.91958165990167,15.497657200567073,32.41992388352842,50.77450898098579,54.03320647254734,40.841411310142696,144.7505508258485,112.38436400534115,84.22662811910175,60.20340489539694,53.845412524990365,16.409285115416083,87.726132712192,52.53729099977795,4.252326667428974,28.359543355589963,28.164630094992447,28.76376618686845,72.22619703310579,71.07832971183666,79.79978526914525,400.00000000000006,396.3837470403075,383.0688815382616,350.34820006966663,{}
230,230,39,0,7.666666666666643,29.32461416518529,176.19382920561944,20.14984142586469,32.985329069926024,43.58972531258128,48.353015558719655,42.983734099144925,125.308941764033,92.32582146863442,77.49393888244185,63.4292558062358,55.14580730304272,16.600508835299024,65.76341059185143,29.753937883200592,0.130712667994544,30.24362314664737,28.655822732763248,29.93693561839291,68.61294675413114,69.44203853398176,76.7283102092611,399.9999999999999,396.35375678849147,382.4386486484353,350.2320442974985,{}
231,231,39,0,7.699999999999976,19.72273792429796,160.0773757722805,21.455510353594217,35.709085972017384,42.31688098660033,45.260448674009886,41.74185943819597,118.16124398926895,82.54099637810995,72.46803770648967,60.77745341078537,51.426495410541634,14.72832488900383,61.74726624616176,23.00003592069652,3.1811370436664674,28.86543700353547,28.342396216805987,29.90948067390332,66.68689660222265,68.12086110589212,72.60083116538684,400.0,397.4571763566879,382.7027988262941,352.5141004032481,{}
232,232,39,0,7.733333333333309,4.724028706686926,144.6663893391228,16.701963665091306,29.34986989330363,33.06820094680859,35.91504767376229,55.81555367579622,104.45339174311856,75.12542513918463,73.53592767662747,68.84837850202177,56.5435619186818,7.031323761908652,41.30902710121302,11.71887293651423,5.273492821431432,28.42279700208977,27.907776837898,27.83232322422145,63.86785750400327,66.21163209130589,75.64348661728141,400.0,396.01338513374543,379.3515650534509,347.108436810039,{}
233,233,39,0,7.766666666666643,6.118244887131478,148.12282243943372,18.60791537531613,33.018688791815705,33.40612133088444,36.77314581353012,54.9152952982453,107.9939548907338,75.01090495716271,74.11433570549207,67.97891837690122,56.23505207923063,7.204410286455641,45.62793181421921,10.418917279471998,6.677441926944766,29.06166321387457,28.57456173561536,29.41236258012782,69.37162046989431,67.75307479425385,74.43166150126419,400.00000000000006,396.2242655017878,382.8458433508399,353.9207682793986,{}
234,234,39,0,7.799999999999976,4.791192301805868,152.5526463210966,17.274889514769416,30.902261807058128,34.549779029538776,36.42566771237944,54.07895816235167,104.72893206227144,73.88385161462391,72.50458453077647,68.26858805976042,57.12437179328072,8.617547005794336,41.90090958598989,10.386588703821984,5.661679864785356,28.78705272498556,26.46022433810721,27.338038898848936,66.07408063689013,65.85761561898812,73.7283392308472,400.00000000000017,393.6074558088207,375.92392160516624,345.7966495095805,{}
235,235,39,0,7.833333333333309,5.43827742652372,154.00986597294852,18.349343904514534,27.81180278651033,37.31344896447312,40.61240289112335,53.04867395719264,103.18405929416346,75.41533889049842,73.15744515141603,68.28381102044409,58.92976071786495,10.696284683102704,39.24995804004607,10.779465405276142,4.798015292632613,24.179997091579192,23.07265707761196,23.95226704399306,66.20429296611178,64.17014621478279,74.45904251198442,400.0,399.6329895987787,385.4572330933833,358.6092541816241,{}
236,236,39,0,7.866666666666642,19.29504219549581,167.27393898641108,20.063596858706568,30.84944784861632,43.68100958420688,45.88915185395117,50.31531419574524,120.28489686939216,89.53242641314196,79.77964227539303,70.66985613322015,62.49558674975526,16.40221595800324,53.577504861415946,20.328319076515527,1.0352029707015618,27.457326399070205,23.6806850950776,24.33877206671445,65.68554553354642,61.72876973442078,74.22950942330337,400.0,396.7583371430915,385.3215578531713,361.7016362215236,{}
237,237,39,0,7.899999999999975,37.21909625202028,172.2249571430818,17.102514866001478,35.71109945485084,42.30928515373206,48.61448137246487,46.01816105333449,135.9020542701845,100.21548364486604,81.43517796647848,70.118740892,60.143625378120646,19.40291016107789,70.61980929107426,31.089366976411043,6.752860270601559,26.04977455182616,21.901905491909982,22.62516540435581,65.95601880738269,63.51234676882018,70.7804474448808,400.0,399.37649754446,389.5470863041404,362.7184961245584,{}
238,238,39,0,7.933333333333309,54.99234953717044,181.22909133669404,17.019704907425798,34.03940981485172,48.06673228505953,55.82878308956599,42.46066756853418,148.15552919406886,114.12089715257264,86.69167166298848,67.56541415503443,61.82909568484115,22.446463579017063,83.44940470157485,45.44629483654455,9.446220089503072,24.4041441185574,23.286539133463407,24.016936638451853,68.57862258047601,63.02156406247633,70.28952679593989,400.00000000000006,397.9205551435888,389.685090314705,365.45075626890815,{}
239,239,39,0,7.966666666666642,61.12811578735298,178.89063103677543,17.03797567071494,32.577750080057406,49.35722464553402,55.617965667307566,41.03287909401531,151.32178120719917,118.75847929733798,88.24279653813392,70.73030215671236,68.05592257267756,28.6752922065964,81.88919007021468,44.04124507977929,14.521411951908815,24.43034212509679,23.31153738382352,23.271794275110665,66.69527331062466,63.24673121542168,68.72875257533784,399.9999999999999,399.1456272710799,390.5823536869167,365.0328135203548,{}
