,video_id,frame_seq,gap,time_seconds,m1,m3,m4,m5,m6,m7,m8,m9,m10,m11,m12,m13,m14,m15,m16,m17,e1,e2,e3,b1,b2,b3,m_0_16,m_1_15,m_2_14,m_3_13
0,39,0,0,0.0,38.05259518088089,123.3288287465668,11.045361017187261,23.08679276123039,34.132096331752024,37.05401462729781,27.073972741361768,99.24716620639605,76.16429609731846,57.0,39.0,48.0,16.5,55.5,28.5,5.5,7.280109889280518,7.280109889280518,7.0,58.0,40.0,50.48762224545735,268.3616962235855,266.82765973564284,259.43399931389104,243.13165157996193
1,39,1,0,0.0333333333333333,39.05124837953327,122.2620137246234,12.041594578792296,24.08318915758459,33.06055050963308,36.05551275463989,27.073972741361768,102.23991392797629,78.16009211867653,58.5,41.0,49.0,18.0,57.0,30.0,7.0,7.280109889280518,7.280109889280518,7.0,59.0,40.0,47.38143096192854,276.5248632582611,274.05291459862275,265.6106172576691,247.2023462671825
2,39,2,0,0.0666666666666666,29.017236257093817,119.15116449284078,12.041594578792296,25.079872407968907,33.015148038438355,36.013886210738214,30.01666203960727,96.13012014972206,71.06335201775947,56.5,43.0,49.0,16.0,50.0,22.0,5.0,7.280109889280518,7.280109889280518,7.0,59.0,40.0,47.67598976424087,275.230812228573,272.888255518628,265.48257946614876,247.12952069714376
3,39,3,0,0.0999999999999999,16.0312195418814,105.23307464861035,13.038404810405298,28.160255680657446,25.019992006393608,30.01666203960727,32.0624390837628,89.27485648266257,61.1310068623117,53.0,43.0,50.0,14.5,42.5,12.5,2.5,7.0710678118654755,6.708203932499369,6.0,58.0,38.0,52.61178575186362,262.39283526803854,263.09694030908076,256.78006153126455,240.3518254559345
4,39,4,0,0.1333333333333332,10.04987562112089,96.13012014972206,14.035668847618199,25.179356624028344,24.020824298928627,27.0,35.014282800023196,84.2140130857092,59.07622195096772,54.0,47.0,52.0,14.5,34.5,8.5,1.5,6.082762530298219,5.385164807134504,5.0,61.0,40.0,51.78802950489621,268.9851297005097,268.8215021161812,261.6199533674754,245.29370150902776
5,39,5,0,0.1666666666666665,2.8284271247461903,103.12128781197411,16.0312195418814,24.08318915758459,27.073972741361768,29.017236257093817,35.014282800023196,77.23341245859851,53.150729063673246,52.0,49.0,54.0,16.5,25.5,1.5,1.5,5.0,6.324555320336759,5.5,59.0,41.0,44.14748010928823,262.5509474368737,262.37377917772193,258.2343896540505,245.073458375239
6,39,6,0,0.1999999999999998,13.152946437965905,106.1178590059185,14.142135623730951,23.021728866442675,28.0178514522438,30.066592756745816,33.0,83.15046602394962,60.13318551349163,53.5,52.0,57.0,21.5,28.5,2.5,7.5,4.123105625617661,5.385164807134504,5.0,59.0,42.0,49.03060268852505,272.8094573140748,272.5949375905576,268.41944787961995,256.1952380509833
7,39,7,0,0.2333333333333331,34.058772731852805,115.52488909321661,12.041594578792296,24.186773244895647,31.144823004794873,35.12833614050059,32.0,102.17631819555841,78.05767098754612,61.0,50.0,61.0,23.5,46.5,19.5,10.5,7.0,7.280109889280518,6.5,62.0,44.0,50.635955604688654,277.8722728161268,276.7977601065442,273.528791903156,257.381040482783
8,39,8,0,0.2666666666666664,41.048751503547585,121.69634341261039,14.035668847618199,26.076809620810597,34.132096331752024,39.11521443121589,29.017236257093817,110.07270324653611,84.02380615040002,63.5,49.0,62.0,26.5,54.5,24.5,11.5,7.0710678118654755,7.0710678118654755,6.5,61.0,44.0,52.61178575186362,276.7977601065442,278.792037189013,276.65321252427196,262.5509474368737
9,39,9,0,0.2999999999999997,37.013511046643494,124.57929201917949,14.142135623730951,26.1725046566048,35.22782990761707,39.11521443121589,28.0178514522438,105.11898020814318,79.02531240052139,60.5,47.0,59.0,25.0,52.0,22.0,10.0,6.0,6.082762530298219,5.5,61.0,44.0,51.97114584074513,273.41177736154674,274.46675572826666,270.5346558206545,257.5616431070434
10,39,10,0,0.333333333333333,39.05124837953327,124.57929201917949,12.041594578792296,25.079872407968907,35.22782990761707,40.11234224026316,29.017236257093817,105.07616285342742,80.02499609497022,60.5,47.0,59.0,24.0,52.0,23.0,11.0,6.0,7.0710678118654755,6.5,60.0,43.0,49.64876634922564,274.8817927764587,276.87542325024083,275.87859648765794,262.8402556687236
11,39,11,0,0.3666666666666663,39.01281840626232,123.68508398347798,13.152946437965905,26.076809620810597,35.12833614050059,38.2099463490856,28.0,106.1178590059185,80.05623023850174,60.5,47.0,60.0,25.5,52.5,22.5,11.5,7.0,6.082762530298219,5.5,61.0,43.0,51.78802950489621,275.87859648765794,275.87859648765794,273.0567706540162,261.01532522057016
12,39,12,0,0.3999999999999997,40.049968789001575,121.59358535712317,14.035668847618199,26.076809620810597,35.12833614050059,39.11521443121589,26.019223662515376,106.16967551989597,80.09993757800315,60.0,49.0,61.0,29.0,51.0,21.0,14.0,5.0,6.324555320336759,5.5,62.0,43.0,52.773099207835045,277.95323347642494,277.04151313476467,273.1464808486465,259.02316498722655
13,39,13,0,0.433333333333333,33.06055050963308,116.52038448271615,15.033296378372908,22.090722034374522,32.2490309931942,35.12833614050059,26.076809620810597,96.25487000666512,74.16872656315464,57.5,53.0,64.0,32.5,37.5,12.5,16.5,6.082762530298219,7.615773105863909,6.5,60.0,44.0,45.70557952810576,273.2398214023717,272.2443755158222,268.1678578800972,253.04742638485774
14,39,14,0,0.4666666666666663,32.0624390837628,114.6298390472568,15.033296378372908,22.090722034374522,33.13608305156178,36.124783736376884,25.079872407968907,94.26027795418386,72.17340230306452,56.0,51.0,63.0,32.0,37.0,12.0,16.0,8.0,7.615773105863909,7.0,60.0,44.0,47.67598976424087,272.0606550017845,271.15493725912495,266.0845730214362,251.87695408671274
15,39,15,0,0.4999999999999996,32.0624390837628,114.5294721894762,16.0312195418814,24.08318915758459,32.14031735997639,36.124783736376884,25.079872407968907,97.25224933131366,73.17103251970687,57.0,53.0,64.0,33.5,38.5,11.5,16.5,7.0710678118654755,8.54400374531753,7.5,59.0,40.0,47.51841748206689,278.21754078418564,276.22635645426743,270.9778588741154,255.86324472264477
16,39,16,0,0.533333333333333,34.0147027033899,116.43023662262307,14.035668847618199,22.090722034374522,33.06055050963308,36.05551275463989,28.0178514522438,98.12746812182611,76.05918747922567,59.0,52.0,62.0,29.0,41.0,16.0,15.0,8.0,8.54400374531753,8.0,59.0,39.0,50.635955604688654,272.44265451650557,271.2489631316588,265.9962405749375,251.87695408671274
17,39,17,0,0.5666666666666663,36.013886210738214,115.43396380615195,13.152946437965905,24.08318915758459,33.13608305156178,37.05401462729781,30.0,103.12128781197411,79.05694150420949,61.0,52.0,62.0,27.0,46.0,18.0,13.0,12.041594578792296,11.180339887498949,11.0,58.0,36.0,56.71860364994893,274.33191575170395,274.14229881577927,268.8215021161812,253.71243564319033
18,39,18,0,0.5999999999999996,19.1049731745428,114.35471131527551,14.035668847618199,20.09975124224178,28.071337695236398,31.064449134018133,31.016124838541646,84.2140130857092,64.1248781675256,54.5,49.0,58.0,22.5,30.5,7.5,8.5,16.1245154965971,14.035668847618199,14.0,63.0,40.0,52.773099207835045,279.72307734614964,277.73548566936853,272.44265451650557,259.20841035738016
19,39,19,0,0.633333333333333,16.0312195418814,110.2905254316979,13.038404810405298,20.09975124224178,29.017236257093817,31.016124838541646,32.0624390837628,81.2219182240853,61.1310068623117,53.0,47.0,55.0,19.0,30.0,7.0,6.0,18.110770276274835,15.132745950421556,15.5,63.0,38.0,54.91812087098393,287.2716484444645,284.1918366174511,277.1299334247385,260.8466982731428
20,39,20,0,0.6666666666666663,18.0,114.28035701729323,13.038404810405298,20.09975124224178,29.017236257093817,32.01562118716424,31.064449134018133,82.15229759416349,62.07253821135398,53.0,47.0,55.0,20.0,31.0,8.0,7.0,17.26267650163207,16.1245154965971,16.0,62.0,39.0,52.952809179494906,289.5582842883277,286.37213551601,280.0303554973996,262.8402556687236
21,39,21,0,0.6999999999999996,20.09975124224178,110.54863183232979,14.035668847618199,25.079872407968907,27.073972741361768,31.144823004794873,28.071337695236398,87.28115489611719,62.20128616033595,52.0,42.0,53.0,19.5,39.5,11.5,5.5,17.11724276862369,16.1245154965971,16.0,62.0,37.0,54.12947441089743,285.68689154387187,283.4872131155125,278.21754078418564,265.0
22,39,22,0,0.733333333333333,34.058772731852805,119.60351165413162,14.142135623730951,25.079872407968907,30.14962686336267,35.12833614050059,27.018512172212592,100.24470060806208,75.16648189186454,58.0,43.0,55.0,22.0,51.0,23.0,7.0,16.1245154965971,15.033296378372908,15.0,62.0,37.0,55.90169943749474,289.3579098625092,287.17938644686876,281.93970986719836,266.60832695172894
23,39,23,0,0.7666666666666663,36.05551275463989,124.78781991845197,14.142135623730951,25.079872407968907,33.24154027718932,38.118237105091836,26.076809620810597,101.31633629380802,76.23647421018367,58.0,41.0,55.0,22.0,53.0,25.0,7.0,16.278820596099706,15.033296378372908,15.0,62.0,38.0,53.75872022286245,285.156097602699,284.80344099044873,280.5031194122447,268.26293072282647
24,39,24,0,0.7999999999999996,37.05401462729781,125.67418191498204,14.035668847618199,25.179356624028344,35.12833614050059,39.20459156782532,26.076809620810597,102.3132444994293,77.1621668954417,58.5,41.0,54.0,21.5,54.5,25.5,7.5,17.11724276862369,15.033296378372908,15.0,63.0,36.0,56.88585061331157,285.0350855596553,283.9242856819402,279.5084971874737,263.28691574022434
25,39,25,0,0.8333333333333329,37.05401462729781,122.6906679417795,14.035668847618199,25.179356624028344,34.132096331752024,38.118237105091836,26.1725046566048,102.39628899525607,77.23341245859851,58.5,41.0,54.0,21.5,54.5,25.5,7.5,17.26267650163207,16.0,16.0,64.0,37.0,56.089214649520635,280.4514218184675,279.20243551946317,274.9872724327437,259.73832986296037
26,39,26,0,0.8666666666666663,37.013511046643494,125.78155667664477,13.152946437965905,26.1725046566048,36.124783736376884,40.19950248448356,26.0,102.17631819555841,76.05918747922567,57.5,39.0,53.0,20.0,56.0,26.0,7.0,17.26267650163207,15.0,15.0,63.0,37.0,54.91812087098393,273.00183149568795,272.88275870783775,269.45871668958864,255.03921267130667
27,39,27,0,0.8999999999999996,39.05124837953327,117.72000679578642,12.041594578792296,25.179356624028344,30.14962686336267,35.05709628591621,27.018512172212592,103.23759005323593,78.10249675906654,58.5,41.0,54.0,20.5,55.5,26.5,8.5,16.278820596099706,15.033296378372908,15.0,63.0,36.0,53.9351462406472,277.2183255125822,275.86228448267445,271.34664177026406,256.03515383634334
28,39,28,0,0.9333333333333328,31.064449134018133,107.46627377926528,12.041594578792296,26.1725046566048,27.073972741361768,31.064449134018133,30.0,99.18165152889924,73.06161783043132,57.5,46.0,56.0,21.0,48.0,19.0,9.0,16.278820596099706,15.033296378372908,15.0,65.0,38.0,53.75872022286245,276.1014306373656,274.9872724327437,268.5702887513807,253.33771926027913
29,39,29,0,0.9666666666666662,13.038404810405298,105.57461816175325,15.132745950421556,31.144823004794873,27.16615541441225,31.144823004794873,33.13608305156178,92.43916918709297,61.29437168288782,54.5,45.0,56.0,17.5,41.5,7.5,1.5,18.24828759089466,17.029386365926403,17.0,66.0,36.0,57.0701322935211,270.4071004984891,270.27578507887085,264.82069405543064,251.45377308761942
30,39,30,0,0.9999999999999996,9.055385138137417,97.62171889492625,16.1245154965971,28.160255680657446,26.076809620810597,29.068883707497267,37.05401462729781,90.35485598461214,62.20128616033595,57.5,47.0,58.0,15.5,37.5,6.5,0.5,19.4164878389476,17.029386365926403,17.5,68.0,38.0,56.88585061331157,270.1481075262235,270.8966592632696,267.36678926149375,252.05158202241066
31,39,31,0,1.0333333333333328,11.0,104.58011283222064,18.027756377319946,28.160255680657446,26.076809620810597,30.14962686336267,32.0624390837628,89.20201791439474,61.07372593840988,55.5,46.0,57.0,19.5,37.5,6.5,1.5,18.439088914585774,17.11724276862369,17.0,65.0,38.0,54.91812087098393,271.53268679847736,271.26739575555337,264.9396157617807,249.46542846655126
32,39,32,0,1.066666666666666,8.06225774829855,100.60318086422517,15.132745950421556,26.1725046566048,26.076809620810597,30.066592756745816,37.0,86.20904824900923,60.07495318350236,56.0,44.0,55.0,12.5,36.5,7.5,1.5,18.439088914585774,16.0312195418814,16.5,65.0,37.0,53.75872022286245,269.15608854343236,269.6738771182704,264.18554086096384,247.97782158894776
33,39,33,0,1.0999999999999992,7.0710678118654755,102.48902380255166,15.033296378372908,27.16615541441225,26.076809620810597,29.154759474226502,36.013886210738214,85.21150157109074,58.077534382926416,54.5,43.0,53.0,12.0,37.0,7.0,3.0,19.4164878389476,17.029386365926403,17.0,64.0,36.0,52.952809179494906,273.3806869550225,273.99452549275503,268.4641503068892,252.05158202241066
34,39,34,0,1.1333333333333324,2.8284271247461903,103.4842983258813,14.035668847618199,26.1725046566048,27.16615541441225,29.068883707497267,35.014282800023196,77.31752712031083,51.15662224971465,50.0,41.0,51.0,11.0,31.0,2.0,3.0,17.72004514666935,16.1245154965971,16.0,63.0,37.0,55.10898293381942,268.9107658685312,269.6738771182704,263.28691574022434,247.97782158894776
35,39,35,0,1.1666666666666656,10.198039027185569,107.67079455451233,14.035668847618199,23.194827009486403,26.1725046566048,29.154759474226502,31.064449134018133,78.40918313565064,55.226805085936306,50.0,37.0,49.0,12.0,35.0,8.0,2.0,17.46424919657298,14.142135623730951,14.5,61.0,35.0,54.12947441089743,270.542048487846,270.27578507887085,265.8138446356773,251.3483638299641
36,39,36,0,1.1999999999999988,19.1049731745428,110.76551810017412,13.152946437965905,25.179356624028344,27.16615541441225,29.274562336608895,29.017236257093817,86.37129152675674,61.204574992397426,51.5,37.0,50.0,14.5,42.5,13.5,1.5,17.46424919657298,16.1245154965971,16.0,64.0,34.0,53.150729063673246,275.0727176584403,274.64158461529456,268.2927505543152,253.7794317906792
37,39,37,0,1.233333333333332,30.066592756745816,119.82069938036582,13.152946437965905,26.30589287593181,30.265491900843113,33.13608305156178,28.0,97.32933781753577,71.11258679024411,56.0,37.0,51.0,16.0,53.0,23.0,2.0,17.46424919657298,16.1245154965971,16.0,68.0,35.0,54.57105459856901,281.61853632174143,281.99645387841315,277.2183255125822,258.5207922005501
38,39,38,0,1.2666666666666653,42.1070065428546,126.43575443678897,14.142135623730951,25.317977802344327,32.38826948140329,36.345563690772494,27.018512172212592,108.46197490364999,83.21658488546619,62.0,34.0,53.0,16.5,64.5,34.5,1.5,18.439088914585774,16.0312195418814,16.0,69.0,34.0,56.753854494650845,279.8731855680354,281.12808468738945,278.3415168457627,261.3541658363226
39,39,39,0,1.2999999999999985,44.04543109109048,129.55307792561317,13.341664064126334,24.331050121192877,33.37663853655727,38.3275357934736,27.018512172212592,108.46197490364999,84.2140130857092,62.0,34.0,54.0,17.0,64.0,34.0,3.0,18.681541692269406,16.0312195418814,16.5,69.0,33.0,56.753854494650845,284.25516705945734,283.59301824974466,279.0286723618202,261.22212769977966
40,39,40,0,1.3333333333333317,42.04759208325728,133.5065541462291,13.152946437965905,25.317977802344327,34.36568055487916,38.3275357934736,27.018512172212592,107.37783756436893,82.15229759416349,61.0,32.0,52.0,15.0,65.0,35.0,2.0,18.681541692269406,16.0312195418814,16.0,69.0,34.0,58.463663928973865,278.28941769316344,279.5084971874737,275.6972977742074,259.64976410541954
41,39,41,0,1.366666666666665,35.05709628591621,127.57742747053649,14.317821063276353,26.476404589747453,34.36568055487916,38.3275357934736,25.019992006393608,100.60318086422517,74.24284477308234,56.5,32.0,52.0,17.0,58.0,27.0,2.0,18.439088914585774,17.11724276862369,17.0,69.0,33.0,55.78530272392541,283.0070670495703,284.08449447303525,279.32955446926843,264.3274484422683
42,39,42,0,1.399999999999998,37.12142238654117,127.27922061357856,13.152946437965905,25.317977802344327,34.23448553724738,38.3275357934736,26.019223662515376,101.49384217774002,76.23647421018367,57.5,33.0,51.0,16.0,59.0,29.0,3.0,17.46424919657298,16.0312195418814,16.5,69.0,32.0,57.723478758647246,278.28941769316344,280.6724069088374,278.8207309365643,262.90872941003687
43,39,43,0,1.4333333333333311,28.160255680657446,123.17873193047572,20.09975124224178,29.154759474226502,32.38826948140329,36.22154055254967,21.095023109728988,98.50888284819801,69.35416353759881,55.0,36.0,53.0,23.5,53.5,19.5,2.5,18.439088914585774,18.24828759089466,18.0,73.0,38.0,62.0966987850401,281.6558183315232,283.91724146307143,278.0395655298001,263.3362869032675
44,39,44,0,1.4666666666666646,3.1622776601683795,104.93807697875924,19.026297590440446,27.16615541441225,27.294688127912362,30.265491900843113,29.427877939124322,78.63841300535,51.478150704935004,49.5,40.0,54.0,18.0,31.0,0.0,2.0,19.6468827043885,18.110770276274835,18.5,71.0,40.0,64.13267497929586,280.31589323475754,280.79351844371337,275.2235455043772,263.751777245197
45,39,45,0,1.4999999999999978,2.23606797749979,102.82509421342633,14.142135623730951,22.090722034374522,25.317977802344327,28.160255680657446,35.014282800023196,73.24616030891995,51.15662224971465,50.0,38.0,51.0,9.5,28.5,2.5,5.5,19.4164878389476,17.11724276862369,17.5,73.0,41.0,65.5133574166368,279.8070763937181,280.3176769310134,275.77164466275354,260.23066690918654
46,39,46,0,1.533333333333331,3.0,105.80170130957252,14.142135623730951,21.213203435596427,26.1725046566048,28.160255680657446,36.013886210738214,74.24284477308234,53.08483775994799,51.5,39.0,52.0,9.5,28.5,2.5,4.5,17.46424919657298,16.1245154965971,16.5,71.0,40.0,64.53681120105021,270.9686328710392,273.6512378923216,270.27578507887085,258.8628980754098
47,39,47,0,1.5666666666666642,18.027756377319946,109.89540481748998,14.142135623730951,26.076809620810597,26.30589287593181,30.265491900843113,32.14031735997639,90.35485598461214,64.28063471995279,55.0,40.0,54.0,15.0,43.0,13.0,0.0,16.278820596099706,16.1245154965971,16.0,71.0,40.0,63.34824385884742,278.0395655298001,280.4514218184675,278.08631753468205,263.60007587252323
48,39,48,0,1.5999999999999974,31.016124838541646,115.84903970253703,14.142135623730951,26.1725046566048,30.265491900843113,34.23448553724738,27.018512172212592,98.2496819333274,72.11102550927978,56.5,38.0,52.0,18.0,53.0,23.0,4.0,16.278820596099706,16.0312195418814,16.0,69.0,40.0,65.11528238439882,269.14122686797725,272.66096163550804,270.1481075262235,256.7586415293554
49,39,49,0,1.6333333333333306,33.015148038438355,117.72000679578642,12.165525060596439,26.30589287593181,33.24154027718932,36.124783736376884,25.0,96.25487000666512,70.06425622241343,53.5,39.0,52.0,20.5,50.5,20.5,7.5,17.46424919657298,16.0312195418814,15.5,68.0,41.0,67.08203932499369,276.76163028859327,277.4779270500629,273.00183149568795,258.63101128828305
50,39,50,0,1.666666666666664,38.01315561749642,121.69634341261039,11.180339887498949,27.16615541441225,32.14031735997639,36.124783736376884,25.019992006393608,101.24228365658294,74.10802925459562,55.0,38.0,51.0,19.5,56.5,24.5,7.5,16.278820596099706,15.132745950421556,15.0,68.0,39.0,65.30696746902278,277.89386463180506,279.32955446926843,275.86228448267445,259.3067681338071
51,39,51,0,1.699999999999997,36.05551275463989,118.71394189394942,13.152946437965905,26.1725046566048,32.2490309931942,36.124783736376884,25.0,100.24470060806208,74.10802925459562,56.0,39.0,52.0,20.5,54.5,24.5,6.5,16.278820596099706,15.132745950421556,15.5,68.0,41.0,64.32728814430156,276.06158733152284,276.90431560378397,271.1401851441427,254.8921340488953
52,39,52,0,1.7333333333333305,36.05551275463989,124.90396310766124,13.152946437965905,26.30589287593181,33.24154027718932,37.12142238654117,25.0,100.31948963187563,74.10802925459562,56.0,36.0,51.0,18.5,56.5,26.5,5.5,17.26267650163207,16.0312195418814,16.5,69.0,41.0,66.2872536767062,273.3806869550225,273.99452549275503,269.45871668958864,253.04742638485774
53,39,53,0,1.7666666666666635,49.09175083453431,131.85598204101322,14.142135623730951,27.16615541441225,35.22782990761707,40.11234224026316,25.0,115.27792503337315,88.14193099768123,63.5,37.0,52.0,19.5,70.5,37.5,4.5,16.278820596099706,15.033296378372908,15.5,71.0,41.0,62.16912416947821,269.4160351575236,270.0240730009086,265.4806960967219,252.05158202241066
54,39,54,0,1.7999999999999967,51.15662224971465,134.8369385591352,13.152946437965905,27.073972741361768,34.23448553724738,39.11521443121589,26.019223662515376,117.34564329364768,90.27181176868004,64.5,34.0,49.0,15.5,75.5,43.5,2.5,17.26267650163207,16.1245154965971,16.0,72.0,43.0,63.150613615387776,269.0315966573443,270.78035379251577,267.1722290957651,253.95472037353431
55,39,55,0,1.83333333333333,42.1070065428546,131.54847015454038,12.165525060596439,25.317977802344327,35.12833614050059,38.118237105091836,27.0,106.38138934982942,81.15417426109393,60.0,35.0,47.0,14.0,65.0,36.0,2.0,18.24828759089466,16.0312195418814,15.5,69.0,40.0,64.32728814430156,268.70057685088807,269.15608854343236,267.46962444359923,254.95097567963924
56,39,56,0,1.8666666666666631,27.018512172212592,126.4792473095883,19.1049731745428,30.14962686336267,31.064449134018133,36.05551275463989,23.021728866442675,99.24716620639605,69.1158447825099,55.5,38.0,49.0,20.5,55.5,21.5,1.5,18.439088914585774,16.0312195418814,16.0,71.0,40.0,61.61168720299745,272.13232075591463,272.7673000929547,269.1635190734435,256.8598839834668
57,39,57,0,1.8999999999999964,19.026297590440446,117.51595636338071,16.1245154965971,28.160255680657446,29.154759474226502,32.0624390837628,26.019223662515376,89.27485648266257,61.1310068623117,51.5,37.0,48.0,16.5,46.5,15.5,0.5,18.439088914585774,16.1245154965971,16.0,71.0,41.0,62.16912416947821,279.48524111301475,280.8629559055448,277.09384691833196,263.4919353604584
58,39,58,0,1.9333333333333296,2.23606797749979,111.36426715962351,15.132745950421556,24.186773244895647,26.076809620810597,29.154759474226502,33.06055050963308,74.43117626371358,50.24937810560445,49.0,38.0,47.0,9.5,31.5,4.5,5.5,18.439088914585774,17.11724276862369,17.0,68.0,39.0,61.39218191268331,274.781731561616,278.08631753468205,274.4321409747772,259.9326835932719
59,39,59,0,1.9666666666666628,1.4142135623730951,108.55873986004075,14.142135623730951,23.194827009486403,26.1725046566048,28.160255680657446,35.014282800023196,73.33484846919642,50.15974481593781,49.5,35.0,46.0,5.5,32.5,6.5,8.5,18.439088914585774,16.1245154965971,16.5,69.0,39.0,60.01666435249463,275.77164466275354,276.22635645426743,271.55294143131647,258.11818998280614
60,39,60,0,1.999999999999996,2.23606797749979,107.46627377926528,13.038404810405298,21.213203435596427,27.16615541441225,29.154759474226502,37.013511046643494,70.34912934784623,49.16299421312742,49.5,35.0,45.0,3.0,30.0,6.0,9.0,17.72004514666935,16.0312195418814,16.0,69.0,38.0,65.30696746902278,273.5141678231678,275.98007174431996,270.3516228913746,253.95472037353431
61,39,61,0,2.033333333333329,2.23606797749979,109.65856099730654,12.165525060596439,18.24828759089466,25.317977802344327,27.294688127912362,35.12833614050059,67.60177512462228,49.36598018878993,48.0,33.0,45.0,4.0,28.0,6.0,9.0,19.6468827043885,17.11724276862369,17.0,70.0,37.0,64.13267497929586,269.97962886114203,272.5233934912744,267.686383665662,252.05158202241066
62,39,62,0,2.0666666666666624,2.23606797749979,110.65260954898443,13.152946437965905,23.194827009486403,28.160255680657446,29.154759474226502,33.015148038438355,71.34423592694787,48.16637831516918,47.0,31.0,43.0,4.0,34.0,8.0,9.0,18.681541692269406,17.029386365926403,17.0,69.0,36.0,63.953107821277925,267.47897113605023,268.70057685088807,263.9469643697385,248.3646512690564
63,39,63,0,2.099999999999996,26.076809620810597,123.9112585683803,12.165525060596439,27.16615541441225,30.265491900843113,34.132096331752024,30.14962686336267,95.524865872714,68.3593446428504,55.0,27.0,42.0,4.5,60.5,29.5,7.5,18.681541692269406,18.027756377319946,18.0,71.0,39.0,63.150613615387776,277.3625785862253,278.3415168457627,272.2590678012396,251.3483638299641
64,39,64,0,2.133333333333329,34.132096331752024,126.28935030318273,12.165525060596439,25.179356624028344,32.55764119219941,36.345563690772494,26.1725046566048,97.62171889492625,72.44308110509934,55.0,23.0,41.0,6.0,65.0,34.0,7.0,17.46424919657298,17.11724276862369,17.0,71.0,37.0,61.0,269.1356535281047,271.1180554666177,264.3274484422683,246.71035649116962
65,39,65,0,2.166666666666662,39.20459156782532,133.6600164596728,11.180339887498949,24.331050121192877,35.35533905932738,39.6232255123179,23.194827009486403,97.86725703727473,73.55270219373317,53.5,20.0,41.0,7.5,66.5,36.5,4.5,17.72004514666935,17.029386365926403,17.0,70.0,36.0,64.32728814430156,265.55978611228016,268.79360111431225,263.89770745499095,242.1239352067449
66,39,66,0,2.199999999999996,44.181444068749045,138.75518008348374,11.180339887498949,24.331050121192877,35.510561809129406,38.47076812334269,22.20360331117452,101.83319694480774,77.52418977325722,55.0,18.0,40.0,7.0,72.0,42.0,5.0,17.46424919657298,17.029386365926403,17.0,71.0,36.0,61.39218191268331,268.09140232390894,272.0900586203031,266.865134478073,245.96137908216403
67,39,67,0,2.2333333333333285,45.09988913511872,140.73023839957068,12.36931687685298,27.294688127912362,35.510561809129406,40.44749683231337,22.02271554554524,106.56922632730333,79.30952023559341,56.5,17.0,39.0,6.0,78.0,45.0,7.0,18.681541692269406,17.11724276862369,17.0,73.0,37.0,67.26812023536856,271.2729252984897,274.7744529609694,271.5879231482873,251.44780770569466
68,39,68,0,2.2666666666666617,47.095647357266465,139.26234236145822,11.40175425099138,24.515301344262525,36.6742416417845,40.607881008493905,21.095023109728988,103.81714694596457,79.40403012442127,55.5,17.0,42.0,8.5,73.5,43.5,4.5,18.681541692269406,17.11724276862369,17.0,70.0,33.0,66.70832032063167,258.14724480420085,263.18814562969965,261.0842775810141,246.1097316239242
69,39,69,0,2.299999999999995,43.104524124504614,138.91724155050014,12.36931687685298,25.317977802344327,35.510561809129406,40.44749683231337,21.095023109728988,101.71037311896953,76.4198926981712,54.5,18.0,41.0,8.5,71.5,40.5,5.5,18.439088914585774,16.1245154965971,16.0,69.0,35.0,61.39218191268331,254.57808232446092,258.68320393871727,257.6140524117425,243.67396249907375
70,39,70,0,2.333333333333328,39.20459156782532,136.7808466123821,12.165525060596439,26.30589287593181,38.47076812334269,42.579337712087536,23.021728866442675,100.60318086422517,74.33034373659252,54.5,22.0,44.0,10.0,67.0,35.0,4.0,19.4164878389476,17.029386365926403,17.0,68.0,33.0,64.03124237432849,251.23096942853203,255.54842985234717,255.47602627252522,242.6849809938802
71,39,71,0,2.3666666666666614,38.118237105091836,135.95955280891445,12.165525060596439,24.331050121192877,36.49657518178932,40.44749683231337,24.0,98.41239759298622,74.16872656315464,55.0,25.0,48.0,12.5,61.5,32.5,1.5,18.439088914585774,17.11724276862369,17.0,66.0,35.0,60.41522986797286,252.41434190631878,254.82739256210272,254.16726775885206,246.35746386095144
72,39,72,0,2.3999999999999946,43.18564576337837,134.21251804507656,12.165525060596439,25.179356624028344,37.21558813185679,41.30375285612676,24.020824298928627,104.47966309287182,79.30952023559341,57.5,30.0,48.0,15.0,65.0,35.0,2.0,18.439088914585774,17.029386365926403,17.0,66.0,36.0,61.39218191268331,255.8378392654222,256.5384961365448,255.01568579207046,248.3646512690564
73,39,73,0,2.433333333333328,45.09988913511872,136.06616037795732,13.038404810405298,23.345235059857504,37.33630940518894,41.30375285612676,25.019992006393608,106.23088063270491,83.05419917138447,60.5,34.0,51.0,17.5,63.5,34.5,3.5,18.24828759089466,16.0312195418814,16.0,65.0,39.0,59.22837157984339,259.2392717163046,263.60955976595386,265.452443951831,256.1347301714471
74,39,74,0,2.466666666666661,47.095647357266465,136.93794214898952,12.041594578792296,23.194827009486403,36.22154055254967,42.190046219457976,25.019992006393608,107.16809226630845,84.0535543567314,60.5,36.0,52.0,19.0,63.0,35.0,6.0,17.11724276862369,15.033296378372908,15.0,61.0,37.0,55.90169943749474,252.7864711569826,255.76551761330143,256.3220630378899,247.97782158894776
75,39,75,0,2.4999999999999942,50.039984012787215,134.72935834479432,13.038404810405298,22.20360331117452,36.124783736376884,41.19465984809196,24.0,109.16501271011697,87.05170877128145,62.0,36.0,50.0,19.0,66.0,38.0,6.0,16.278820596099706,15.033296378372908,15.0,61.0,39.0,61.0,256.7586415293554,258.98455552406983,261.6123085789352,253.23704310388715
76,39,76,0,2.5333333333333274,52.08646657242167,135.6244815658294,13.038404810405298,24.08318915758459,36.124783736376884,41.10960958218893,25.019992006393608,114.10959644131601,90.0499861188218,64.0,39.0,52.0,20.5,68.5,39.5,7.5,16.1245154965971,16.0,15.5,57.0,38.0,57.87054518492115,256.2225595063791,256.12692166189794,252.87348615463821,243.6657546722559
77,39,77,0,2.5666666666666607,55.00909015790027,132.54433220624713,13.152946437965905,26.1725046566048,36.05551275463989,41.048751503547585,23.08679276123039,117.06835610018618,91.00549433962765,63.5,43.0,55.0,26.0,68.0,38.0,13.0,15.297058540778355,14.035668847618199,14.0,57.0,40.0,55.731499172371095,257.5616431070434,257.5616431070434,256.382526705702,244.24782496472716
78,39,78,0,2.599999999999994,59.00847396772772,133.24038426843418,14.035668847618199,24.08318915758459,36.05551275463989,41.012193308819754,23.021728866442675,120.03749414245534,96.00520819205592,66.5,48.0,56.0,29.0,68.0,41.0,16.0,16.1245154965971,14.0,14.0,59.0,44.0,57.55866572463264,253.50542400508908,255.44079548889601,254.33245958783948,242.20652344641752
79,39,79,0,2.633333333333327,59.00847396772772,127.06297651164952,13.038404810405298,22.02271554554524,34.0147027033899,39.0,22.090722034374522,116.00431026474836,94.0,64.5,53.0,57.0,33.0,61.0,36.0,20.0,15.132745950421556,14.0,14.5,58.0,44.0,56.43580423808985,256.382526705702,257.2800031094527,255.12545933324648,244.05122413132864
80,39,80,0,2.6666666666666603,46.010868281309364,119.06720791217035,12.041594578792296,24.020824298928627,32.01562118716424,36.013886210738214,23.021728866442675,105.01904589168576,81.00617260431454,58.0,52.0,56.0,31.0,51.0,25.0,19.0,15.033296378372908,15.0,15.0,54.0,44.0,53.46026561849464,259.43399931389104,258.2789190003706,252.0972034751675,240.00833318866242
81,39,81,0,2.699999999999993,36.0,116.06894502837527,14.0,23.021728866442675,31.016124838541646,34.0147027033899,23.08679276123039,96.00520819205592,73.02739212103907,55.0,52.0,56.0,31.0,42.0,16.0,18.0,16.0312195418814,15.0,15.0,52.0,42.0,51.478150704935004,266.12027356065903,265.01698058803703,260.00192306981114,247.00202428320299
82,39,82,0,2.7333333333333267,23.021728866442675,110.0,13.038404810405298,22.02271554554524,30.0,32.0,25.079872407968907,83.00602387778854,61.032778078668514,49.5,54.0,54.0,29.0,29.0,6.0,16.0,15.0,14.035668847618199,14.5,48.0,40.0,53.23532661682466,270.09072549793336,266.03007348794233,260.0173071162764,248.0020161208372
83,39,83,0,2.76666666666666,19.026297590440446,110.01818031580054,12.0,20.0,28.0178514522438,31.016124838541646,25.019992006393608,76.02631123499285,56.0357029044876,46.5,53.0,51.0,27.0,24.0,3.0,16.0,17.029386365926403,15.033296378372908,14.5,50.0,42.0,54.147945482723536,269.0669061776271,267.0074905316328,263.0019011338131,250.01799935204664
84,39,84,0,2.799999999999993,20.0,115.00434774390054,12.0,19.0,29.0,31.016124838541646,25.019992006393608,76.00657866263946,57.0087712549569,47.0,52.0,51.0,26.5,24.5,5.5,15.5,15.0,15.033296378372908,14.5,50.0,41.0,55.14526271584895,266.04698833100895,264.0075756488817,260.00192306981114,247.0323865407125
85,39,85,0,2.8333333333333264,17.0,113.0,11.0,20.0,30.0,32.01562118716424,25.019992006393608,73.00684899377592,53.009433122794285,44.5,50.0,50.0,25.0,23.0,1.0,14.0,15.0,14.035668847618199,14.0,50.0,42.0,51.35172830587107,268.1193763979023,265.04716561397146,260.0076921939041,246.00203251192866
86,39,86,0,2.86666666666666,19.0,111.04053313993049,12.0,20.024984394500787,30.0,33.015148038438355,24.0,75.0066663703967,55.0,45.5,47.0,50.0,24.5,26.5,5.5,13.5,14.035668847618199,12.041594578792296,12.5,50.0,40.0,50.35871324805669,267.15164233071823,265.09243670840556,259.0694887477103,246.05080776132397
87,39,87,0,2.899999999999993,25.0,112.01785571952357,12.041594578792296,20.024984394500787,30.01666203960727,33.0,22.02271554554524,79.00632886041473,59.0,46.5,46.0,48.0,25.0,32.0,10.0,13.0,12.0,11.180339887498949,11.0,51.0,39.0,54.45181356024793,262.1221089492453,261.0689564080724,257.0486335306998,244.0327846827143
88,39,88,0,2.933333333333326,37.013511046643494,116.1077086157504,11.045361017187261,20.024984394500787,30.01666203960727,35.0,23.021728866442675,91.02197536858887,71.00704190430693,52.5,45.0,50.0,24.5,43.5,20.5,13.5,13.038404810405298,12.041594578792296,12.0,54.0,40.0,54.589376255824725,260.1922366251537,260.1230478062257,255.09606033806168,241.05186163977245
89,39,89,0,2.9666666666666592,39.01281840626232,119.10499569707393,13.0,21.02379604162864,34.0147027033899,39.01281840626232,23.08679276123039,96.0,75.0066663703967,55.5,46.0,51.0,25.5,47.5,23.5,13.5,14.0,13.038404810405298,13.0,53.0,41.0,54.45181356024793,261.19150062741323,261.0938528575501,257.0486335306998,242.0185943269649
90,39,90,0,2.9999999999999925,40.01249804748511,123.10158406779338,12.0,19.026297590440446,35.014282800023196,39.01281840626232,23.021728866442675,94.00531899844816,75.0,55.0,44.0,49.0,23.5,47.5,25.5,12.5,13.038404810405298,13.038404810405298,12.5,53.0,40.0,55.57877292636101,256.1952380509833,255.15877409957903,252.1269521491108,239.1693960355296
91,39,91,0,3.0333333333333257,41.012193308819754,123.14625451064275,12.0,22.02271554554524,35.0,40.01249804748511,22.090722034374522,97.0,75.0066663703967,54.5,42.0,48.0,23.0,52.0,27.0,12.0,13.038404810405298,12.0,12.5,51.0,40.0,54.589376255824725,255.1960031034969,256.12496949731394,252.0972034751675,240.10206163213175
92,39,92,0,3.066666666666659,45.0,124.10076550932311,12.0,21.02379604162864,36.013886210738214,39.0,22.20360331117452,100.0199980003999,79.05694150420949,56.5,44.0,49.0,24.5,53.5,29.5,13.5,13.038404810405298,12.0,12.5,51.0,39.0,56.568542494923804,259.12352266824405,259.04825805243314,255.01764644824092,242.00206610688264
93,39,93,0,3.099999999999992,47.0,123.10158406779338,12.0,21.02379604162864,36.013886210738214,39.01281840626232,21.095023109728988,101.00495037373169,80.02499609497022,56.5,44.0,49.0,25.5,54.5,30.5,14.5,13.0,12.041594578792296,12.0,49.0,39.0,51.62363799656123,255.07057846799972,255.03137061938085,251.00796800101784,239.0083680543424
94,39,94,0,3.1333333333333253,47.0,120.10412149464314,11.045361017187261,19.0,36.013886210738214,39.01281840626232,19.1049731745428,96.00520819205592,77.00649323271382,53.5,43.0,48.0,26.5,50.5,28.5,16.5,10.04987562112089,10.0,10.0,46.0,37.0,49.36598018878993,262.03053257206494,259.01737393464555,255.00784301664135,240.00208332429116
95,39,95,0,3.1666666666666585,44.01136216933077,124.10076550932311,10.04987562112089,19.026297590440446,35.014282800023196,39.0,22.20360331117452,95.0,76.00657866263946,54.0,42.0,47.0,22.5,50.5,28.5,13.5,6.0,6.082762530298219,6.5,45.0,36.0,55.44366510251645,258.0174412709342,257.00194551792794,254.0019684963091,242.00826432169626
96,39,96,0,3.199999999999992,43.01162633521314,121.03718436910205,12.0,19.026297590440446,34.0,37.013511046643494,20.024984394500787,94.00531899844816,75.02666192761077,53.5,45.0,48.0,26.5,47.5,25.5,15.5,7.0710678118654755,6.324555320336759,6.5,43.0,33.0,55.326304774492215,258.15692901799093,257.0311265197272,252.00793638296395,240.00208332429116
97,39,97,0,3.233333333333325,33.0,112.01785571952357,4.123105625617661,15.0,30.01666203960727,32.01562118716424,17.0,69.00724599634447,54.00925846556311,37.5,24.0,26.0,8.0,44.0,27.0,5.0,10.04987562112089,10.04987562112089,9.5,24.0,23.0,51.0,266.092089322475,261.1225765804252,252.0972034751675,237.01898658124415
98,39,98,0,3.266666666666658,6.082762530298219,97.0051545022222,7.0,14.0,29.017236257093817,30.01666203960727,19.026297590440446,46.04345773288535,32.0624390837628,29.0,19.0,20.0,0.5,26.5,9.5,4.5,16.1245154965971,15.132745950421556,14.5,34.0,31.0,56.0357029044876,260.00192306981114,255.0019607767752,243.03291958086666,227.05505940189926
99,39,99,0,3.2999999999999914,47.01063709417264,113.0,10.0,16.0312195418814,30.0,33.0,20.0,93.02150289046077,77.00649323271382,53.5,48.0,48.0,28.0,45.0,27.0,19.0,9.0,9.055385138137417,9.0,28.0,28.0,51.0098029794274,245.05101509685693,238.05251521460553,230.17601960239037,215.23243250030885
100,39,100,0,3.3333333333333246,18.027756377319946,108.04165863221463,7.0,15.0,31.016124838541646,33.0,10.04987562112089,50.0,35.0,26.0,15.0,12.0,3.5,36.5,20.5,1.5,10.198039027185569,11.0,11.5,29.0,36.0,42.04759208325728,235.00851048419503,233.0085835328819,228.01973598791838,221.02036105300343
101,39,101,0,3.366666666666658,21.0,106.01886624558857,7.0710678118654755,15.0,27.018512172212592,29.017236257093817,14.560219778561036,57.07889277132134,42.1070065428546,31.5,27.0,29.0,14.0,29.0,12.0,8.0,12.041594578792296,11.045361017187261,11.0,26.0,22.0,52.08646657242167,252.00793638296395,251.07170290576354,245.09997960016236,236.13555429032706
102,39,102,0,3.399999999999991,8.246211251235321,100.00499987500625,5.0,15.033296378372908,28.0,29.017236257093817,14.142135623730951,42.2965719651132,27.294688127912362,23.0,19.0,18.0,4.5,23.5,7.5,0.5,12.165525060596439,10.04987562112089,11.0,26.0,21.0,51.03920062069938,245.00204080782675,245.09997960016236,240.20824298928628,231.3114783144148
103,39,103,0,3.433333333333324,7.0710678118654755,89.00561780022652,6.0,9.0,21.0,22.0,20.024984394500787,42.04759208325728,33.06055050963308,29.5,22.0,23.0,2.5,19.5,7.5,1.5,14.142135623730951,14.142135623730951,13.5,32.0,28.0,43.04648650006177,239.00209204105306,238.03361107205006,234.10467744152402,226.2211307548435
104,39,104,0,3.466666666666657,2.23606797749979,85.0,4.0,7.0710678118654755,20.024984394500787,21.0,24.08318915758459,33.24154027718932,26.1725046566048,27.0,21.0,21.0,3.0,12.0,4.0,6.0,12.041594578792296,12.041594578792296,12.0,27.0,24.0,45.0111097397076,237.0,236.05296015936761,231.17525819170183,222.44100341438852
105,39,105,0,3.4999999999999907,10.04987562112089,96.00520819205592,3.0,8.06225774829855,24.0,25.0,15.132745950421556,36.22154055254967,28.160255680657446,23.0,17.0,18.0,2.5,18.5,9.5,0.5,12.041594578792296,11.045361017187261,11.0,27.0,23.0,49.01020301937138,244.00204917172314,242.05164738129753,236.13555429032706,227.31695933211847
106,39,106,0,3.533333333333324,13.152946437965905,99.0,6.0,10.0,24.0,25.019992006393608,28.0178514522438,57.07889277132134,47.095647357266465,40.5,45.0,45.0,17.0,12.0,1.0,12.0,12.0,12.041594578792296,12.0,21.0,20.0,49.040799340956916,242.00206610688264,237.03375287076733,234.10467744152402,225.17992805754247
107,39,107,0,3.566666666666657,17.11724276862369,95.02105029939419,9.0,12.041594578792296,22.02271554554524,23.0,24.020824298928627,62.12889826803627,50.08991914547278,41.5,50.0,48.0,25.0,13.0,0.0,17.0,13.0,13.038404810405298,12.5,24.0,22.0,46.0,247.01821795163207,242.10121850168372,238.20999139414786,229.36869882353173
108,39,108,0,3.5999999999999903,10.0,87.02298546935747,8.06225774829855,12.041594578792296,21.095023109728988,22.0,28.0178514522438,58.077534382926416,46.04345773288535,41.0,49.0,51.0,22.0,8.0,5.0,13.0,10.04987562112089,11.045361017187261,11.0,29.0,24.0,38.2099463490856,240.10206163213175,241.0186714758838,238.0021008310641,230.05434140654683
109,39,109,0,3.633333333333324,5.0990195135927845,91.00549433962765,8.0,13.0,21.0,23.0,23.021728866442675,49.040799340956916,36.05551275463989,33.5,34.0,33.0,10.5,15.5,1.5,4.5,13.038404810405298,11.045361017187261,12.0,31.0,26.0,50.15974481593781,248.0020161208372,244.00819658363937,240.05207768315609,232.2154172315008
110,39,110,0,3.6666666666666567,8.246211251235321,88.0056816347672,13.0,19.0,25.019992006393608,26.019223662515376,30.066592756745816,70.11419257183242,51.15662224971465,47.0,57.0,56.0,26.5,13.5,7.5,13.5,13.0,13.0,13.5,33.0,30.0,45.044422518220834,250.00199999200007,246.00203251192866,238.0021008310641,226.03539545832197
111,39,111,0,3.69999999999999,28.0178514522438,101.00495037373169,11.0,19.0,28.0,31.0,24.020824298928627,82.02438661763951,63.0317380372777,49.0,51.0,52.0,27.5,30.5,10.5,17.5,14.0,14.0,14.5,34.0,32.0,44.10215414239989,249.0,243.00823031329617,237.00843866833097,225.00888871331284
112,39,112,0,3.733333333333323,47.01063709417264,106.00471687618433,13.0,21.02379604162864,31.016124838541646,34.0147027033899,19.1049731745428,100.07996802557443,79.05694150420949,55.5,54.0,55.0,35.5,45.5,21.5,22.5,13.038404810405298,12.041594578792296,12.0,38.0,36.0,50.039984012787215,244.0,241.0020746798666,237.01898658124415,224.03571143904713
113,39,113,0,3.766666666666656,45.0111097397076,106.00471687618433,10.0,20.024984394500787,30.01666203960727,33.015148038438355,23.194827009486403,98.12746812182611,78.10249675906654,55.5,56.0,55.0,32.5,42.5,19.5,23.5,9.055385138137417,9.0,9.0,39.0,36.0,51.03920062069938,244.00204917172314,240.0,236.00211863455803,225.00222221124838
114,39,114,0,3.7999999999999896,32.01562118716424,98.02040603874276,12.0,20.0,25.019992006393608,29.017236257093817,23.08679276123039,87.05170877128145,67.06713054842886,51.0,56.0,54.0,32.0,32.0,11.0,21.0,5.0990195135927845,5.0,5.0,42.0,38.0,48.093658625644196,246.07315985291854,243.0514348857048,238.05251521460553,226.03539545832197
115,39,115,0,3.833333333333323,15.033296378372908,90.0222194794152,11.0,20.0,24.0,26.0,28.071337695236398,74.06078584514209,54.08326913195984,46.5,55.0,53.0,26.0,20.0,1.0,15.0,4.123105625617661,5.0990195135927845,4.5,42.0,38.0,48.16637831516918,251.0019920239678,248.0,242.00826432169626,229.01964981197574
116,39,116,0,3.866666666666656,4.123105625617661,96.00520819205592,14.0,19.0,23.0,26.0,28.0178514522438,65.03076195155643,46.04345773288535,44.0,50.0,49.0,21.5,15.5,5.5,8.5,3.1622776601683795,4.123105625617661,4.0,42.0,36.0,41.19465984809196,252.03174403237384,249.0321264415497,244.0184419260151,231.00865784641059
117,39,117,0,3.899999999999989,10.0,101.00495037373169,14.035668847618199,21.02379604162864,26.0,27.0,28.0178514522438,73.00684899377592,52.0,47.0,49.0,50.0,21.5,23.5,0.5,7.5,5.0,5.385164807134504,4.5,46.0,37.0,45.5411901469428,248.12899870833317,246.13004692641653,242.20652344641752,232.26062946612367
118,39,118,0,3.9333333333333225,17.029386365926403,105.17128885774862,12.041594578792296,20.024984394500787,27.073972741361768,30.01666203960727,29.017236257093817,78.10249675906654,58.077534382926416,49.5,47.0,53.0,21.0,28.0,5.0,9.0,6.0,7.0710678118654755,6.5,49.0,35.0,48.83646178829912,248.34049206683954,245.29370150902776,241.25090673404733,232.2154172315008
119,39,119,0,3.966666666666656,32.0624390837628,109.03669107231748,11.045361017187261,20.09975124224178,30.14962686336267,34.23448553724738,25.079872407968907,88.2779700718135,68.18357573492314,52.0,39.0,54.0,21.5,41.5,16.5,9.5,10.04987562112089,9.486832980505138,9.0,54.0,29.0,45.60701700396552,250.3197954617253,247.08095839218367,242.98559628093184,232.57256931977167
120,39,120,0,3.999999999999989,33.13608305156178,108.67382389517726,10.198039027185569,19.4164878389476,29.427877939124322,32.55764119219941,25.079872407968907,87.69264507357501,68.3593446428504,51.5,37.0,56.0,21.5,40.5,17.5,9.5,12.36931687685298,11.40175425099138,10.5,59.0,25.0,46.17358552246078,252.00992043965255,248.4854120466632,243.64728605096343,231.14497615133234
121,39,121,0,4.033333333333323,31.144823004794873,110.63453348751464,12.165525060596439,22.561028345356956,29.614185789921695,33.54101966249684,25.709920264364882,91.41115905621152,68.8839603971781,52.5,35.0,59.0,22.0,43.0,16.0,8.0,12.36931687685298,11.704699910719626,10.5,60.0,22.0,48.104053883222775,254.78814729103863,252.99011838409817,247.50353532828578,232.46720198772127
122,39,122,0,4.066666666666656,32.14031735997639,107.70793842609746,11.40175425099138,21.37755832643195,28.635642126552707,31.575306807693888,25.0,89.62700485902673,68.24954212300622,51.0,35.0,59.0,23.0,41.0,15.0,10.0,12.36931687685298,11.704699910719626,10.5,60.0,20.0,47.75981574503821,255.93163149560078,253.21334877924585,247.42069436488129,233.63646975590092
123,39,123,0,4.099999999999989,28.160255680657446,106.96261028976434,13.341664064126334,21.37755832643195,27.892651361962706,31.575306807693888,24.73863375370596,87.47571091451616,66.09841147864296,51.0,36.0,61.0,24.5,37.5,11.5,8.5,12.36931687685298,11.704699910719626,11.0,60.0,20.0,45.5411901469428,250.04999500099976,248.9196657558418,245.9532475898621,232.93990641364996
124,39,124,0,4.133333333333322,26.076809620810597,106.73331251301067,12.36931687685298,21.37755832643195,27.65863337187866,30.59411708155671,25.96150997149434,85.5102333057278,64.13267497929586,50.0,36.0,60.0,23.0,36.0,11.0,9.0,11.704699910719626,11.704699910719626,10.5,59.0,20.0,44.94441010848846,251.23096942853203,249.7298540423231,244.8121728999602,232.93990641364996
125,39,125,0,4.166666666666655,26.1725046566048,106.51291001564083,11.40175425099138,22.360679774997898,27.459060435491963,31.400636936215164,25.709920264364882,85.5102333057278,63.150613615387776,49.0,36.0,59.0,22.5,36.5,10.5,9.5,12.36931687685298,11.704699910719626,11.0,59.0,21.0,41.78516483155236,257.51310646256434,254.8489748851268,248.93774322107123,236.02754076590298
126,39,126,0,4.199999999999989,28.071337695236398,107.07940978544848,12.36931687685298,21.37755832643195,28.635642126552707,30.4138126514911,26.68332812825267,88.28363381737297,66.91038783328041,52.0,37.0,58.0,21.5,39.5,14.5,7.5,14.560219778561036,13.341664064126334,13.0,60.0,23.0,45.880278987817846,254.75674672125956,252.3529274646918,247.48737341529164,234.5591609807641
127,39,127,0,4.233333333333322,29.154759474226502,107.28000745712129,11.40175425099138,21.37755832643195,27.65863337187866,31.575306807693888,26.68332812825267,88.45903006477066,67.08203932499369,51.5,36.0,58.0,21.0,40.0,15.0,8.0,15.524174696260024,13.341664064126334,13.5,60.0,24.0,42.05948168962618,267.1666146808018,262.3833073958784,253.86019774671254,238.0273093575609
128,39,128,0,4.266666666666655,29.154759474226502,107.07940978544848,12.36931687685298,22.360679774997898,29.614185789921695,32.55764119219941,27.459060435491963,91.2414379544733,68.8839603971781,53.5,37.0,58.0,20.5,42.5,16.5,6.5,15.524174696260024,15.297058540778355,15.0,59.0,25.0,41.48493702538308,264.1685068285014,260.4611295375953,252.85766747322495,239.0397456491284
129,39,129,0,4.299999999999988,29.154759474226502,107.28000745712129,11.180339887498949,22.561028345356956,28.635642126552707,32.55764119219941,27.459060435491963,90.2551937563706,67.7421582177598,52.5,36.0,58.0,20.0,42.0,15.0,7.0,15.524174696260024,14.560219778561036,14.0,58.0,26.0,40.80441152620633,263.59059163786554,261.2278698760911,255.7381473304286,242.03305559365234
130,39,130,0,4.3333333333333215,28.284271247461902,106.09901036296239,12.165525060596439,22.561028345356956,27.65863337187866,30.59411708155671,27.294688127912362,90.2551937563706,67.7421582177598,53.0,37.0,58.0,20.5,41.5,15.5,6.5,13.601470508735444,13.341664064126334,12.5,58.0,25.0,44.384682042344295,265.1490147068248,262.9923953273174,256.71969149249145,244.36857408431223
131,39,131,0,4.366666666666655,23.08679276123039,103.94229168149026,13.152946437965905,23.53720459187964,25.495097567963924,28.442925306655784,28.160255680657446,87.82368700982668,64.38167441127949,52.5,39.0,59.0,21.0,38.0,10.0,7.0,13.601470508735444,12.165525060596439,12.5,58.0,25.0,45.880278987817846,263.0304164920856,260.6549443229497,253.97047072445253,240.25195108468944
132,39,132,0,4.399999999999988,12.165525060596439,100.22474744293447,13.341664064126334,22.561028345356956,24.73863375370596,27.65863337187866,31.144823004794873,79.07591289387686,56.568542494923804,50.0,39.0,60.0,18.5,28.5,1.5,3.5,14.866068747318506,12.649110640673518,12.5,59.0,24.0,45.880278987817846,261.7365087258558,260.99042128016885,254.46610776290032,242.6375898330677
133,39,133,0,4.433333333333321,5.0,95.34149149242423,15.132745950421556,24.515301344262525,22.80350850198276,26.68332812825267,31.400636936215164,75.50496672405067,50.99019513592785,48.0,39.0,60.0,18.5,24.5,3.5,1.5,13.92838827718412,12.649110640673518,12.0,59.0,21.0,47.53945729601885,262.77366686941826,262.50523804297694,255.66579747787932,243.50770008359078
134,39,134,0,4.466666666666654,12.36931687685298,95.56673061269805,14.317821063276353,23.769728648009426,23.769728648009426,26.68332812825267,29.274562336608895,79.62411694957753,55.90169943749474,49.0,38.0,60.0,20.0,29.0,1.0,4.0,14.866068747318506,12.649110640673518,12.5,62.0,23.0,47.12748667179272,263.46916328101855,262.94486114012574,253.9389690457138,239.87079855622275
135,39,135,0,4.499999999999988,15.297058540778355,98.71676655968832,13.341664064126334,23.53720459187964,22.80350850198276,25.495097567963924,28.635642126552707,80.8084154033477,57.271284253105414,48.5,37.0,60.0,20.5,30.5,3.5,4.5,14.866068747318506,13.601470508735444,13.5,63.0,22.0,50.28916384272063,264.0075756488817,262.94486114012574,255.87692353942353,240.60756430336932
136,39,136,0,4.533333333333321,18.24828759089466,100.89598604503551,14.317821063276353,25.709920264364882,25.96150997149434,28.635642126552707,26.68332812825267,84.92938243034621,59.22837157984339,49.0,36.0,60.0,22.0,35.0,6.0,5.0,17.72004514666935,15.524174696260024,15.5,63.0,22.0,46.17358552246078,269.3640659033792,267.0674072214728,260.2498799231231,244.80604567698077
137,39,137,0,4.566666666666654,18.24828759089466,98.71676655968832,14.317821063276353,23.769728648009426,25.709920264364882,28.635642126552707,27.892651361962706,84.17244204607586,60.41522986797286,50.0,39.0,62.0,23.5,31.5,5.5,7.5,18.027756377319946,16.492422502470642,16.0,66.0,22.0,50.59644256269407,270.325729445053,265.84393918237066,254.691970819655,236.91348631937356
138,39,138,0,4.599999999999987,22.20360331117452,101.13851887386922,13.601470508735444,23.769728648009426,25.709920264364882,28.635642126552707,27.892651361962706,87.32124598286491,63.56099432828282,51.0,37.0,62.0,22.5,35.5,8.5,7.5,17.08800749063506,15.297058540778355,15.0,66.0,21.0,47.75981574503821,273.6512378923216,269.09106265351886,257.5732905407702,237.7561776274173
139,39,139,0,4.63333333333332,26.30589287593181,100.16985574512923,12.36931687685298,21.840329667841555,27.892651361962706,29.614185789921695,27.892651361962706,88.29496021857646,66.49060083951716,52.0,37.0,62.0,22.5,36.5,10.5,7.5,17.08800749063506,15.297058540778355,15.0,65.0,21.0,44.27188724235731,270.60118255469615,265.5899094468764,255.44079548889601,235.34230388946224
140,39,140,0,4.666666666666654,23.194827009486403,101.86756107809786,13.601470508735444,24.73863375370596,25.709920264364882,29.614185789921695,28.635642126552707,90.02777349240623,65.30696746902278,52.5,37.0,61.0,21.0,39.0,11.0,6.0,18.027756377319946,16.492422502470642,16.5,64.0,21.0,46.8187996428785,278.0287754891569,273.09522148876937,262.8193295783246,241.04978738841484
141,39,141,0,4.699999999999987,20.223748416156685,102.83968105745953,13.341664064126334,25.96150997149434,27.65863337187866,29.427877939124322,28.635642126552707,88.07383266328314,62.16912416947821,51.0,35.0,59.0,19.0,39.0,11.0,4.0,18.027756377319946,16.492422502470642,16.0,65.0,22.0,48.38388161361178,275.6827887264637,271.4000736919576,260.86394921491166,240.8692591427972
142,39,142,0,4.73333333333332,21.213203435596427,100.89598604503551,13.601470508735444,25.96150997149434,25.709920264364882,28.442925306655784,29.427877939124322,90.02777349240623,64.13267497929586,52.5,34.0,58.0,17.0,42.0,13.0,2.0,18.973665961010276,17.26267650163207,17.0,65.0,22.0,50.96076922496363,275.0,271.64867016055865,262.26894593146176,243.0164603478538
143,39,143,0,4.766666666666653,16.278820596099706,103.07764064044152,13.601470508735444,25.709920264364882,25.709920264364882,28.442925306655784,30.265491900843113,85.70297544426332,60.01666435249463,51.0,33.0,58.0,15.5,38.5,9.5,0.5,18.973665961010276,18.24828759089466,17.5,66.0,22.0,50.28916384272063,276.64417579265967,273.3386178350948,264.7753764986465,247.93547547698776
144,39,144,0,4.7999999999999865,15.524174696260024,99.92497185388645,14.317821063276353,25.709920264364882,25.495097567963924,28.635642126552707,30.59411708155671,86.12200647918046,60.41522986797286,51.5,35.0,59.0,17.0,37.0,8.0,2.0,19.924858845171276,18.439088914585774,18.0,65.0,21.0,51.24451190127583,273.2123716086078,270.4311372604863,262.26894593146176,244.36857408431223
145,39,145,0,4.83333333333332,15.297058540778355,102.1077861869505,13.601470508735444,24.73863375370596,24.73863375370596,27.65863337187866,31.400636936215164,84.92938243034621,60.207972893961475,51.5,34.0,59.0,15.5,36.5,8.5,0.5,19.924858845171276,17.46424919657298,17.0,66.0,21.0,50.59644256269407,276.1014306373656,272.3692346796899,262.26894593146176,245.16525039246488
146,39,146,0,4.866666666666653,17.46424919657298,101.86756107809786,12.36931687685298,25.709920264364882,24.515301344262525,28.442925306655784,32.2490309931942,87.66413177577246,61.98386886924694,52.5,35.0,59.0,15.0,39.0,10.0,1.0,20.248456731316587,16.278820596099706,16.5,70.0,24.0,52.49761899362675,278.29660436304283,273.5854528296415,264.2214979898494,247.315587862957
147,39,147,0,4.899999999999986,24.186773244895647,108.41586599755591,12.649110640673518,27.892651361962706,26.92582403567252,29.614185789921695,30.14962686336267,94.54099639838793,66.75327707311455,54.0,34.0,61.0,17.5,45.5,14.5,2.5,19.924858845171276,17.26267650163207,17.5,69.0,22.0,52.81098370604357,282.41812972966164,280.14639030335553,270.95571593897034,253.39297543538967
148,39,148,0,4.933333333333319,27.294688127912362,110.85576214162258,13.341664064126334,26.68332812825267,27.892651361962706,31.78049716414141,29.274562336608895,96.5090669315583,69.87131027825369,55.5,32.0,57.0,15.5,50.5,19.5,0.5,19.924858845171276,17.26267650163207,17.5,71.0,23.0,56.61271941887264,277.0649743291274,275.3125496594734,266.5520587052368,249.14654322305978
149,39,149,0,4.966666666666653,34.23448553724738,115.44695751729449,12.36931687685298,25.709920264364882,28.160255680657446,31.78049716414141,28.442925306655784,100.62305898749054,74.96665925596525,57.0,30.0,58.0,16.0,55.0,25.0,1.0,19.924858845171276,18.110770276274835,18.5,69.0,24.0,52.20153254455275,282.0815484926301,279.6587205863604,273.7882393383616,253.58430550804994
150,39,150,0,4.999999999999986,28.284271247461902,114.75626344561765,12.36931687685298,26.68332812825267,28.635642126552707,33.54101966249684,28.284271247461902,95.524865872714,68.8839603971781,54.0,30.0,55.0,14.5,51.5,20.5,0.5,18.973665961010276,17.26267650163207,17.0,70.0,23.0,54.70831746635972,272.8681000043794,272.3692346796899,266.5520587052368,249.14654322305978
151,39,151,0,5.033333333333319,36.345563690772494,118.35962149314267,13.341664064126334,24.515301344262525,28.861739379323623,32.7566787083184,27.459060435491963,101.6070863670443,77.10382610480494,58.0,29.0,57.0,16.0,57.0,27.0,1.0,19.924858845171276,18.24828759089466,18.0,70.0,24.0,52.81098370604357,268.972117514065,268.49581002317336,262.48809496813374,245.35892076710803
152,39,152,0,5.066666666666652,39.20459156782532,115.73245007343446,12.36931687685298,24.515301344262525,29.614185789921695,33.54101966249684,27.459060435491963,103.40696301506973,78.91767862779544,58.5,31.0,56.0,16.5,58.5,28.5,2.5,21.840329667841555,19.235384061671343,19.0,71.0,25.0,56.92099788303083,266.5520587052368,263.68541863364385,257.9321616239433,243.19539469323837
153,39,153,0,5.099999999999985,38.2099463490856,115.73245007343446,13.341664064126334,25.709920264364882,30.59411708155671,34.52535300326414,27.16615541441225,104.23531071570709,78.63841300535,59.0,33.0,58.0,18.5,57.5,26.5,3.5,19.6468827043885,18.24828759089466,18.0,71.0,29.0,52.49761899362675,263.79727064547126,263.18814562969965,257.3285837212804,240.52026941611388
154,39,154,0,5.133333333333319,37.21558813185679,116.29703349613007,12.165525060596439,24.331050121192877,30.59411708155671,34.36568055487916,28.284271247461902,101.96568050084302,77.64663547121665,58.5,36.0,59.0,19.5,53.5,24.5,5.5,19.6468827043885,18.110770276274835,18.5,70.0,32.0,52.49761899362675,261.4287665885298,261.444066675838,254.48968544913564,239.7185850116757
155,39,155,0,5.166666666666652,38.118237105091836,113.77170122662314,12.165525060596439,21.37755832643195,29.614185789921695,33.37663853655727,27.294688127912362,98.85848471426213,77.52418977325722,58.0,41.0,61.0,24.0,47.0,21.0,10.0,19.4164878389476,18.110770276274835,18.0,67.0,34.0,50.96076922496363,263.2128416320146,262.4804754643667,255.88473967784793,241.19701490690136
156,39,156,0,5.199999999999985,64.0,113.35784048754634,15.033296378372908,27.073972741361768,35.12833614050059,40.11234224026316,23.194827009486403,129.1394595001853,102.07840124139877,70.0,64.0,73.0,45.5,60.5,29.5,29.5,15.033296378372908,15.0,15.5,48.0,34.0,52.3450093132096,281.710844661685,274.6579691179559,266.60832695172894,249.57964660604839
157,39,157,0,5.233333333333318,50.00999900019995,118.51160280748886,15.033296378372908,24.08318915758459,33.06055050963308,38.118237105091836,23.021728866442675,112.11155159036913,88.05112151472007,63.0,55.0,66.0,37.5,51.5,23.5,21.5,15.033296378372908,15.033296378372908,15.0,47.0,34.0,52.3450093132096,276.65321252427196,271.53268679847736,265.3695536417092,251.24092023394596
158,39,158,0,5.266666666666652,38.01315561749642,118.27087553578015,13.038404810405298,22.02271554554524,31.064449134018133,34.058772731852805,22.02271554554524,95.02105029939419,73.00684899377592,54.0,48.0,56.0,30.0,43.0,18.0,17.0,15.033296378372908,16.0312195418814,15.5,48.0,37.0,47.265209192385896,276.52305509667724,273.4684625327023,269.5366394388711,256.382526705702
159,39,159,0,5.299999999999985,34.0,110.07270324653611,12.0,21.02379604162864,31.016124838541646,35.05709628591621,24.020824298928627,91.0,70.00714249274856,53.0,50.0,54.0,28.0,39.0,15.0,16.0,16.0,15.033296378372908,15.0,48.0,38.0,47.16990566028302,271.0903908293321,269.0669061776271,266.04698833100895,253.03161857759991
160,39,160,0,5.333333333333318,28.0,103.04368005850722,13.038404810405298,23.021728866442675,28.0178514522438,33.015148038438355,27.018512172212592,91.00549433962765,68.0,54.0,53.0,56.0,27.5,36.5,10.5,14.5,15.033296378372908,14.142135623730951,14.5,49.0,41.0,42.2965719651132,269.2248131209306,267.1872002922296,263.1539473388153,250.09798079952586
161,39,161,0,5.366666666666651,22.0,106.07544484940895,14.035668847618199,23.021728866442675,27.018512172212592,30.01666203960727,30.0,89.02246907382428,66.007575322837,55.0,54.0,58.0,26.0,33.0,8.0,11.0,15.0,14.035668847618199,14.0,48.0,40.0,45.27692569068709,269.1858094328154,267.15164233071823,262.1221089492453,249.09837414162303
162,39,162,0,5.399999999999984,17.0,102.07840124139877,15.033296378372908,23.08679276123039,27.018512172212592,30.0,32.0,87.05170877128145,64.00781202322104,55.5,55.0,59.0,25.0,30.0,5.0,10.0,15.033296378372908,14.0,14.5,48.0,41.0,46.17358552246078,268.26852219371546,266.1879035568671,261.1225765804252,247.07286374670934
163,39,163,0,5.433333333333318,14.0,100.04498987955368,14.035668847618199,25.0,27.018512172212592,30.066592756745816,31.016124838541646,84.0,59.0,52.0,56.0,59.0,26.5,26.5,1.5,12.5,15.132745950421556,13.038404810405298,13.5,51.0,40.0,44.28317965096906,273.26360899322106,269.1858094328154,262.1221089492453,246.07315985291854
164,39,164,0,5.466666666666651,16.0312195418814,100.07996802557443,13.0,26.019223662515376,25.079872407968907,28.0178514522438,32.0624390837628,87.09190547921202,61.07372593840988,53.0,54.0,58.0,24.0,31.0,3.0,11.0,16.1245154965971,15.0,15.5,53.0,41.0,50.24937810560445,270.1851217221259,269.1189328159578,262.0477055804916,245.01836665850175
165,39,165,0,5.499999999999984,20.0,101.04454463255303,12.0,26.019223662515376,25.019992006393608,29.017236257093817,33.0,91.00549433962765,65.0,55.0,53.0,56.0,21.5,36.5,8.5,9.5,16.0312195418814,15.033296378372908,15.0,58.0,43.0,52.61178575186362,272.360055808483,270.1851217221259,262.0686932847951,246.0081299469593
166,39,166,0,5.533333333333317,24.0,106.01886624558857,12.041594578792296,25.0,26.019223662515376,29.0,32.0624390837628,93.00537618869137,68.00735254367721,56.0,50.0,52.0,19.0,42.0,14.0,7.0,16.1245154965971,15.0,15.0,61.0,46.0,59.413803110051795,271.1180554666177,270.0296280040396,264.0,248.07257002740147
167,39,167,0,5.56666666666665,31.016124838541646,115.00434774390054,11.0,23.0,31.0,33.015148038438355,30.01666203960727,95.0,72.0,56.5,46.0,47.0,16.5,48.5,23.5,6.5,15.033296378372908,13.0,13.0,59.0,46.0,59.413803110051795,273.18308878845335,273.045783706689,268.00186566514793,252.01785651020842
168,39,168,0,5.599999999999984,30.01666203960727,117.00427342623003,12.0,25.019992006393608,32.0,36.05551275463989,29.017236257093817,96.00520819205592,71.0,56.0,45.0,44.0,15.5,51.5,24.5,5.5,14.035668847618199,13.0,12.5,60.0,49.0,60.207972893961475,271.0903908293321,272.02941017470886,268.0,253.0177859360879
169,39,169,0,5.633333333333317,27.0,118.03812943282352,12.041594578792296,23.021728866442675,31.016124838541646,34.132096331752024,28.0178514522438,90.00555538409837,67.0,53.5,44.0,41.0,14.5,47.5,23.5,4.5,12.041594578792296,10.0,10.5,57.0,48.0,57.3149195236284,270.0018518455012,270.0074073057997,265.04716561397146,249.1625975141534
170,39,170,0,5.66666666666665,31.016124838541646,116.52038448271615,13.0,25.0,31.144823004794873,35.22782990761707,27.018512172212592,96.02083107326243,71.02816342831905,55.5,51.0,40.0,18.5,50.5,25.5,8.5,8.0,7.0,7.0,54.0,51.0,53.03772242470448,279.00716836669267,278.0647406630334,271.2231553536681,253.4442739538615
171,39,171,0,5.699999999999983,33.015148038438355,115.84903970253703,12.0,24.0,31.25699921617557,35.510561809129406,27.018512172212592,96.02083107326243,72.02777242147643,55.5,54.0,40.0,20.0,49.0,25.0,11.0,7.0,7.0,6.5,52.0,50.0,51.0098029794274,271.1844390815963,270.4163456597992,264.7564918939666,248.16325271885037
172,39,172,0,5.7333333333333165,33.06055050963308,113.86395390991831,12.0,23.021728866442675,31.144823004794873,34.36568055487916,26.1725046566048,94.19129471453293,71.17583859709698,54.5,56.0,42.0,23.0,45.0,23.0,13.0,6.082762530298219,5.0,5.0,50.0,52.0,48.041648597857254,272.47018185482244,270.9778588741154,265.4806960967219,249.19470299346253
173,39,173,0,5.76666666666665,28.071337695236398,115.97413504743201,12.041594578792296,23.021728866442675,31.25699921617557,34.52535300326414,27.073972741361768,90.19977827023745,67.1863081289633,53.0,56.0,41.0,21.5,41.5,19.5,12.5,5.0990195135927845,6.0,5.5,49.0,54.0,46.04345773288535,275.80065264607333,276.3222756130964,270.0240730009086,255.0
174,39,174,0,5.799999999999983,25.019992006393608,112.29425630903836,12.041594578792296,21.213203435596427,30.4138126514911,33.54101966249684,28.442925306655784,86.57944328765345,65.37583651472461,52.5,59.0,42.0,22.5,35.5,15.5,13.5,5.385164807134504,5.0,5.0,48.0,55.0,50.039984012787215,277.96582523756405,276.06158733152284,271.1051456538588,253.39297543538967
175,39,175,0,5.833333333333316,21.095023109728988,111.01801655587259,12.041594578792296,20.223748416156685,29.427877939124322,32.38826948140329,30.4138126514911,83.72574275573791,63.50590523722971,52.5,58.0,43.0,20.5,32.5,12.5,11.5,5.385164807134504,4.0,4.0,46.0,54.0,47.0,274.9872724327437,272.66096163550804,269.2953768633988,254.01771591761076
176,39,176,0,5.866666666666649,20.223748416156685,107.07940978544848,11.180339887498949,22.360679774997898,28.635642126552707,31.400636936215164,29.274562336608895,83.02409288875127,60.67124524847005,50.0,63.0,42.0,23.5,29.5,9.5,15.5,5.385164807134504,5.0990195135927845,4.5,45.0,53.0,50.00999900019995,280.4514218184675,281.12808468738945,277.308492477241,260.0173071162764
177,39,177,0,5.899999999999983,20.223748416156685,107.5174404457249,13.038404810405298,22.360679774997898,27.459060435491963,30.59411708155671,29.427877939124322,85.0,62.64982043070834,52.0,59.0,41.0,21.0,34.0,13.0,12.0,5.830951894845301,6.082762530298219,5.5,39.0,52.0,50.08991914547278,277.2002886001384,275.5739465188972,272.03860020225073,259.5149321330085
178,39,178,0,5.933333333333316,22.20360331117452,110.3177229641729,13.152946437965905,21.213203435596427,28.635642126552707,30.59411708155671,26.1725046566048,82.73451516749222,61.5223536610881,50.0,56.0,39.0,21.5,34.5,14.5,12.5,5.830951894845301,4.123105625617661,4.5,38.0,53.0,58.215118311311535,281.15476165272395,277.7228834647948,272.4646766096479,257.0933682536366
179,39,179,0,5.966666666666649,27.16615541441225,109.04127658827184,12.165525060596439,21.37755832643195,28.442925306655784,30.59411708155671,25.495097567963924,86.14522621712709,64.77653896280658,50.5,62.0,41.0,26.5,33.5,13.5,17.5,5.385164807134504,5.0,5.5,39.0,55.0,56.08029957123981,284.6067462306542,283.6370920736567,278.43132007732174,262.36043909095747
180,39,180,0,5.999999999999982,33.13608305156178,116.10340218959993,9.055385138137417,20.615528128088304,30.59411708155671,34.713109915419565,25.495097567963924,88.11923740024082,67.60177512462228,50.5,62.0,40.0,26.0,36.0,17.0,20.0,8.246211251235321,8.06225774829855,8.5,40.0,55.0,48.041648597857254,282.2853166567471,282.8780656042458,280.8629559055448,264.5600120955546
181,39,181,0,6.033333333333316,35.12833614050059,116.49892703368559,12.165525060596439,21.37755832643195,31.400636936215164,34.92849839314596,25.317977802344327,93.90420650854784,72.56031973468694,54.5,68.0,44.0,31.0,37.0,18.0,22.0,11.40175425099138,10.198039027185569,11.0,38.0,54.0,50.08991914547278,276.5248632582611,275.5358415887124,271.4498111990502,256.8890811225732
182,39,182,0,6.066666666666649,35.05709628591621,115.52056094046635,12.165525060596439,20.396078054371138,31.575306807693888,34.713109915419565,26.1725046566048,93.64827814754524,73.33484846919642,55.5,65.0,41.0,27.0,40.0,22.0,19.0,14.142135623730951,14.317821063276353,14.5,38.0,56.0,53.23532661682466,274.96181553081146,273.1300056749533,266.5576860643865,253.84247083575278
183,39,183,0,6.099999999999982,37.12142238654117,114.54256850621083,11.180339887498949,23.345235059857504,31.575306807693888,34.92849839314596,27.16615541441225,98.73196037757987,75.4254598925323,56.5,65.0,41.0,26.0,45.0,23.0,19.0,13.152946437965905,12.165525060596439,13.0,35.0,54.0,49.09175083453431,279.2704782106408,278.6862034618865,273.3806869550225,254.9745085297744
184,39,184,0,6.133333333333315,42.1070065428546,117.6860229593982,12.165525060596439,23.345235059857504,31.78049716414141,35.90264614203248,26.076809620810597,103.58571330062848,80.30566605165541,59.0,65.0,40.0,26.5,50.5,29.5,19.5,14.142135623730951,14.142135623730951,15.0,37.0,59.0,59.135437767890075,274.0602123621742,274.41756503547657,270.4311372604863,251.9206224190469
185,39,185,0,6.166666666666648,45.09988913511872,115.52056094046635,11.045361017187261,22.360679774997898,31.78049716414141,35.17101079013795,27.018512172212592,105.38500842150178,83.15046602394962,60.5,64.0,40.0,25.0,53.0,33.0,18.0,14.142135623730951,14.317821063276353,14.5,33.0,56.0,46.52956049652737,274.3902330623304,274.96181553081146,271.2729252984897,254.42091109026396
186,39,186,0,6.1999999999999815,40.049968789001575,125.92855117089213,12.165525060596439,23.345235059857504,34.92849839314596,37.36308338453881,27.018512172212592,102.39628899525607,79.1580697086532,59.0,60.0,33.0,19.5,55.5,35.5,13.5,13.152946437965905,13.341664064126334,13.5,34.0,59.0,46.52956049652737,269.45314991664134,270.2480342204176,267.58550035455954,252.253840406841
187,39,187,0,6.233333333333315,43.04648650006177,119.85407794480753,10.04987562112089,22.20360331117452,29.832867780352597,34.20526275297414,28.284271247461902,103.4842983258813,81.30190649671138,59.5,61.0,35.0,20.0,55.0,35.0,14.0,14.142135623730951,14.317821063276353,14.5,31.0,57.0,45.5411901469428,274.54872063078346,274.3665431498527,269.5366394388711,252.00198411917316
188,39,188,0,6.266666666666648,45.044422518220834,121.80722474467596,11.045361017187261,23.194827009486403,32.984845004941285,36.40054944640259,28.071337695236398,107.29864864013899,84.1486779456457,61.5,62.0,36.0,21.0,58.0,38.0,15.0,14.035668847618199,13.341664064126334,14.5,33.0,58.0,43.73785545725808,264.35771220072246,266.1296676434253,263.46346995361614,249.81593223811808
189,39,189,0,6.299999999999981,43.104524124504614,120.30378215168466,13.152946437965905,26.1725046566048,32.984845004941285,36.40054944640259,27.0,109.29318368498559,83.15046602394962,61.5,62.0,34.0,21.0,61.0,37.0,14.0,14.035668847618199,13.601470508735444,13.5,32.0,57.0,45.5411901469428,268.9107658685312,271.27108213003464,267.89923478800756,251.09759058979438
190,39,190,0,6.333333333333314,40.049968789001575,115.95257651298655,12.165525060596439,23.194827009486403,30.083217912982647,33.52610922848042,26.019223662515376,101.31633629380802,78.16009211867653,58.0,63.0,37.0,24.0,51.0,31.0,17.0,14.0,14.317821063276353,14.5,34.0,55.0,42.2965719651132,276.06158733152284,277.7228834647948,274.20430339438514,256.6028059082753
191,39,191,0,6.366666666666648,36.124783736376884,115.44695751729449,11.045361017187261,25.079872407968907,30.364452901377952,33.83784863137726,29.068883707497267,101.31633629380802,76.23647421018367,58.0,62.0,34.0,19.0,53.0,31.0,14.0,15.0,14.317821063276353,15.0,33.0,54.0,45.39823785126467,270.4533231446787,270.8228203087768,264.5770209220748,247.7357463104588
192,39,192,0,6.399999999999981,24.08318915758459,109.14210919713803,14.035668847618199,24.08318915758459,28.160255680657446,31.953090617340916,29.274562336608895,91.44397191723465,67.36467917239716,55.0,61.0,35.0,19.0,43.0,21.0,10.0,16.0,14.317821063276353,15.5,35.0,55.0,48.373546489791295,271.01660465735307,271.5879231482873,265.93608254616373,250.3437636531016
193,39,193,0,6.433333333333314,18.24828759089466,109.88175462741756,12.041594578792296,22.20360331117452,27.202941017470888,30.675723300355934,30.4138126514911,82.87339742040264,60.67124524847005,51.0,59.0,34.0,16.5,35.5,15.5,9.5,15.0,13.152946437965905,14.0,35.0,52.0,44.28317965096906,273.00183149568795,275.5358415887124,272.01654361453825,255.66579747787932
194,39,194,0,6.466666666666647,14.142135623730951,107.48953437428223,13.038404810405298,22.090722034374522,26.92582403567252,30.364452901377952,31.400636936215164,80.62257748298549,58.54912467321779,51.0,58.0,35.0,15.5,33.5,13.5,7.5,16.0312195418814,15.132745950421556,16.0,34.0,52.0,47.265209192385896,276.9729228643118,276.3656997530627,270.05369836386245,253.71834777958017
195,39,195,0,6.4999999999999805,14.142135623730951,103.94229168149026,13.038404810405298,21.095023109728988,26.92582403567252,29.120439557122072,30.59411708155671,78.77182237323191,57.706152185014034,50.0,55.0,35.0,15.0,33.0,13.0,7.0,16.0,15.132745950421556,16.0,37.0,52.0,47.16990566028302,274.33191575170395,276.6224864323217,273.89048906451643,256.1288738116029
196,39,196,0,6.533333333333314,15.033296378372908,110.02272492535349,14.035668847618199,23.08679276123039,28.861739379323623,31.04834939252005,29.427877939124322,81.49846624323675,58.42088667591412,50.5,55.0,34.0,15.5,36.5,14.5,6.5,16.0,14.142135623730951,15.0,42.0,55.0,48.16637831516918,272.88275870783775,275.0727176584403,272.26457720386617,255.76551761330143
197,39,197,0,6.566666666666647,23.08679276123039,110.81967334368028,12.041594578792296,21.095023109728988,29.614185789921695,31.78049716414141,29.274562336608895,85.47514258543241,64.38167441127949,52.5,55.0,35.0,16.0,40.0,20.0,8.0,15.033296378372908,14.035668847618199,15.0,45.0,57.0,52.03844732503075,272.88275870783775,271.9577173017894,266.00751869073173,249.27294277558485
198,39,198,0,6.59999999999998,28.071337695236398,115.7410903698423,13.038404810405298,23.08679276123039,29.614185789921695,33.734255586866,27.459060435491963,91.54780172128658,68.46897107449476,54.0,55.0,35.0,18.0,46.0,24.0,9.0,12.041594578792296,12.165525060596439,12.0,48.0,57.0,59.0,276.22635645426743,278.08631753468205,273.93612394133055,256.7975856584325
199,39,199,0,6.633333333333313,16.0312195418814,109.48972554536796,14.035668847618199,25.079872407968907,27.459060435491963,30.59411708155671,30.4138126514911,85.47514258543241,60.40695324215582,52.0,54.0,36.0,15.0,40.0,16.0,5.0,4.47213595499958,5.0,4.5,49.0,60.0,57.0350769263968,275.6374430297887,274.781731561616,271.7517249255283,257.89338882569285
200,39,200,0,6.666666666666647,15.033296378372908,106.53168542738823,13.038404810405298,21.213203435596427,26.30589287593181,29.832867780352597,31.575306807693888,80.75270893288967,59.53990258641679,51.5,59.0,41.0,19.0,30.0,10.0,8.0,5.385164807134504,5.0990195135927845,4.5,51.0,62.0,52.009614495783374,277.09384691833196,277.2002886001384,274.4102767754881,259.47061490658245
201,39,201,0,6.69999999999998,14.035668847618199,109.48972554536796,13.038404810405298,20.223748416156685,28.284271247461902,31.575306807693888,30.59411708155671,77.78174593052023,57.55866572463264,50.0,58.0,40.0,19.0,28.0,9.0,9.0,6.324555320336759,5.0990195135927845,5.5,47.0,59.0,52.0,275.74807342935327,273.6512378923216,268.6279955626368,254.37963754986365
202,39,202,0,6.733333333333313,15.033296378372908,115.97413504743201,14.035668847618199,19.026297590440446,31.25699921617557,34.23448553724738,28.442925306655784,76.4198926981712,57.42821606144492,49.5,55.0,40.0,19.5,28.5,9.5,8.5,7.280109889280518,6.0,6.0,44.0,55.0,50.00999900019995,283.8097954616789,280.3212442894758,273.7918917718346,260.09421369957465
203,39,203,0,6.766666666666646,18.110770276274835,111.30588483993108,12.0,19.235384061671343,28.284271247461902,31.575306807693888,27.65863337187866,76.79192665899195,57.55866572463264,48.0,57.0,40.0,21.5,27.5,9.5,12.5,9.219544457292887,7.0710678118654755,7.0,41.0,50.0,53.009433122794285,278.9587783167972,277.2183255125822,269.69056342408425,255.98828098176682
204,39,204,0,6.799999999999979,25.079872407968907,119.21828718783037,12.041594578792296,18.24828759089466,30.4138126514911,33.54101966249684,25.317977802344327,80.62257748298549,62.39390995922599,49.5,59.0,42.0,25.5,29.5,12.5,16.5,9.219544457292887,8.06225774829855,8.0,41.0,52.0,50.0,281.710844661685,278.9587783167972,273.5141678231678,260.78343505675355
205,39,205,0,6.833333333333313,33.015148038438355,114.9826073804208,12.165525060596439,20.223748416156685,33.24154027718932,36.345563690772494,24.515301344262525,89.67719888578144,69.46221994724903,52.5,58.0,43.0,26.5,38.5,18.5,17.5,12.165525060596439,9.055385138137417,9.0,39.0,51.0,53.03772242470448,278.72925931807015,277.2183255125822,271.53268679847736,258.80494585691366
206,39,206,0,6.866666666666646,49.040799340956916,124.03628501370073,12.165525060596439,22.20360331117452,35.22782990761707,39.319206502675,23.08679276123039,105.92922165295089,83.72574275573791,58.5,60.0,44.0,30.0,53.0,31.0,20.0,13.038404810405298,12.165525060596439,12.5,41.0,55.0,53.009433122794285,274.64158461529456,273.2471408816568,270.60118255469615,256.7975856584325
207,39,207,0,6.899999999999979,47.042533945356304,128.9961239727768,12.165525060596439,21.213203435596427,37.33630940518894,41.43669871020132,23.40939982143925,103.0970416646375,81.88406438373708,57.5,59.0,43.0,29.0,51.0,31.0,20.0,15.033296378372908,13.152946437965905,13.5,39.0,52.0,49.01020301937138,269.4160351575236,267.8544380815819,265.1886121235224,253.50345165302977
208,39,208,0,6.933333333333312,43.04648650006177,129.2594290564522,12.165525060596439,21.213203435596427,37.33630940518894,41.43669871020132,23.769728648009426,99.84988733093293,78.63841300535,56.5,58.0,40.0,26.0,50.0,30.0,17.0,15.033296378372908,14.142135623730951,14.0,39.0,54.0,51.15662224971465,271.26739575555337,269.69056342408425,267.0131082924582,255.15485494107298
209,39,209,0,6.9666666666666455,41.048751503547585,125.15989773086265,12.041594578792296,21.213203435596427,35.22782990761707,39.45883931389772,23.769728648009426,97.73944955850733,76.53103945458993,55.5,56.0,39.0,24.5,49.5,29.5,15.5,15.033296378372908,13.152946437965905,14.0,39.0,53.0,44.04543109109048,271.01660465735307,269.2842364491468,267.5705514439136,254.70178640912593
210,39,210,0,6.999999999999979,40.11234224026316,120.66896867049125,12.041594578792296,19.235384061671343,33.37663853655727,36.345563690772494,25.709920264364882,96.87620966986684,77.64663547121665,57.0,61.0,41.0,26.0,45.0,26.0,18.0,16.1245154965971,15.132745950421556,14.5,40.0,55.0,43.104524124504614,273.25080054777516,272.5233934912744,269.69056342408425,256.82678987987214
211,39,211,0,7.033333333333312,33.13608305156178,118.06777714516353,11.045361017187261,20.223748416156685,31.575306807693888,35.510561809129406,26.68332812825267,90.93404203047393,70.71067811865476,53.5,61.0,39.0,24.0,40.0,20.0,17.0,16.1245154965971,15.297058540778355,15.0,40.0,54.0,43.04648650006177,274.5050090617656,272.9468812791236,268.15294143454776,254.01181074902797
212,39,212,0,7.066666666666645,28.160255680657446,115.31695452100702,12.165525060596439,21.213203435596427,30.59411708155671,34.713109915419565,27.294688127912362,88.81441324469807,67.60177512462228,53.0,60.0,37.0,21.5,39.5,20.5,13.5,15.033296378372908,14.317821063276353,14.0,36.0,53.0,43.104524124504614,271.39823138701547,270.4071004984891,265.5899094468764,251.58895047279003
213,39,213,0,7.099999999999978,3.605551275463989,97.29337079164233,13.152946437965905,20.223748416156685,24.515301344262525,27.65863337187866,35.510561809129406,71.386273190299,51.19570294468082,49.0,61.0,40.0,15.5,19.5,0.5,5.5,16.1245154965971,14.317821063276353,14.0,36.0,55.0,44.10215414239989,274.23530042647684,272.2590678012396,266.33249895572266,251.04780421266383
214,39,214,0,7.133333333333312,2.23606797749979,93.17188417113823,14.035668847618199,20.396078054371138,24.73863375370596,27.65863337187866,36.138621999185304,71.80529228406496,51.419840528729765,49.5,60.0,40.0,15.0,20.0,1.0,5.0,16.1245154965971,14.317821063276353,14.5,36.0,56.0,46.17358552246078,276.3656997530627,274.71075697904513,267.8077668776617,251.3662666309861
215,39,215,0,7.166666666666645,4.242640687119285,97.74456506629922,13.152946437965905,18.24828759089466,26.68332812825267,28.861739379323623,37.107950630558946,72.03471385380801,53.85164807134504,50.5,61.0,38.0,13.5,20.5,3.5,4.5,15.033296378372908,14.560219778561036,14.0,35.0,58.0,45.27692569068709,273.6073829413234,271.0350530835449,264.1685068285014,248.09070921741508
216,39,216,0,7.199999999999978,7.211102550927978,108.17116066678771,15.132745950421556,23.345235059857504,27.892651361962706,29.832867780352597,33.95585369269929,79.07591289387686,55.78530272392541,51.0,60.0,34.0,14.0,30.0,9.0,3.0,16.1245154965971,14.317821063276353,14.5,32.0,58.0,45.5411901469428,272.40594707164524,270.4459280521709,264.3671689147501,250.25187311986298
217,39,217,0,7.233333333333311,21.37755832643195,105.77334257741882,14.142135623730951,25.495097567963924,28.861739379323623,32.01562118716424,32.28002478313795,93.17188417113823,67.68308503607086,55.5,62.0,34.0,17.0,43.0,20.0,7.0,17.11724276862369,15.811388300841896,15.5,31.0,60.0,50.635955604688654,274.9727259202265,275.95108262154,267.9178978717174,251.4358765172544
218,39,218,0,7.266666666666644,33.37663853655727,119.81652640600127,12.36931687685298,22.561028345356956,31.04834939252005,32.984845004941285,30.675723300355934,98.71676655968832,76.15773105863909,57.5,59.0,29.0,15.0,52.0,31.0,8.0,18.110770276274835,16.76305461424021,16.5,30.0,60.0,49.64876634922564,275.1526848860465,275.54491466909707,269.6683147868878,254.57808232446092
219,39,219,0,7.299999999999978,32.38826948140329,123.9395013706284,12.36931687685298,23.53720459187964,30.805843601498726,36.138621999185304,29.410882339705484,97.51410154434076,73.97972695272672,56.0,55.0,24.0,11.5,55.5,34.5,3.5,19.1049731745428,18.027756377319946,17.5,29.0,62.0,52.952809179494906,271.93013808697265,271.41296947640507,266.7901797293146,251.26878039263056
220,39,220,0,7.333333333333311,29.427877939124322,120.78493283518438,12.165525060596439,23.53720459187964,30.805843601498726,33.95585369269929,27.85677655436824,92.64987857520376,69.12307863514182,52.5,52.0,22.0,11.0,53.0,31.0,4.0,18.027756377319946,16.76305461424021,17.0,29.0,61.0,51.97114584074513,272.90474528670256,270.44038160008574,263.16724720223067,243.7580767892625
221,39,221,0,7.366666666666644,32.2490309931942,122.97154142320898,11.40175425099138,21.840329667841555,27.892651361962706,31.04834939252005,27.85677655436824,92.89241088485109,71.06335201775947,53.0,50.0,19.0,8.5,55.5,35.5,2.5,19.026297590440446,18.973665961010276,18.5,28.0,61.0,54.74486277268398,267.58550035455954,267.0599183703912,259.7883754135277,241.58021442162848
222,39,222,0,7.399999999999977,30.4138126514911,121.75385004179539,11.40175425099138,24.515301344262525,30.805843601498726,32.984845004941285,26.570660511172846,92.64987857520376,68.15423684555495,51.0,47.0,17.0,7.0,58.0,36.0,1.0,19.026297590440446,18.973665961010276,19.0,28.0,61.0,53.9351462406472,264.3671689147501,262.0534296665472,256.1952380509833,238.9518780005715
223,39,223,0,7.4333333333333105,25.495097567963924,126.84636376341263,11.180339887498949,23.53720459187964,32.01562118716424,34.92849839314596,27.313000567495326,87.09190547921202,63.60031446463138,48.5,45.0,14.0,4.5,54.5,33.5,0.5,19.026297590440446,18.027756377319946,17.5,28.0,59.0,56.88585061331157,263.68541863364385,262.71086768537003,255.66579747787932,237.45736459415193
224,39,224,0,7.466666666666644,25.317977802344327,127.57742747053649,12.36931687685298,22.561028345356956,32.01562118716424,35.17101079013795,25.632011235952593,85.61541917201598,63.06346010171025,48.5,45.0,15.0,6.0,53.0,33.0,0.0,19.026297590440446,17.72004514666935,18.0,30.0,61.0,52.952809179494906,267.2901045680517,266.7901797293146,260.725909721301,241.32343441945292
225,39,225,0,7.499999999999977,28.284271247461902,129.52219886953742,11.40175425099138,22.360679774997898,33.95585369269929,36.87817782917155,26.570660511172846,88.29496021857646,65.96969000988257,50.0,44.0,14.0,4.0,57.0,37.0,1.0,18.027756377319946,18.027756377319946,17.5,30.0,61.0,51.97114584074513,264.8848806557294,265.58049627184596,257.8158257361251,239.38462774372127
226,39,226,0,7.53333333333331,32.38826948140329,131.46862743635836,11.180339887498949,24.515301344262525,35.17101079013795,38.07886552931954,25.079872407968907,92.64987857520376,68.15423684555495,50.0,43.0,13.0,5.0,62.0,40.0,0.0,18.027756377319946,18.973665961010276,18.5,30.0,61.0,54.91812087098393,266.3174797117155,266.7901797293146,260.725909721301,240.6013300046365
227,39,227,0,7.566666666666643,40.19950248448356,133.41664064126334,12.36931687685298,21.840329667841555,33.734255586866,37.36308338453881,24.698178070456937,98.48857801796105,76.68767828015137,55.0,49.0,19.0,11.0,62.0,42.0,4.0,19.1049731745428,18.027756377319946,18.0,30.0,62.0,49.03060268852505,267.0318333083155,266.5576860643865,259.27977167530827,236.01906702637396
228,39,228,0,7.599999999999976,39.20459156782532,130.49521064008442,10.44030650891055,21.840329667841555,34.92849839314596,38.07886552931954,26.570660511172846,97.51410154434076,75.7099729229908,54.5,50.0,20.0,10.0,60.0,40.0,5.0,20.09975124224178,18.973665961010276,18.5,29.0,63.0,52.952809179494906,271.88416651213805,270.4311372604863,261.21638539724114,239.88538930080756
229,39,229,0,7.63333333333331,38.2099463490856,123.22743201089601,10.44030650891055,21.840329667841555,34.20526275297414,36.40054944640259,27.51363298439521,97.51410154434076,75.7099729229908,55.0,53.0,21.0,11.0,58.0,39.0,7.0,19.1049731745428,18.973665961010276,18.5,30.0,64.0,53.75872022286245,269.4679943889441,267.0318333083155,258.0620080523284,236.01906702637396
230,39,230,0,7.666666666666643,19.4164878389476,116.66190466471906,13.341664064126334,21.840329667841555,28.861739379323623,32.01562118716424,28.460498941515414,82.96987405076617,61.1310068623117,49.5,52.0,23.0,10.5,42.5,22.5,2.5,20.024984394500787,18.973665961010276,19.0,29.0,60.0,50.80354318352215,264.8490135907627,262.43475379606264,253.2212471338059,231.89652865017192
231,39,231,0,7.699999999999976,13.0,105.51303237041384,14.142135623730951,23.53720459187964,27.892651361962706,29.832867780352597,27.51363298439521,77.88452991448301,54.405882034941776,46.0,49.0,22.0,9.5,39.5,17.5,0.5,19.026297590440446,18.681541692269406,19.0,28.0,58.0,47.853944456021594,263.65507770570247,261.9790067925291,252.253840406841,232.35533133543547
232,39,232,0,7.733333333333309,3.1622776601683795,96.84007434941384,11.180339887498949,19.6468827043885,22.135943621178654,24.041630560342615,37.36308338453881,69.92138442565336,50.28916384272063,47.5,54.0,27.0,4.5,26.5,9.5,1.5,19.026297590440446,18.681541692269406,18.0,27.0,58.0,50.635955604688654,267.76108753887297,265.09243670840556,253.9389690457138,232.35533133543547
233,39,233,0,7.766666666666643,4.0,96.84007434941384,12.165525060596439,21.587033144922902,21.840329667841555,24.041630560342615,35.90264614203248,70.60453243241541,49.040799340956916,47.0,53.0,26.0,4.5,28.5,8.5,2.5,19.0,18.681541692269406,18.5,29.0,58.0,48.662100242385755,261.51290599127225,259.04439773907484,250.29782260339383,231.38712150852302
234,39,234,0,7.799999999999976,3.1622776601683795,100.68763578513501,11.40175425099138,20.396078054371138,22.80350850198276,24.041630560342615,35.6931365951495,69.12307863514182,48.76474136094644,46.5,54.0,27.0,5.5,26.5,8.5,1.5,19.0,17.46424919657298,17.5,28.0,57.0,48.662100242385755,264.0075756488817,259.7883754135277,248.11690792850052,228.23233776132602
235,39,235,0,7.833333333333309,3.605551275463989,102.1077861869505,12.165525060596439,18.439088914585774,24.73863375370596,26.92582403567252,35.17101079013795,68.41052550594829,50.0,47.0,54.0,29.0,7.5,24.5,8.5,0.5,16.0312195418814,15.297058540778355,15.5,29.0,55.0,49.36598018878993,265.1980392084376,264.95471311150516,255.55625603768732,237.7561776274173
236,39,236,0,7.866666666666642,12.649110640673518,109.65856099730654,13.152946437965905,20.223748416156685,28.635642126552707,30.083217912982647,32.984845004941285,78.85429601486528,58.69412236331676,51.0,55.0,31.0,11.0,34.0,15.0,2.0,18.0,15.524174696260024,15.5,30.0,52.0,48.662100242385755,262.2250941462315,260.0999807766237,252.6024544615511,237.11811402758752
237,39,237,0,7.899999999999975,24.331050121192877,112.58774356030055,11.180339887498949,23.345235059857504,27.65863337187866,31.78049716414141,30.083217912982647,88.84255736976509,65.5133574166368,52.0,54.0,30.0,13.0,45.0,22.0,7.0,17.029386365926403,14.317821063276353,14.5,31.0,52.0,46.2709412050371,261.48996156640504,261.0823624835657,254.65663156493687,237.11811402758752
238,39,238,0,7.933333333333309,36.124783736376884,119.05040949110591,11.180339887498949,22.360679774997898,31.575306807693888,36.6742416417845,27.892651361962706,97.32420048477151,74.96665925596525,56.0,53.0,31.0,15.0,54.0,32.0,9.0,16.0312195418814,15.297058540778355,15.5,33.0,52.0,46.17358552246078,262.76224995230956,261.3962509295036,255.98632775990205,240.06665740997852
239,39,239,0,7.966666666666642,40.11234224026316,117.38824472663352,11.180339887498949,21.37755832643195,32.38826948140329,36.49657518178932,26.92582403567252,99.29753269845128,77.92945527847606,57.0,54.0,36.0,19.0,53.0,31.0,12.0,16.0312195418814,15.297058540778355,15.0,33.0,51.0,45.09988913511872,262.4804754643667,261.9198350640898,256.30060475933334,239.5349661322956
240,39,240,0,7.999999999999975,40.11234224026316,123.17873193047572,11.045361017187261,21.213203435596427,35.22782990761707,38.3275357934736,25.709920264364882,97.86725703727473,76.6550715869472,56.0,53.0,36.0,19.5,52.5,31.5,11.5,17.029386365926403,15.297058540778355,15.0,34.0,49.0,43.04648650006177,256.5326489942362,257.0,253.2923212416831,239.42639787625757
241,39,241,0,8.033333333333308,38.118237105091836,121.06196760337245,11.180339887498949,22.20360331117452,35.22782990761707,38.2099463490856,23.53720459187964,94.89467845985885,72.69112738154499,53.0,54.0,38.0,23.0,48.0,26.0,14.0,16.0312195418814,14.317821063276353,14.5,33.0,46.0,44.01136216933077,260.30174797722736,258.8628980754098,255.01568579207046,241.26748641290231
242,39,242,0,8.066666666666642,38.05259518088089,122.494897852931,12.041594578792296,20.223748416156685,36.05551275463989,39.11521443121589,22.360679774997898,92.5418824100742,72.3394774656273,53.0,54.0,43.0,26.5,43.5,22.5,15.5,14.035668847618199,13.038404810405298,13.0,37.0,47.0,42.01190307520001,257.21780653757236,258.5207922005501,255.6501515743732,244.72433471152803
243,39,243,0,8.099999999999975,37.05401462729781,121.41251994749142,13.038404810405298,22.090722034374522,34.132096331752024,38.118237105091836,22.20360331117452,94.33981132056604,72.24956747275377,53.5,55.0,45.0,28.0,44.0,22.0,17.0,14.0,14.142135623730951,13.5,38.0,46.0,41.0,261.01532522057016,260.20376630633154,256.3220630378899,243.50154003619772
244,39,244,0,8.133333333333308,46.17358552246078,123.58397954427588,13.038404810405298,22.090722034374522,32.14031735997639,36.05551275463989,23.194827009486403,104.47966309287182,82.38931969618392,59.0,46.0,58.0,29.0,52.0,27.0,15.0,12.165525060596439,12.165525060596439,12.5,59.0,34.0,49.47726750741192,270.3516228913746,265.83077323741134,260.43233286210835,245.09997960016236
245,39,245,0,8.166666666666641,38.05259518088089,121.69634341261039,14.142135623730951,23.08679276123039,34.23448553724738,37.12142238654117,22.090722034374522,97.32933781753577,74.24284477308234,55.0,41.0,54.0,25.5,49.5,22.5,10.5,9.055385138137417,8.246211251235321,8.5,57.0,35.0,50.00999900019995,268.9014689435519,267.4210163767986,260.155722597063,246.00203251192866
246,39,246,0,8.199999999999974,35.05709628591621,118.51160280748886,14.035668847618199,21.095023109728988,33.13608305156178,36.05551275463989,22.090722034374522,92.26592003551474,71.17583859709698,53.5,42.0,53.0,25.5,44.5,20.5,11.5,9.219544457292887,9.219544457292887,9.0,60.0,37.0,55.731499172371095,271.59712811441875,269.2248131209306,262.00763347658403,245.05101509685693
247,39,247,0,8.233333333333308,36.05551275463989,115.52488909321661,14.035668847618199,22.090722034374522,33.13608305156178,37.05401462729781,21.02379604162864,93.1933474020544,71.11258679024411,53.0,43.0,54.0,27.5,44.5,19.5,12.5,13.152946437965905,12.165525060596439,12.5,60.0,37.0,54.91812087098393,266.6777081047458,264.2290672882149,257.00778198334774,241.07467722678797
248,39,248,0,8.26666666666664,37.05401462729781,117.34564329364768,15.033296378372908,22.090722034374522,35.05709628591621,38.01315561749642,22.090722034374522,96.25487000666512,74.16872656315464,55.5,47.0,56.0,29.5,44.5,19.5,14.5,14.142135623730951,14.142135623730951,14.0,59.0,37.0,46.32493928760188,272.888255518628,268.31511325305553,261.0689564080724,247.00809703327542
249,39,249,0,8.299999999999974,44.10215414239989,117.51595636338071,13.038404810405298,23.08679276123039,32.14031735997639,37.05401462729781,23.194827009486403,103.39245620450265,80.30566605165541,58.0,46.0,57.0,28.5,51.5,25.5,14.5,14.142135623730951,13.038404810405298,13.0,58.0,37.0,47.07440918375928,270.89481353470023,268.36542251191753,262.0477055804916,247.05060210410335
250,39,250,0,8.333333333333307,48.093658625644196,121.59358535712317,13.038404810405298,22.20360331117452,33.24154027718932,37.05401462729781,22.20360331117452,105.47511554864494,83.2946576918352,59.0,46.0,58.0,30.0,53.0,28.0,15.0,14.142135623730951,13.038404810405298,13.5,57.0,35.0,49.64876634922564,272.888255518628,269.31394319641157,262.03053257206494,247.0323865407125
251,39,251,0,8.36666666666664,49.09175083453431,121.41251994749142,13.152946437965905,22.090722034374522,33.06055050963308,37.05401462729781,22.090722034374522,106.38138934982942,84.29116205154607,59.5,47.0,57.0,30.0,54.0,29.0,17.0,12.165525060596439,12.165525060596439,12.0,58.0,36.0,48.662100242385755,271.97426348829407,269.3640659033792,263.0304164920856,247.0323865407125
252,39,252,0,8.399999999999974,45.09988913511872,121.49897118905987,13.152946437965905,21.095023109728988,32.14031735997639,36.05551275463989,24.020824298928627,103.31021246711285,82.21921916437786,59.5,48.0,59.0,29.5,49.5,25.5,15.5,13.152946437965905,12.165525060596439,12.5,58.0,34.0,47.67598976424087,276.04528613979267,273.4684625327023,267.0674072214728,252.01785651020842
253,39,253,0,8.433333333333307,42.1070065428546,119.70797801316336,13.152946437965905,21.095023109728988,33.13608305156178,37.05401462729781,22.20360331117452,98.50888284819801,77.41446893184762,56.0,45.0,58.0,29.5,46.5,22.5,15.5,14.142135623730951,13.152946437965905,13.5,60.0,34.0,47.07440918375928,275.049086528205,272.5307322119838,266.12027356065903,250.0
254,39,254,0,8.46666666666664,34.132096331752024,114.73883387938018,13.038404810405298,22.090722034374522,32.14031735997639,36.124783736376884,23.194827009486403,92.43916918709297,70.34912934784623,53.0,45.0,58.0,28.5,40.5,16.5,14.5,14.142135623730951,13.341664064126334,13.5,59.0,34.0,43.93176527297759,271.2489631316588,269.5366394388711,262.15453457836657,246.0
255,39,255,0,8.499999999999973,35.014282800023196,113.44161493913951,13.152946437965905,21.095023109728988,32.0624390837628,35.014282800023196,22.20360331117452,91.35097153287424,70.25667228100119,52.5,45.0,55.0,28.0,41.0,18.0,15.0,14.317821063276353,13.152946437965905,13.0,60.0,33.0,44.14748010928823,270.78035379251577,267.7480158656643,261.19150062741323,247.00202428320299
256,39,256,0,8.533333333333307,30.01666203960727,113.44161493913951,13.152946437965905,19.235384061671343,32.0624390837628,34.058772731852805,23.021728866442675,85.28774824088158,66.12110101926616,51.0,45.0,55.0,27.0,35.0,14.0,14.0,14.142135623730951,14.142135623730951,14.5,64.0,37.0,46.87216658103186,266.3719204420766,264.61292485439935,258.0697580112788,242.03305559365234
257,39,257,0,8.56666666666664,27.0,106.16967551989597,13.152946437965905,21.213203435596427,28.0178514522438,32.01562118716424,26.019223662515376,87.20665112249179,66.06814663663572,52.5,45.0,51.0,22.0,39.0,16.0,9.0,14.317821063276353,13.341664064126334,13.0,62.0,34.0,47.853944456021594,264.59402865522117,261.76516192954324,255.09606033806168,240.01874926763534
258,39,258,0,8.599999999999973,19.026297590440446,104.17293314484334,14.035668847618199,20.09975124224178,27.018512172212592,29.0,27.018512172212592,80.15609770940699,60.07495318350236,50.5,44.0,50.0,20.0,33.0,11.0,7.0,14.142135623730951,12.165525060596439,12.5,61.0,33.0,46.09772228646444,262.29182221335077,261.43067914841214,256.0175775215444,240.10206163213175
259,39,259,0,8.633333333333306,21.0,103.1746092796091,12.165525060596439,21.095023109728988,26.0,28.0178514522438,28.0178514522438,82.05485969764375,61.00819617067857,50.5,43.0,49.0,18.0,36.0,12.0,7.0,15.132745950421556,14.142135623730951,14.0,61.0,34.0,53.75872022286245,266.58206991468876,263.75936002348806,255.15877409957903,239.0083680543424
260,39,260,0,8.66666666666664,13.038404810405298,103.1746092796091,13.152946437965905,19.1049731745428,28.0178514522438,29.017236257093817,28.0178514522438,73.24616030891995,54.147945482723536,47.5,42.0,48.0,17.0,28.0,7.0,5.0,15.297058540778355,13.152946437965905,13.5,60.0,34.0,50.99019513592785,264.70549673174526,260.76809620810593,253.16002844051033,238.0021008310641
261,39,261,0,8.699999999999973,13.038404810405298,103.23759005323593,13.152946437965905,18.110770276274835,26.019223662515376,29.0,27.0,71.17583859709698,53.08483775994799,46.5,40.0,47.0,16.5,27.5,6.5,3.5,15.297058540778355,15.132745950421556,15.0,61.0,34.0,51.97114584074513,262.60616900598507,259.6959760951255,252.1606630701942,236.00211863455803
262,39,262,0,8.733333333333306,18.110770276274835,104.30723848324239,12.165525060596439,18.110770276274835,28.0178514522438,31.016124838541646,27.0,75.23961722390672,57.14017850864661,48.0,41.0,49.0,18.0,30.0,9.0,7.0,15.132745950421556,13.152946437965905,13.0,62.0,35.0,47.67598976424087,267.0805122055894,264.3709515056448,258.00775182152955,242.1321952983535
263,39,263,0,8.766666666666639,24.186773244895647,109.45775440780794,13.152946437965905,24.08318915758459,29.154759474226502,31.016124838541646,27.073972741361768,88.45903006477066,64.38167441127949,52.0,41.0,51.0,19.0,42.0,15.0,6.0,15.132745950421556,14.317821063276353,15.0,63.0,38.0,58.42088667591412,265.37709019431196,265.48257946614876,261.04788832702707,244.05122413132864
264,39,264,0,8.799999999999972,33.13608305156178,119.41942890501528,12.165525060596439,25.179356624028344,32.0624390837628,35.05709628591621,25.179356624028344,95.63472172804185,70.45565981523414,53.5,40.0,50.0,20.0,50.0,22.0,8.0,15.297058540778355,15.132745950421556,15.5,63.0,37.0,54.589376255824725,267.9888057363591,266.36816626616627,261.03064954139006,245.05101509685693
265,39,265,0,8.833333333333306,32.2490309931942,124.57929201917949,12.041594578792296,23.194827009486403,30.14962686336267,34.0147027033899,24.08318915758459,91.54780172128658,68.3593446428504,52.0,34.0,46.0,16.0,51.0,25.0,4.0,15.132745950421556,14.142135623730951,14.0,64.0,37.0,51.78802950489621,266.58206991468876,265.75364531836624,263.1900454044567,247.0
266,39,266,0,8.866666666666639,35.22782990761707,124.67958934805648,11.180339887498949,21.213203435596427,33.06055050963308,37.013511046643494,26.1725046566048,93.7709976485267,72.56031973468694,54.5,35.0,48.0,15.5,51.5,27.5,4.5,15.297058540778355,13.152946437965905,14.0,62.0,35.0,52.773099207835045,267.5761573832766,266.7508200549719,263.1900454044567,248.0020161208372
267,39,267,0,8.899999999999972,35.12833614050059,123.68508398347798,12.165525060596439,22.20360331117452,32.14031735997639,36.05551275463989,25.179356624028344,94.64142856064674,72.44308110509934,54.5,35.0,48.0,16.5,52.5,27.5,4.5,15.297058540778355,14.035668847618199,14.5,62.0,36.0,54.589376255824725,266.1766330841233,267.47897113605023,264.09278672466615,248.0080643850115
268,39,268,0,8.933333333333305,37.12142238654117,120.50311199301038,12.165525060596439,22.090722034374522,32.0624390837628,36.05551275463989,23.194827009486403,94.53041838477179,72.44308110509934,53.5,36.0,47.0,18.5,52.5,26.5,6.5,15.132745950421556,13.152946437965905,14.0,61.0,35.0,55.57877292636101,263.4919353604584,263.6152499382386,261.15512631384433,247.0
269,39,269,0,8.966666666666638,36.124783736376884,121.59358535712317,12.041594578792296,22.20360331117452,33.13608305156178,37.05401462729781,24.186773244895647,94.53041838477179,72.3394774656273,54.0,37.0,49.0,19.0,51.0,26.0,7.0,16.278820596099706,14.142135623730951,14.5,62.0,37.0,54.74486277268398,266.0845730214362,267.47897113605023,265.09243670840556,249.00803199896987
270,39,270,0,8.999999999999972,38.05259518088089,121.69634341261039,11.180339887498949,21.095023109728988,32.14031735997639,37.013511046643494,24.186773244895647,94.42986815621421,73.33484846919642,54.0,37.0,50.0,19.5,50.5,26.5,7.5,15.297058540778355,13.152946437965905,14.0,61.0,34.0,57.87054518492115,266.9925092582187,267.36678926149375,265.06791582535976,251.03187048659777
271,39,271,0,9.033333333333305,39.05124837953327,119.60351165413162,12.041594578792296,22.20360331117452,33.06055050963308,36.05551275463989,22.20360331117452,95.42536350467836,73.24616030891995,53.5,39.0,51.0,23.0,50.0,25.0,10.0,15.132745950421556,13.152946437965905,14.0,57.0,34.0,52.952809179494906,267.1722290957651,266.48076853686837,262.1221089492453,249.0
272,39,272,0,9.066666666666638,44.04543109109048,119.60351165413162,13.152946437965905,22.090722034374522,31.144823004794873,35.12833614050059,22.090722034374522,101.31633629380802,79.22752047110903,57.0,44.0,56.0,28.0,51.0,26.0,14.0,17.11724276862369,15.132745950421556,15.5,57.0,33.0,55.90169943749474,269.9814808463721,266.42259663924904,262.0686932847951,248.0080643850115
273,39,273,0,9.099999999999971,44.04543109109048,113.35784048754634,13.038404810405298,22.02271554554524,30.066592756745816,34.058772731852805,22.02271554554524,101.1236866416568,79.1012010022604,57.0,47.0,56.0,29.5,49.5,24.5,16.5,16.1245154965971,16.1245154965971,16.0,56.0,36.0,50.00999900019995,269.60155785900054,266.2273464541162,260.0480724789169,245.00204080782675
274,39,274,0,9.133333333333304,31.016124838541646,108.37435120913067,12.165525060596439,20.09975124224178,28.160255680657446,31.064449134018133,24.08318915758459,87.28115489611719,67.1863081289633,51.5,50.0,59.0,30.5,32.5,10.5,17.5,16.1245154965971,14.142135623730951,14.5,54.0,32.0,52.172789842982326,276.52305509667724,271.14940531006147,263.0171097096157,246.05080776132397
275,39,275,0,9.166666666666638,21.0,105.23307464861035,11.045361017187261,20.024984394500787,25.019992006393608,27.018512172212592,25.019992006393608,77.05841939723393,57.0350769263968,46.5,49.0,56.0,27.5,24.5,2.5,16.5,15.132745950421556,15.132745950421556,15.0,60.0,39.0,53.36665625650534,277.2183255125822,272.0073528417936,265.04716561397146,248.29015284541592
276,39,276,0,9.19999999999997,22.02271554554524,104.17293314484334,12.041594578792296,17.029386365926403,26.019223662515376,28.0178514522438,24.08318915758459,75.16648189186454,58.137767414994535,47.0,49.0,55.0,28.0,23.0,5.0,16.0,15.132745950421556,14.142135623730951,14.5,55.0,34.0,50.99019513592785,274.4102767754881,269.09106265351886,262.0,245.073458375239
277,39,277,0,9.233333333333304,23.021728866442675,104.0768946500615,11.045361017187261,16.0312195418814,25.0,27.0,23.08679276123039,73.06161783043132,57.0350769263968,45.5,48.0,52.0,27.0,23.0,5.0,17.0,14.142135623730951,13.152946437965905,13.5,55.0,34.0,47.29693436154187,278.14564530116235,275.0163631495406,267.0074905316328,248.0987706539474
278,39,278,0,9.266666666666636,22.0,104.0768946500615,11.045361017187261,18.027756377319946,28.0,30.0,23.021728866442675,74.06078584514209,56.0357029044876,45.0,50.0,54.0,29.0,22.0,3.0,18.0,14.035668847618199,13.341664064126334,13.5,56.0,39.0,51.97114584074513,277.04512267859906,274.0072991728505,266.1522120892479,246.45689278249046
279,39,279,0,9.29999999999997,18.0,97.04638066409278,12.041594578792296,20.024984394500787,24.020824298928627,25.019992006393608,26.019223662515376,76.05918747922567,56.0357029044876,47.0,56.0,59.0,31.5,18.5,3.5,18.5,14.142135623730951,14.142135623730951,14.0,55.0,37.0,55.90169943749474,275.0163631495406,271.0461215365385,265.1527861441399,249.33912649241395
280,39,280,0,9.333333333333304,19.026297590440446,88.09086218218096,17.029386365926403,24.08318915758459,22.02271554554524,24.020824298928627,28.071337695236398,88.09086218218096,64.03124237432849,54.5,61.0,65.0,35.0,25.0,1.0,18.0,14.035668847618199,13.341664064126334,14.0,54.0,38.0,51.62363799656123,278.1797979724624,276.0,268.09140232390894,249.39326374222702
281,39,281,0,9.366666666666635,25.0,87.02298546935747,15.033296378372908,23.021728866442675,22.02271554554524,25.0,29.0,92.02173656261873,69.00724599634447,56.5,65.0,67.0,37.0,26.0,2.0,21.0,15.033296378372908,13.341664064126334,13.5,53.0,37.0,51.97114584074513,275.14723331336626,274.0072991728505,267.22649569232465,249.57964660604839
282,39,282,0,9.39999999999997,23.021728866442675,89.00561780022652,16.0312195418814,23.0,24.0,27.018512172212592,33.0,95.02105029939419,72.02777242147643,60.5,64.0,65.0,31.5,30.5,6.5,15.5,13.038404810405298,11.40175425099138,12.0,51.0,35.0,54.74486277268398,275.21991207032966,273.00732590903124,264.04734423962685,248.2438317461282
283,39,283,0,9.433333333333303,20.024984394500787,87.05170877128145,16.0312195418814,24.0,25.0,27.018512172212592,35.05709628591621,95.0,71.0,61.0,65.0,68.0,31.5,28.5,2.5,16.5,11.0,9.219544457292887,9.0,51.0,35.0,50.00999900019995,271.0903908293321,269.0018587296378,262.0934947685654,246.45689278249046
284,39,284,0,9.466666666666637,18.0,90.0222194794152,15.033296378372908,21.0,25.019992006393608,27.073972741361768,34.0147027033899,88.0,67.0,58.0,64.0,62.0,29.0,25.0,2.0,15.0,6.0,6.324555320336759,6.0,50.0,34.0,46.87216658103186,272.1176216271192,269.0018587296378,263.0931394012394,248.39484696748443
285,39,285,0,9.49999999999997,3.1622776601683795,95.0,15.033296378372908,20.0,25.0,25.0,32.0,70.0,50.0,48.5,56.0,56.0,24.0,14.0,7.0,10.0,5.0,4.47213595499958,4.0,47.0,36.0,41.773197148410844,267.15164233071823,266.01691675530714,262.00763347658403,248.0987706539474
286,39,286,0,9.533333333333305,1.0,105.01904589168576,14.0,18.0,26.019223662515376,27.018512172212592,29.0,61.00819617067857,43.01162633521314,43.0,50.0,52.0,22.0,10.0,9.0,8.0,4.0,3.605551275463989,3.5,51.0,37.0,40.024992192379,271.1180554666177,270.0296280040396,267.0,255.03137061938085
287,39,287,0,9.566666666666636,11.0,108.07404868885037,14.035668847618199,19.026297590440446,26.019223662515376,28.0,28.0178514522438,72.00694410957877,53.0,47.5,51.0,55.0,25.0,19.0,1.0,11.0,4.0,5.385164807134504,4.0,52.0,39.0,44.91102314577124,271.0664125265246,270.0,266.01691675530714,254.07085625864295
288,39,288,0,9.59999999999997,14.035668847618199,110.04090148667449,14.035668847618199,19.026297590440446,26.019223662515376,28.0178514522438,28.0,75.05997601918082,56.0357029044876,49.0,50.0,53.0,23.5,23.5,3.5,9.5,4.0,5.830951894845301,4.5,52.0,38.0,41.773197148410844,272.1488563268271,271.0903908293321,267.01685340067957,255.0019607767752
289,39,289,0,9.633333333333304,23.021728866442675,112.11155159036913,11.045361017187261,21.095023109728988,30.066592756745816,32.0624390837628,28.071337695236398,83.02409288875127,62.0,50.5,49.0,54.0,23.5,31.5,8.5,12.5,5.0,5.385164807134504,4.5,52.0,38.0,42.7551166528639,272.31048455760936,270.14995835646545,267.09174453734056,255.03137061938085
290,39,290,0,9.666666666666636,44.04543109109048,119.10499569707393,11.045361017187261,22.02271554554524,34.058772731852805,38.01315561749642,23.021728866442675,100.04498987955368,78.02563681252464,56.0,52.0,57.0,31.5,45.5,20.5,19.5,5.0,4.47213595499958,4.0,53.0,37.0,42.20189569201838,278.5821243367923,276.4633791300396,275.3071012524014,262.1907702418222
291,39,291,0,9.699999999999967,46.04345773288535,123.3288287465668,12.165525060596439,23.08679276123039,36.124783736376884,39.05124837953327,23.021728866442675,104.12012293500234,81.05553651663777,58.0,49.0,58.0,30.5,50.5,23.5,17.5,3.1622776601683795,5.0,4.0,56.0,39.0,43.93176527297759,279.5800422061632,278.4600509947522,275.40878707840824,261.27571643763605
292,39,292,0,9.733333333333302,46.010868281309364,122.58874336577564,12.041594578792296,23.08679276123039,36.05551275463989,40.11234224026316,23.021728866442675,104.12012293500234,81.05553651663777,58.0,45.0,57.0,28.0,53.0,26.0,16.0,4.0,5.0,4.0,57.0,38.0,46.32493928760188,275.72631357924473,272.8094573140748,270.7397274136177,258.55947091530027
293,39,293,0,9.766666666666636,45.044422518220834,123.58397954427588,12.165525060596439,23.08679276123039,33.13608305156178,37.12142238654117,25.019992006393608,105.23307464861035,82.15229759416349,59.5,46.0,58.0,27.0,53.0,25.0,14.0,6.082762530298219,6.324555320336759,5.5,61.0,39.0,45.60701700396552,275.42694131112154,274.33191575170395,272.15069355046666,260.0192300580863
294,39,294,0,9.799999999999969,36.124783736376884,119.82069938036582,12.041594578792296,24.186773244895647,29.154759474226502,34.23448553724738,27.0,99.24716620639605,75.1065909225016,57.0,43.0,57.0,23.0,49.0,21.0,11.0,6.082762530298219,5.385164807134504,5.0,62.0,38.0,46.09772228646444,275.98007174431996,276.9729228643118,273.5415873317986,259.40894356209077
295,39,295,0,9.833333333333302,32.0624390837628,112.53888216967503,11.180339887498949,24.186773244895647,29.068883707497267,32.14031735997639,30.0,97.25224933131366,73.10950690573696,57.0,43.0,54.0,18.5,48.5,20.5,7.5,5.385164807134504,5.385164807134504,4.5,61.0,37.0,44.384682042344295,277.34635386101615,275.234445518725,269.9036865253974,256.7586415293554
296,39,296,0,9.866666666666635,19.235384061671343,110.0272693471941,13.152946437965905,26.1725046566048,29.274562336608895,33.24154027718932,33.0,91.35097153287424,65.19202405202648,55.5,43.0,58.0,17.5,40.5,10.5,3.5,6.324555320336759,6.708203932499369,6.0,59.0,33.0,47.07440918375928,277.7516876636396,278.60366113890177,273.3806869550225,258.98455552406983
297,39,297,0,9.899999999999968,4.47213595499958,102.82509421342633,15.132745950421556,27.16615541441225,27.16615541441225,30.14962686336267,38.01315561749642,84.38009243891595,57.21887800367987,55.0,44.0,57.0,12.5,33.5,3.5,2.5,9.486832980505138,8.246211251235321,8.5,60.0,33.0,47.853944456021594,273.6512378923216,273.6512378923216,267.30132809247317,256.00781238079435
298,39,298,0,9.933333333333302,1.4142135623730951,101.83319694480774,15.132745950421556,25.079872407968907,28.284271247461902,30.265491900843113,38.01315561749642,77.23341245859851,52.15361924162119,52.5,43.0,56.0,11.5,27.5,1.5,3.5,14.560219778561036,12.041594578792296,12.5,61.0,33.0,49.24428900898052,276.6224864323217,276.4868893817571,269.15608854343236,256.87740266516244
299,39,299,0,9.966666666666637,1.4142135623730951,102.95630140987001,14.142135623730951,23.194827009486403,28.442925306655784,30.14962686336267,38.118237105091836,74.54528824815154,51.35172830587107,51.5,40.0,54.0,9.0,27.0,1.0,6.0,15.297058540778355,14.035668847618199,13.5,59.0,31.0,48.05205510693585,275.6320010448714,275.3633962602873,271.01660465735307,258.63101128828305
300,39,300,0,9.999999999999968,2.23606797749979,101.83319694480774,13.038404810405298,24.186773244895647,27.294688127912362,29.154759474226502,37.05401462729781,75.4254598925323,51.24451190127583,50.5,40.0,53.0,9.5,28.5,1.5,4.5,17.72004514666935,15.033296378372908,15.5,59.0,31.0,52.172789842982326,274.9254444390333,274.64158461529456,269.2842364491468,255.88473967784793
301,39,301,0,10.0333333333333,17.11724276862369,109.89540481748998,13.152946437965905,28.160255680657446,28.284271247461902,31.25699921617557,30.01666203960727,88.36288813749809,60.207972893961475,51.5,37.0,51.0,14.0,44.0,13.0,0.0,16.492422502470642,15.0,15.5,57.0,29.0,50.21951811795888,274.9254444390333,276.4868893817571,272.13232075591463,256.64372191814863
302,39,302,0,10.066666666666634,37.12142238654117,121.19818480488888,13.152946437965905,26.1725046566048,30.4138126514911,34.23448553724738,27.073972741361768,103.4842983258813,77.31752712031083,58.5,34.0,51.0,15.5,60.5,29.5,1.5,17.46424919657298,16.0312195418814,16.0,58.0,30.0,54.12947441089743,275.9148419349709,276.4868893817571,272.6554602424092,256.2225595063791
303,39,303,0,10.099999999999968,39.11521443121589,126.01983970788092,14.142135623730951,26.1725046566048,33.37663853655727,36.22154055254967,24.020824298928627,103.39245620450265,77.23341245859851,57.5,30.0,46.0,14.0,65.0,34.0,1.0,16.492422502470642,15.033296378372908,16.0,56.0,30.0,50.80354318352215,277.5103601669675,279.7320146139873,278.08631753468205,264.59402865522117
304,39,304,0,10.1333333333333,40.11234224026316,127.4244874425634,13.152946437965905,26.30589287593181,33.37663853655727,37.33630940518894,24.020824298928627,103.4842983258813,77.23341245859851,57.0,27.0,46.0,12.5,66.5,35.5,1.5,17.26267650163207,15.0,15.5,56.0,30.0,50.80354318352215,271.8124353299532,275.3633962602873,273.87588429797904,259.5149321330085
305,39,305,0,10.166666666666634,35.05709628591621,127.1416532848303,13.152946437965905,27.294688127912362,33.37663853655727,38.3275357934736,24.08318915758459,99.50376877284599,72.24956747275377,54.5,28.0,45.0,12.5,62.5,30.5,1.5,18.439088914585774,17.029386365926403,16.5,56.0,30.0,51.97114584074513,274.08392875176025,274.5050090617656,269.9036865253974,258.4143958838207
306,39,306,0,10.199999999999967,37.05401462729781,129.40247292845683,13.152946437965905,25.317977802344327,34.23448553724738,38.3275357934736,24.020824298928627,99.40824915468535,74.16872656315464,55.5,26.0,45.0,11.5,63.5,33.5,2.5,17.26267650163207,16.0,16.5,56.0,30.0,53.9351462406472,272.2590678012396,272.66096163550804,270.0240730009086,258.63101128828305
307,39,307,0,10.2333333333333,36.124783736376884,127.57742747053649,12.165525060596439,24.331050121192877,34.23448553724738,38.3275357934736,24.186773244895647,96.74709297958259,72.44308110509934,54.0,25.0,45.0,11.0,61.0,32.0,2.0,18.439088914585774,17.029386365926403,17.0,56.0,29.0,53.9351462406472,277.35356496717327,275.77164466275354,273.00183149568795,260.5091169229975
308,39,308,0,10.266666666666634,36.22154055254967,130.23056476879765,12.165525060596439,24.331050121192877,34.52535300326414,37.656340767525464,25.317977802344327,98.00510190801293,73.68174807915459,55.0,22.0,46.0,9.0,63.0,33.0,4.0,18.439088914585774,16.0312195418814,16.5,58.0,28.0,51.419840528729765,279.5084971874737,279.6444170728248,276.90431560378397,262.21365334398587
309,39,309,0,10.299999999999969,36.22154055254967,132.38202294873727,13.152946437965905,26.476404589747453,34.52535300326414,39.81205847478876,24.515301344262525,100.2845950283492,73.824115301167,55.0,23.0,48.0,11.5,63.5,31.5,2.5,18.439088914585774,16.1245154965971,16.5,60.0,26.0,52.392747589718944,275.74626017409554,276.55740814521675,272.5747603869441,258.5188581129044
310,39,310,0,10.3333333333333,48.25971404805462,132.9812016790343,12.36931687685298,25.495097567963924,35.90264614203248,40.792156108742276,25.179356624028344,111.15754585272202,85.70880934886448,61.0,24.0,52.0,13.0,72.0,40.0,1.0,18.439088914585774,17.11724276862369,16.5,62.0,25.0,53.600373133029585,274.9727259202265,273.38617375427015,267.3443472377899,252.68557536986555
311,39,311,0,10.366666666666632,49.16299421312742,122.78436382536663,11.40175425099138,24.73863375370596,30.805843601498726,34.713109915419565,26.30589287593181,111.30588483993108,86.70063436907483,61.5,31.0,57.0,18.0,66.0,36.0,5.0,17.72004514666935,16.1245154965971,15.5,65.0,24.0,48.76474136094644,278.0017985553331,276.37112729082247,269.2675249635574,251.62074636245717
312,39,312,0,10.399999999999968,44.10215414239989,112.58774356030055,11.704699910719626,24.73863375370596,26.92582403567252,32.7566787083184,27.294688127912362,107.35455276791944,82.73451516749222,60.0,35.0,59.0,20.0,59.0,29.0,6.0,17.72004514666935,16.1245154965971,16.0,67.0,23.0,52.20153254455275,272.6187814513153,272.1562051469707,264.9849052304678,246.33716731342025
313,39,313,0,10.4333333333333,27.16615541441225,105.72133181151285,12.36931687685298,24.515301344262525,25.495097567963924,28.442925306655784,31.064449134018133,94.89467845985885,70.45565981523414,56.5,39.0,58.0,17.5,45.5,17.5,3.5,18.027756377319946,16.278820596099706,16.0,64.0,21.0,51.92301994298868,268.2461556108493,266.3174797117155,259.12352266824405,241.81191037663964
314,39,314,0,10.466666666666631,1.4142135623730951,98.65596788841515,13.341664064126334,18.681541692269406,24.331050121192877,25.317977802344327,37.12142238654117,68.06614430096654,49.49747468305833,49.5,37.0,55.0,9.0,21.0,1.0,5.0,19.313207915827967,17.26267650163207,16.5,64.0,22.0,49.040799340956916,272.1562051469707,269.1059270993487,262.01145013147806,246.95141222515818
315,39,315,0,10.499999999999966,2.0,98.65596788841515,14.142135623730951,18.681541692269406,26.30589287593181,27.459060435491963,35.35533905932738,68.4470598345904,49.8196748283246,49.0,35.0,53.0,9.0,23.0,0.0,5.0,17.72004514666935,16.278820596099706,16.0,63.0,22.0,49.040799340956916,270.51247660690257,267.7106647109898,259.47832279402456,244.63237725207185
316,39,316,0,10.5333333333333,2.0,104.7377677822093,14.317821063276353,21.587033144922902,27.459060435491963,30.4138126514911,36.22154055254967,72.3671196055225,50.80354318352215,50.0,36.0,55.0,9.5,25.5,0.5,5.5,17.72004514666935,16.1245154965971,16.0,63.0,23.0,49.040799340956916,271.93013808697265,270.29613389761977,262.01145013147806,249.09837414162303
317,39,317,0,10.566666666666633,16.278820596099706,112.17842929904127,13.341664064126334,24.515301344262525,28.635642126552707,32.55764119219941,31.144823004794873,85.15867542417507,60.67124524847005,52.0,34.0,56.0,14.0,39.0,10.0,1.0,18.027756377319946,16.278820596099706,16.5,61.0,23.0,47.80167361086848,277.7804888756588,275.95108262154,267.89923478800756,253.84247083575278
318,39,318,0,10.599999999999966,27.294688127912362,114.33722053644648,12.165525060596439,23.53720459187964,29.614185789921695,33.54101966249684,29.154759474226502,92.07062506576133,68.59300255857006,54.5,33.0,56.0,15.5,46.5,18.5,2.5,17.46424919657298,16.1245154965971,16.5,63.0,25.0,49.72926703662542,269.1059270993487,266.5276721092952,260.2786967848118,246.43457549621561
319,39,319,0,10.6333333333333,33.06055050963308,116.49892703368559,11.40175425099138,24.515301344262525,31.575306807693888,35.510561809129406,27.294688127912362,96.0260381354974,71.56814934033156,54.5,33.0,57.0,18.0,50.0,20.0,5.0,16.492422502470642,16.1245154965971,16.0,62.0,26.0,46.84015371452148,273.22701184180164,271.22868579853423,263.86549603917524,249.07227866625382
320,39,320,0,10.666666666666632,35.12833614050059,118.25819210524064,12.36931687685298,23.53720459187964,32.55764119219941,37.656340767525464,27.16615541441225,98.00510190801293,74.54528824815154,56.5,36.0,59.0,20.5,49.5,20.5,6.5,16.492422502470642,15.033296378372908,14.5,60.0,26.0,45.880278987817846,269.2675249635574,267.7106647109898,264.51843035977663,251.58895047279003
321,39,321,0,10.699999999999966,40.01249804748511,105.11898020814318,13.038404810405298,22.02271554554524,30.01666203960727,35.05709628591621,25.317977802344327,100.24470060806208,78.23042886243178,58.0,61.0,56.0,33.5,41.5,18.5,21.5,17.0,15.132745950421556,16.0,43.0,47.0,41.012193308819754,254.78618486880328,252.05158202241066,245.98577194626523,232.04525420701884
322,39,322,0,10.7333333333333,34.0147027033899,102.23991392797629,11.045361017187261,21.02379604162864,28.0178514522438,32.0624390837628,29.427877939124322,95.33624704172071,74.33034373659252,57.0,60.0,53.0,27.5,38.5,16.5,17.5,14.0,13.038404810405298,13.0,43.0,46.0,40.01249804748511,251.44780770569466,249.51352668743232,241.59884105682295,226.63847863944022
323,39,323,0,10.766666666666632,14.035668847618199,95.13148795220224,12.0,19.026297590440446,25.079872407968907,27.018512172212592,31.400636936215164,76.32168761236873,57.3149195236284,50.0,53.0,48.0,19.5,25.5,5.5,9.5,12.0,11.045361017187261,11.0,42.0,45.0,43.01162633521314,254.33245958783948,251.3901350490906,245.39967400141344,231.36551169091732
324,39,324,0,10.799999999999963,12.0,96.08329719571451,13.038404810405298,20.024984394500787,25.019992006393608,27.018512172212592,30.14962686336267,75.16648189186454,55.14526271584895,49.0,50.0,46.0,18.0,27.0,6.0,6.0,11.0,10.04987562112089,10.0,41.0,44.0,46.0,248.20153101864622,246.16457909293123,241.16799124261908,229.0785891348207
325,39,325,0,10.833333333333298,20.024984394500787,100.07996802557443,12.0,21.02379604162864,26.0,28.0,29.274562336608895,82.21921916437786,61.204574992397426,51.0,50.0,46.0,19.0,34.0,11.0,7.0,12.041594578792296,12.041594578792296,11.5,42.0,44.0,44.0,249.1625975141534,248.12899870833317,244.07375934335914,229.01964981197574
326,39,326,0,10.866666666666632,24.0,104.01922899156675,12.041594578792296,21.0,27.0,30.01666203960727,28.160255680657446,85.09406559801923,64.1248781675256,52.0,49.0,47.0,20.0,37.0,14.0,9.0,11.045361017187261,11.045361017187261,10.5,42.0,45.0,44.04543109109048,247.12952069714376,246.05080776132397,241.0186714758838,229.0
327,39,327,0,10.899999999999965,31.064449134018133,104.01922899156675,11.045361017187261,22.0,29.0,32.0,26.30589287593181,90.27181176868004,68.3593446428504,52.5,48.0,46.0,21.0,43.0,19.0,10.0,11.045361017187261,10.04987562112089,9.5,41.0,43.0,45.09988913511872,246.03251817595168,246.0081299469593,243.00205760445732,228.0548179714693
328,39,328,0,10.933333333333298,30.01666203960727,106.00471687618433,11.045361017187261,20.0,30.01666203960727,33.06055050963308,26.1725046566048,87.14355971613737,67.1863081289633,52.0,47.0,48.0,21.5,39.5,17.5,10.5,11.045361017187261,11.045361017187261,10.5,42.0,44.0,42.01190307520001,244.0327846827143,244.00204917172314,239.0083680543424,226.07963198837706
329,39,329,0,10.966666666666631,32.01562118716424,107.0,12.041594578792296,20.024984394500787,29.017236257093817,33.015148038438355,26.1725046566048,90.19977827023745,70.178344238091,54.0,48.0,48.0,22.0,42.0,19.0,10.0,11.045361017187261,10.0,9.5,41.0,43.0,42.01190307520001,242.00206610688264,243.00823031329617,238.03361107205006,224.1093483101497
330,39,330,0,10.999999999999964,36.05551275463989,107.00467279516349,11.0,20.0,30.0,34.0147027033899,26.30589287593181,93.1933474020544,73.24616030891995,55.0,49.0,50.0,23.5,43.5,20.5,13.5,11.045361017187261,11.045361017187261,10.5,40.0,42.0,41.048751503547585,237.00210969525145,238.01890681204299,234.10467744152402,220.22715545545242
331,39,331,0,11.033333333333298,39.05124837953327,108.00462953040486,12.041594578792296,21.0,30.0,34.0147027033899,25.179356624028344,97.18538984847466,76.23647421018367,56.5,49.0,50.0,24.5,47.5,23.5,13.5,11.0,11.0,10.5,40.0,43.0,43.04648650006177,239.00209204105306,240.00833318866242,234.03418553707064,218.11235636707977
332,39,332,0,11.066666666666633,42.01190307520001,108.0,11.045361017187261,22.0,30.01666203960727,33.015148038438355,25.179356624028344,100.12492197250393,78.16009211867653,57.0,51.0,51.0,26.0,49.0,24.0,15.0,11.045361017187261,11.045361017187261,10.5,42.0,42.0,41.048751503547585,242.00206610688264,243.0514348857048,237.1349826575573,220.22715545545242
