,video_id,frame_seq,gap,time_seconds,m1,m3,m4,m5,m6,m7,m8,m9,m10,m11,m12,m13,m14,m15,m16,m17,e1,e2,e3,b1,b2,b3
0,58,205,1,6.840166666666675,22.157949572148937,156.68036399655787,22.157949572148496,32.24455289402749,43.32731606838262,43.32731606838268,32.68932635833491,108.68428758671193,76.94528976700633,64.48910578805499,75.2372900860646,59.11501363905063,34.931598968530125,40.30569111753448,2.6870460745021774,18.80932252151615,22.157949572148496,21.49636859601833,21.49636859601833,48.36682934104101,59.115013639050176,53.74092149004588
1,58,206,0,6.8735333333333415,16.573415809301174,147.5871750828203,15.722922769929937,31.879601830567506,42.25408530925606,47.45904039296899,31.879601830567516,95.63880549170298,63.75920366113548,55.03022969475478,68.13266533636352,52.409742566433124,28.825358411538218,34.066332668181985,2.620487128322111,18.343409898251593,26.204871283216562,21.60909044128382,23.58438415489536,41.927794053146954,57.65071682307689,57.88845274641042
2,58,207,0,6.906900000000008,11.73303088576904,158.82987918742833,17.59954632865265,35.684620319392444,41.06560810019039,46.93212354307468,37.10310145613207,101.27175828234103,65.58963660670851,58.66515442884338,70.39818531461196,58.66515442884338,29.332577214421235,35.19909265730621,4.547473508864641e-13,11.733030885768585,23.46606177153717,23.466061771537625,23.466061771537625,52.79863898595886,58.66515442884338,58.665154428843266
3,58,208,0,6.940266666666675,11.563881692555242,162.30681402974048,17.34582253883309,29.482229201608543,46.615497388105766,46.25552677022108,36.56820474119758,94.12317773381432,64.64406387079735,57.819408462776664,63.60134930905406,52.037467616498816,23.12776338511094,34.69164507766527,4.547473508864641e-13,11.563881692555697,17.345822538832635,17.34582253883309,17.34582253883309,46.25552677022142,46.25552677022142,46.61549738810571
4,58,209,0,6.973633333333342,11.919076009447053,155.40573797716232,17.878614014171035,29.797690023618088,41.71676603306503,47.67630403778867,32.09309432981776,90.18417460736423,60.775601156166616,53.635842042512195,59.59538004723572,47.67630403778867,23.83815201889456,35.757228028341615,5.959538004723527,5.959538004723527,18.845713897261646,17.87861401417058,20.85838301653257,53.635842042512195,53.635842042512195,48.04733145486239
5,58,210,0,7.0070000000000086,18.148518120567132,151.3585927681595,18.148518120567132,24.942752386511465,42.34654228132331,42.34654228132331,32.57758702817365,92.53964803956406,67.63553368079138,57.47030738179592,60.49506040189044,54.4455543617014,27.2227771808507,33.27228322103974,3.024753020094522,9.074259060283566,19.130217805943488,18.148518120567132,18.148518120567132,48.39604832151235,48.39604832151235,42.776467438466405
6,58,211,0,7.040366666666675,6.222713912870859,149.86279623719494,18.668141738611666,31.729739669231993,37.85129102597441,44.001232051746506,39.35589838457862,95.1892190076964,63.45947933846441,59.115782172269974,68.4498530415758,56.004425215834544,24.890855651482525,31.113569564352474,0.0,12.445427825741262,19.677949192289507,12.445427825741262,12.445427825741262,43.55899739009374,49.78171130296414,43.55899739009385
7,58,212,0,7.073733333333342,12.861470387249938,148.46505071756656,19.292205580873997,32.153675968123935,45.015146355373645,45.015146355373645,34.63056884870996,97.31468195955934,65.5808884780818,57.876616742623355,70.73808712987284,57.876616742623355,32.153675968123935,32.153675968123935,0.0,12.861470387249938,14.379561038245194,19.29220558087445,19.29220558087445,45.01514635537387,51.445881548998386,45.47216463427089
8,58,213,0,7.107100000000009,6.535459155621993,150.45756869843376,19.60637746686507,32.6772957781086,39.75364607011026,45.74821408935213,29.227461872286884,85.9605442214063,53.89277682107665,49.015943667162446,58.81913240059521,52.28367324497367,29.40956620029783,29.40956620029783,3.267729577810769,16.3386478890543,19.606377466865524,19.60637746686507,16.3386478890543,45.74821408935213,45.74821408935213,46.21267487107833
9,58,214,0,7.140466666666676,13.287276776598446,153.3803026512184,14.855627054163799,26.574553553196893,46.50546871809456,39.86183032979534,33.87604178319186,87.38341987451336,61.251319479101916,53.14910710639333,66.43638388299178,53.14910710639333,26.574553553196438,26.574553553196893,6.643638388299223,13.287276776598446,26.574553553196893,19.93091516489767,23.25273435904728,39.861830329794884,46.50546871809411,46.505468718094335
10,58,215,0,7.173833333333342,6.871067372241214,151.31956223313958,20.613202116722732,27.484269488963946,41.79507115502186,41.22640423344569,30.728347444623395,83.59014231004424,56.66027307296954,51.53300529180751,61.83960635016865,54.96853897792789,30.919803175084326,24.048735802843566,3.4355336861203796,17.177668430602353,20.613202116722732,20.613202116722732,20.613202116722732,48.09747160568668,48.09747160568668,48.097471605686906
11,58,216,0,7.207200000000009,7.124704998791003,149.78834475135338,14.249409997582006,36.329009817426936,42.74822999274579,50.37927218598782,29.375911261380956,86.67577721214774,50.37927218598763,46.31058249214084,56.99763999032757,49.87293499153657,24.93646749576874,32.06117249455883,3.562352499395729,10.687057498186732,21.37411499637301,22.53029545296677,21.37411499637301,49.87293499153657,49.87293499153657,49.87293499153657
12,58,217,0,7.240566666666676,16.166400316188895,144.77731325901345,21.68950203508348,28.91933604677797,43.37900407016696,43.37900407016696,22.86274258190703,87.95472685322184,59.61873857179892,50.60883808186145,65.06850610525044,57.83867209355594,39.76408706431948,25.304419040930952,3.614917005847019,18.074585029236005,21.68950203508348,21.68950203508348,21.68950203508348,43.37900407016696,50.60883808186145,43.379004070167184
13,58,218,0,7.273933333333343,7.387168551530522,147.92793496395888,14.774337103062862,29.548674206124815,44.93439207025119,44.93439207025104,39.781120108076394,89.86878414050231,60.9161524244079,55.40376413648437,66.4845169637806,59.097348412249175,25.8550899303591,25.8550899303591,3.6935842757657156,18.46792137882767,14.774337103062408,14.774337103061953,14.774337103061953,44.32301130918722,51.7101798607182,52.23516976555695
14,58,219,0,7.3073000000000095,0.0,125.13511357287243,17.45410694364745,23.417141767529756,39.80148760839943,31.222855690038614,39.80148760839973,79.60297521679944,56.82645512015661,54.639997457567006,70.25142530258654,62.44571138007723,27.319998728783503,11.708570883764878,11.708570883764878,19.51428480627419,15.611427845019534,15.611427845019534,15.611427845019534,46.83428353505769,46.83428353505769,46.83428353505792
15,58,312,1,10.410399999999957,12.785034925516923,137.96587040473725,17.38952754925701,25.887722649770122,28.73079264718904,31.962587313792284,37.27446181230314,91.52692117564494,66.00100147682768,60.03523509514605,62.894055813962495,48.59995221988015,18.58233467230707,35.735258985205974,12.864693234674178,4.288231078224726,25.7293864693483,25.88772264977011,27.158796828756635,42.8823107822472,62.89405581396255,68.6116972515955
16,58,313,0,10.44376666666662,6.494841693714786,129.4088039690021,20.332070542344923,23.41748475271038,26.778918324851926,30.324721203267302,37.75955957864039,87.13744518147791,63.96677228657429,60.99621162703454,75.5191191572809,55.187048614935975,27.5935243074681,21.784361295369422,1.452290753024613,10.166035271172518,29.045815060492657,29.621035556331833,29.045815060492657,37.75955957864045,60.99621162703454,90.22922445027721
17,58,353,1,11.778433333333256,13.949605762530657,133.02774156451227,13.949605762530876,27.27684598859321,34.50278428383247,40.74004218633528,41.15933325479294,96.23027658951179,69.00556856766464,60.89897434726504,50.7491452893878,33.83276352625853,1.691638176313063,52.44078346570063,21.991296292068,5.074914528938734,7.565235911138753,9.569350606279126,5.074914528938734,40.5993162315101,67.66552705251684,65.07862002952906
18,58,354,0,11.811799999999922,21.15707938450055,128.69348973058624,14.538812171979153,29.07762434395808,35.437669386735166,38.947929978516626,35.96012021073356,100.29487144005667,71.31257511546612,59.945058256085304,52.89269846125171,31.735619076750936,7.052359794833592,56.41887835866851,24.683259281917344,3.526179897416796,7.88477795151709,4.986771434294362,3.5261798974165686,38.78797887158453,66.9974180509189,60.3584773499232
19,58,355,0,11.845166666666588,22.05543177236785,138.97145359289573,14.503562591838545,29.23286497099595,36.43975002777999,40.04927121555755,33.429060026146765,98.96755442197306,69.7453991791266,58.014250367354634,47.13657842347561,29.007125183677317,5.4388359719393975,59.82719569133451,30.820070507657192,5.438835971939625,3.62589064795975,8.107737967818556,7.2517812959192725,39.88479712755634,68.89192231123388,65.6676725720914
20,58,356,0,11.878533333333252,18.83025477295223,129.42290405885265,15.527825877234696,26.630001682849556,34.10304184366666,37.84834367643757,38.4063346132828,99.06933297675687,72.44143650737126,62.13984075074245,52.724713364266336,33.894458591314105,5.64907643188576,54.607738841561286,24.479331204837763,5.649076431885533,7.532101909180938,10.652000673139803,5.649076431885987,41.426560500494816,67.78891718262798,64.46440846873193
21,58,357,0,11.91189999999992,16.102626066998187,137.58089742588206,15.621841911543243,27.615775875691163,35.365448769029705,39.249392045955204,36.00656650206847,95.0239546337773,67.41870081965183,58.58190716828699,46.86552573462973,31.243683823086485,3.905460477885754,54.676446690401235,23.43276286731475,7.810920955771735,7.810920955771508,8.73287511199136,7.810920955771508,39.054604778857765,70.29828860194425,70.73089753806032
22,58,358,0,11.945266666666583,20.37636327206451,139.5148627478394,12.887143674145227,24.78891580301186,36.90316342862845,36.90316342862845,41.559789576124885,99.1556632120473,74.36674740903544,63.166726143399956,48.90327185295496,32.602181235303306,0.0,57.0538171617809,28.52690858089045,8.15054530882594,5.763305858239186,9.112586682113257,4.075272654413084,36.67745388971616,65.20436247060661,65.7117970689394
23,58,359,0,11.978633333333253,16.608201156429004,125.66384439686814,13.129935873139376,29.359429152552895,29.35942915255315,33.474899614680176,42.34277089115283,101.0237436899816,71.6755009593662,62.28075433660865,53.97665375839415,37.368452601965146,4.152050289107137,53.97665375839415,24.912301734643506,4.152050289107137,8.304100578214502,9.284266692441214,4.152050289107137,41.52050289107251,66.43280462571579,58.276802896567
24,58,360,0,12.011999999999915,12.873491406275662,133.64753710073583,13.569851427478739,30.343110236414375,30.343110236413764,38.858140918775675,38.8581409187763,95.27929880492026,64.93709164870202,57.93071132824093,47.202801823011214,34.329310416735325,2.145581901046171,53.63954752614882,23.60140091150538,6.436745703137831,4.291163802091887,9.595333964064118,8.582327604183774,38.62047421882721,64.36745703137854,64.51033724499335
25,58,361,0,12.045366666666585,17.727511663416635,125.35243710765631,14.014828525899167,26.95806092541413,31.338109276913645,35.73094206660889,40.85989547451242,99.09980287830066,72.14574549600658,62.04629082195879,53.18253499025036,35.4550233268335,4.431877915854102,53.18253499025036,22.159389579270965,4.431877915854102,4.431877915854329,9.909980287830374,6.647816873781267,39.8869012426876,66.4781687378129,71.04840785187469
26,58,362,0,12.078733333333249,17.923303927898132,126.73689748684184,14.169615901899999,27.25580038794133,31.365781873821106,36.12557399195118,36.94983762738581,95.78911878025198,68.54345735730485,58.250737765668646,49.28908580171969,31.36578187382156,4.480825981974476,53.76991178369417,22.40412990987261,8.961651963948952,4.480825981974476,10.01943149104248,8.96165196394918,35.846607855796265,67.21238972961783,63.36844874342094
27,58,363,0,12.112099999999916,14.091341769030805,132.85444427865016,14.853578426000917,33.21361106966263,33.21361106966277,37.869343120429924,38.73339368026062,100.4128268550462,67.25243666348403,58.71392403762752,51.66825315311212,32.87979746107135,4.697113923010193,56.36536707612254,23.48556961505119,4.697113923010193,10.503066029911402,10.503066029911606,9.39422784602084,42.27402530709196,70.45670884515312,66.42722213932554
28,58,364,0,12.14546666666658,15.205718425394199,136.00408018360906,14.425411105030207,29.248783384608764,34.00102004590249,34.00102004590249,44.33190633251798,102.79335576018177,73.5554527161478,64.9143499726365,52.893174051777805,33.65929257840412,2.2737367544323206e-13,57.70164442012151,28.85082221006087,9.616940736686956,4.808470368343478,6.800204009180499,4.808470368343478,43.276233315091076,67.31858515680824,63.245553203367955
29,58,365,0,12.178833333333246,14.834045293024474,139.24350274334014,14.834045293024474,30.07732496038525,30.077324960385738,39.86529886743332,40.77489039889089,99.99999999999996,69.92836012750656,61.80852205426868,49.44681764341499,34.612772350390514,2.472340882171011,56.863840289926884,27.195749703877937,7.417022646512123,6.992836012750286,6.99283601275109,7.4170226465123505,39.55745411473208,69.2255447007808,64.47076250211308
30,58,366,0,12.212199999999912,15.996161381847108,128.06922804076734,15.175291135879206,30.7692307692309,35.7685042288671,35.7685042288671,36.82592902367473,98.21695193076205,67.48787880340426,58.17194935420321,50.58430378626372,30.350582271758185,5.058430378626326,55.64273416489027,25.29215189313186,5.058430378626554,5.058430378626326,11.310994186058466,10.116860757252653,35.40901265038451,65.7595949221427,66.53326383025257
31,58,367,0,12.245566666666578,20.489259959703077,144.88094659000032,16.198182260987842,26.11878408840044,35.856204929480555,46.38453503263216,31.157825689105533,93.47347706731644,67.37353470088374,56.34546488918386,40.97851991940638,20.489259959703304,2.2737367544323206e-13,61.46777987910923,30.7338899395545,10.244629979851425,5.122314989925826,7.244047329500267,5.122314989926053,40.97851991940615,66.59009486903506,67.37353470088354
32,58,368,0,12.278933333333244,15.799050110667395,138.5360399175638,16.653661072281157,26.853221603507617,36.86445025822377,37.238718231863125,37.238718231863125,96.10187002747097,69.26801995878209,60.563025424224634,47.39715033200196,26.331750184445582,0.0,57.929850405779916,26.331750184445355,10.532700073778187,7.447743646372445,11.7759166757932,5.266350036889207,42.13080029511298,68.46255047955833,69.26801995878147
33,58,369,0,12.31229999999991,10.9836653630191,139.0420979246479,17.366699802120255,33.405514057753486,32.9509960890573,33.405514057753486,38.83312130237304,100.21654217326046,66.81102811550697,60.41015949660505,49.42649413358595,27.45916340754775,0.0,60.41015949660505,27.45916340754775,10.9836653630191,7.766624260474607,12.280111196910307,8.237749022264325,38.442828770567075,65.90199217811482,66.13042264529975
34,58,370,0,12.345666666666576,17.851095798045364,130.93508017363342,16.93503643550548,28.225060725842468,34.337268359709284,39.515085016179,34.33726835970936,96.6270433206783,68.67453671941857,59.272627524268955,50.80510930651644,33.87007287101096,8.467518217752968,53.62761537910046,25.402554653257994,2.8225060725840194,5.645012145168494,7.983252735457802,5.645012145168494,45.16009716134795,73.38515788719042,67.9749476444776
35,58,371,0,12.379033333333242,11.290024290336987,130.93508017363342,16.93503643550548,28.784027082682325,33.87007287101096,33.87007287101096,39.91626367729068,96.6270433206783,67.97494764447764,62.09513359685343,50.80510930651644,33.87007287101096,2.8225060725840194,53.62761537910092,25.40255465325845,8.467518217752968,5.645012145168494,7.983252735457802,5.645012145168494,39.515085016179455,67.74014574202192,67.9749476444776
36,58,372,0,12.412399999999908,11.585688927269985,128.62202051388303,11.58568892726953,35.236497247243896,35.23649724724345,35.23649724724352,42.17254426677257,99.99999999999979,64.76597001885486,57.92844463634901,52.13560017271402,34.7570667818095,2.8964222318172688,55.032022404531745,20.274955622722246,2.8964222318177235,5.792844463634992,8.192319205190183,5.792844463634992,34.7570667818095,57.92844463634924,63.98405841726254
37,58,384,1,12.812799999999898,3.6476860207003483,179.3311667270011,15.039794752436835,25.7930352087664,51.19771304663718,51.19771304663764,58.817169767504616,100.16203089211211,74.39848879604432,72.95372041400856,54.71529031050642,69.3060343933081,3.647686020700462,36.47686020700422,7.29537204140081,7.29537204140081,10.943058062101272,10.943058062101272,10.943058062101272,40.124546227704684,18.23843010350211,55.19950585816389
38,58,385,0,12.846166666666564,5.383575204762045,183.08113779423357,12.03804011982996,26.917876023809615,53.430458313163996,53.430458313163996,57.606770325370526,100.78938503561403,73.9139584532869,70.42510688482588,53.294675480408785,64.71496308335355,1.9033812671574424,39.97100661030663,9.516906335787326,9.516906335787326,11.420287602944768,12.03804011983005,11.420287602944711,41.87438787746407,30.454100274519362,41.87438787746396
39,58,386,0,12.87953333333323,5.764802004744626,188.21879910377723,12.228991769258641,24.795350972457296,53.14884837023641,53.14884837023595,58.36417197884146,99.93247278662714,75.16382218969909,71.33578532067531,48.915967077034566,65.22128943604605,0.0,40.76330589752877,12.228991769258641,12.228991769258641,12.228991769258641,16.30532235901154,14.26715706413512,36.68697530777587,24.457983538517283,57.21402627118755
40,58,387,0,12.912899999999896,4.34372242763061,169.90563418645638,13.03116728289217,26.42183202480809,52.30534443633617,52.30534443633617,57.13274843201765,100.75189028612026,74.35255131326994,71.67142005590642,56.46839155919895,69.49955884209112,6.515583641446028,36.92164063486098,6.515583641446142,6.515583641446142,13.031167282892113,8.68744485526139,10.859306069076752,47.780946703937616,30.406056993414836,43.437224276307006
41,58,388,0,12.946266666666562,0.0,182.14076350987102,13.622298275594972,32.10806495339679,54.67806435536535,54.489193102379886,59.72445319363206,105.32228399135023,73.21765321469975,72.65225746983992,54.489193102379886,68.11149137797497,2.2703830459324763,43.137277872717505,6.811149137797543,11.351915229662495,4.540766091865066,9.081532183730019,11.351915229662495,45.407660918649924,31.785362643054896,50.15440077925135
42,58,389,0,12.979633333333227,4.817878595024013,188.88296254128448,14.453635785072038,33.72515016516809,53.21520841901916,52.99666454526414,58.612022786675794,106.974265125312,73.6993709104453,72.26817892536019,52.99666454526414,72.26817892536019,4.817878595024013,43.36090735521611,4.817878595024013,9.635757190048025,9.635757190048025,14.453635785072038,14.453635785072038,52.99666454526414,43.36090735521611,43.36090735521611
43,58,390,0,13.012999999999892,0.0,137.84243666416106,19.6694882871613,19.669488287161244,39.338976574322714,45.89547267004309,32.78248047860217,72.12145705292471,52.45196876576347,52.45196876576347,52.45196876576347,59.0084648614839,22.947736335021546,16.391240239301,3.278248047860245,3.278248047860245,20.73346113247788,19.6694882871613,19.6694882871613,52.45196876576341,45.89547267004298,52.86016144941125
44,58,391,0,13.04636666666656,5.043530698606901,177.17084171559745,15.949044456578058,25.71706144960075,50.686856212304306,50.43530698606901,50.68685621230426,97.01425001453315,71.3262951621492,68.08766443119305,50.43530698606901,65.5658990818896,7.565296047910351,37.82648023955164,7.565296047910238,7.565296047910238,10.087061397213802,10.087061397213802,10.087061397213802,40.34824558885509,20.174122794427603,56.388387443460594
45,58,392,0,13.079733333333223,7.01646415445623,140.3292830891246,15.689290811054663,14.03292830891246,35.08232077228149,35.08232077228149,35.777087639996594,70.1646415445623,56.13171323564984,52.62348115842167,49.11524908119361,49.11524908119361,14.03292830891246,21.04939246336869,0.0,0.0,22.18800784900926,21.04939246336869,21.04939246336869,49.11524908119361,49.11524908119361,56.56854249492422
46,58,393,0,13.113099999999893,7.017543859649095,133.33333333333348,15.69170510526162,14.035087719298303,35.0877192982457,42.105263157895024,35.08771929824559,70.52544295523435,56.577247356481024,52.63157894736844,56.140350877192986,56.140350877192986,21.0526315789474,14.035087719298303,0.0,7.017543859649095,14.03508771929819,21.05263157894734,17.543859649122737,42.10526315789474,49.12280701754389,56.14035087719276
47,58,394,0,13.146466666666557,0.0,184.92005352428993,17.302494021854272,29.408584883752166,51.90748206556236,57.674980072847575,52.22691573940316,98.72366355824587,69.44987273771508,69.20997608741663,51.90748206556236,63.44247808013188,5.7674980072847575,40.372486050993075,5.7674980072847575,5.7674980072847575,11.534996014569401,11.534996014569515,14.418745018211894,40.372486050993075,17.30249402185416,53.17370428550949
48,58,395,0,13.179833333333224,6.054354789153422,188.5618083164123,13.537948868448051,24.217419156613232,48.434838313226464,54.48919310237943,60.845512597128625,103.63386073331704,79.63260425817619,75.67943486441663,54.489193102379886,72.65225746983992,3.027177394576711,39.35330612949656,9.081532183729905,9.081532183729905,12.108709578306843,12.108709578306616,12.108709578306616,42.38048352407327,30.271773945766654,54.48919310238034
49,58,396,0,13.213199999999889,6.23101338343281,181.6636964746687,13.93296949406642,24.924053533731012,56.07912045089506,56.42422598787256,56.42422598787256,100.47207186066554,75.80354946906314,71.65665390947674,49.84810706746225,68.54114721776045,3.1155066917162912,40.50158699231292,9.346520075149101,9.346520075149101,6.23101338343281,12.46202676686562,9.346520075149101,49.848107067462024,24.924053533731012,56.42422598787258
50,58,397,0,13.246566666666554,6.66574093359759,187.11626473597192,19.997222800792088,26.662963734389223,53.3259274687789,53.3259274687789,53.74092149004595,100.8709641194543,74.52524923963293,73.32315026957076,53.32592746877867,66.6574093359734,6.6657409335973625,39.99444560158395,6.6657409335973625,6.6657409335973625,13.331481867194725,13.331481867194725,13.331481867194725,53.32592746877867,46.66018653518131,40.54611918756066
51,58,398,0,13.27993333333322,0.0,180.4821129736911,13.287276776598219,33.218191941496116,53.562725072959104,59.79274549469301,61.25131947910213,107.12545014591775,74.27813527082058,73.080022271291,53.14910710639356,73.080022271291,3.321819194149384,43.18364952394495,9.965457582448835,9.965457582448835,9.395523512235293,6.643638388299223,9.965457582448835,46.505468718094335,26.574553553196893,60.16070432456401
52,58,399,0,13.313299999999886,6.764133573679146,176.38702345056478,15.125062479635458,20.29240072103744,47.34893501575334,47.34893501575425,54.53418831492125,95.65929437600269,75.62531239817608,71.02340252363115,54.1130685894334,67.64133573679169,6.764133573679146,33.82066786839573,6.764133573679146,6.764133573679146,6.7641335736793735,6.764133573679146,6.764133573679146,47.34893501575425,27.056534294716812,54.53418831492105
53,58,400,0,13.346666666666552,0.0,175.37968859828672,22.025950844685,27.860868920046187,49.25152335778537,49.2515233577854,49.251523357785466,98.50304671557059,71.0315571444828,69.65217230011513,48.75652061008077,69.65217230011513,10.447825845017178,38.308694765063365,3.4826086150058018,10.447825845017178,15.574699204358328,13.93043446002298,13.930434460022752,48.75652061008054,27.86086892004596,44.05190168937108
54,58,401,0,13.380033333333218,7.387168551531204,177.90657756548617,14.774337103062408,23.3602780824051,51.7101798607182,52.23516976555698,52.23516976555701,97.16303228651559,74.24012513514415,70.17810123954632,51.7101798607182,66.4845169637806,7.387168551531204,36.93584275765579,7.387168551531204,7.387168551531204,7.387168551530976,10.447033953110958,11.080752827296692,44.323011309186995,22.161505654593384,52.23516976555698
55,58,402,0,13.413399999999884,7.362101738322963,169.96731711975988,7.36210173832319,23.28100985898593,51.53471216826256,51.53471216826165,59.355161783557655,96.83332983501941,73.98820678018504,69.93996651406951,58.89681390658484,73.62101738323099,7.362101738322963,29.448406953292533,2.2737367544323206e-13,2.2737367544323206e-13,14.724203476646153,10.411584125906874,11.043152607484672,51.534712168261876,29.448406953292533,46.56201971797193
56,58,463,1,15.448766666666502,11.128149180439772,169.9140955342393,19.05168546755124,26.138696818121037,38.60438636840932,43.14864724910629,50.65953231384112,106.7574586689442,80.69727356795478,73.35881259979925,97.12293499128356,57.860471909700834,27.897013242177195,25.830567816830808,7.23255898871264,15.498340690098416,21.574323624553124,21.574323624553124,20.664454253464555,26.863790529503945,101.25582584197645,66.76889508263895
57,58,464,0,15.482133333333168,9.345386270319958,161.1774361964623,19.266007352363133,28.422882718132836,37.02943476886061,41.63681609043208,51.229426587378605,107.9584264152694,79.5730967680512,73.13921641750022,98.2155191892146,60.60106503164303,29.25568656700011,25.07630277171438,4.17938379528573,16.71753518114292,21.310759526955355,23.82615347721181,22.986610874071516,33.43507036228584,102.39490298450039,66.77211456770556
58,58,465,0,15.515499999999834,8.713960744790974,152.24147178870683,17.427921489581838,28.74597229528812,34.855842979163675,39.48242798999938,53.882509827424315,108.67305195549952,80.00446652895225,73.97060705229774,99.33195804165689,63.40337747339811,28.531519863029075,24.304628031469292,3.1701688736699225,15.850844368349499,23.629043672266132,24.09699095448423,23.247905073579204,38.042026484038786,103.55884987321679,66.83302805445005
59,58,466,0,15.5488666666665,8.814059788122005,143.09979229228728,17.628119576243954,29.07618313862932,33.186393063502614,35.83477577762355,54.501469201234514,109.92140145525086,80.92349414409817,74.82032249369217,100.47300449152942,66.26942849441298,29.928128997476733,23.514958498017563,1.1368683772161603e-13,17.101787998558166,23.90047531347893,26.442179364365963,24.583820247927406,42.75446999639547,104.74845149116896,66.95546570825836
60,58,467,0,15.582233333333166,6.8450615080739174,133.87302434158596,17.849736578878158,31.517030022600018,29.441722782682586,34.22530754036929,55.186650181048826,111.30331013873227,79.82644874167215,74.67864855863888,101.73612992046446,69.2671522862737,31.38667837971775,22.728284343933638,3.2468977634190423,18.399087326041354,26.333477406712873,26.774604868317294,25.97518210735268,47.62116719681313,103.90072842941049,66.6822831266294
61,58,468,0,15.615599999999832,6.905178322274834,135.59491746605846,20.13188131125677,29.132979257037796,29.700294977570156,34.525891611374455,53.129502817313906,109.20228964801981,80.08220832741075,75.33451446063043,106.99684662524339,72.05910078842919,37.1213549516151,17.4688729184071,8.734436459203607,21.836091148008904,24.89697450718454,24.896974507184428,24.01970026280975,34.937745836814145,102.62962839564159,63.66259852774866
62,58,469,0,15.648966666666498,6.962895244599055,134.7279747272653,18.157009370305904,33.68199368181634,31.5258490581754,35.843697074415175,51.07178054537231,109.69598948219696,76.02002166746306,71.56047626678776,94.6800147529807,68.25768505447445,30.826051314923916,26.422329698506132,4.4037216164177835,17.614886465670907,20.300153610052313,20.30015361005237,19.81674727387974,44.03721616417704,99.08373636939831,66.85829880624776
63,58,470,0,15.682333333333164,11.834455265100804,134.9156537437861,18.121900007595787,33.25577051070671,31.46488899329054,38.941627432830884,50.735609017102085,113.44827064209154,80.20498940831878,73.61970628190181,96.69453959413977,68.12569835041666,31.865246002614185,29.667642830020213,1.098801586296986,18.67962696704967,22.41124292038131,24.56995040744789,23.0748333122379,39.55685710669354,94.49693642154568,67.69901963309081
64,58,471,0,15.71569999999983,8.722365497912142,131.94247341170242,19.50380217793035,34.111160471907226,30.801917333736327,34.88946199164838,51.16674070786084,113.39075147285739,79.29539788227105,74.04195287410107,97.31228092024708,69.81098413843813,32.790007701387594,28.559038965724767,3.1732265517471205,20.09710149439877,21.573792144546196,23.651834259046556,23.270328046146062,40.19420298879771,93.08131218458419,61.05655848538463
65,58,472,0,15.749066666666495,19.52367117628971,130.25697570991116,19.87760339660098,35.09760607724238,30.86963460262719,36.14162856754293,50.00871510334013,124.41612619702212,89.33871590307176,78.69505129421248,99.17732491873346,71.14895048517837,35.57447524258919,37.73050404517039,3.2340432038718063,20.482273624520985,28.358131359061804,26.668603454748318,25.872345630973882,38.80851844646094,97.02129611615231,67.5288046229601
66,58,473,0,15.78243333333316,17.813881977677866,141.7037185687909,20.370953395136713,38.142576362533795,34.30128686947421,40.741906790273354,53.44164593303372,129.68701835216882,91.55604836919309,81.7529845548762,103.84838578592382,77.33390430866666,37.56218209278097,37.56218209278086,2.2095401231047163,24.304941354152447,24.70340957137754,24.703409571377485,24.304941354152334,44.190802462095235,99.42930553971422,70.73979957916225
67,58,474,0,15.815799999999824,13.06026958806035,144.28823387832088,22.19818982743402,37.57586815379816,33.791651110883414,38.014633776718085,50.48844896538595,123.13340253122534,85.5865728189251,78.3616175283621,100.12873350846257,71.83148273433187,35.91574136716599,35.91574136716588,1.088355799004944,20.67876018109564,26.480839495282215,29.04095490513784,27.208894975125702,47.88765515622123,108.83557990050275,70.26430432950842
68,58,475,0,15.849166666666491,8.631516109083918,145.1564658598446,22.006134536054727,37.2507675774355,33.499290992750474,37.68573706831897,50.0516307449492,117.79727013424873,80.56723902115752,75.52576595448443,97.10455622719417,69.05212887267135,33.44712492270014,33.44712492270037,1.0789395136354187,18.341971731803255,28.78969707287315,33.49929099275033,30.21030638179377,49.631217627232616,118.68334649990408,70.28858265758717
69,58,476,0,15.88253333333316,4.765620909636548,139.64163807058975,22.25090806832732,37.2206891649826,31.03147512679772,36.4188238554586,49.20373773358363,112.85569901678768,75.68190125406997,72.46251570080312,102.30002216583966,63.937513853649875,34.100007388613335,27.7062560032482,4.262500923576681,17.050003694306724,28.032223169791976,30.51486275291039,29.837506465036654,44.756259697554924,115.08752493656971,68.8628098920699
70,58,489,1,16.316299999999817,7.016788013684626,135.0800036243066,20.457276682060908,33.942692118898016,34.44664088265503,39.319064847859714,56.17814191710225,117.49715764105973,83.55577496086315,78.7710635354324,102.06954711633489,68.785999143617,29.955193175446198,29.955193175446084,1.1094515990906757,16.641773986359,25.299388972400827,25.97159606564692,23.29848358090254,39.94025756726148,93.19393432361016,68.35518489003515
71,58,490,0,16.349666666666483,4.9616183866247825,136.7103697800703,20.45727668206096,33.942692118898016,34.44664088265503,39.319064847859714,55.870554941201256,114.91262429591615,80.98236739353266,77.66161193634184,99.85064391815376,68.785999143617,28.845741576355636,28.845741576355408,2.2189031981812377,15.532322387268437,27.446316777365716,28.067152054738237,25.517386779083722,42.15916076544272,97.63174071997253,71.03956424395622
72,58,491,0,16.38303333333315,4.934888067983974,138.12398198279092,20.347064754898362,33.7598286043822,34.261062384844294,39.10723655915558,55.56955683537305,114.29354180630733,80.54608142471423,77.2432162695543,99.31270663228406,68.41542012446234,28.690337471548673,28.690337471548787,2.206949036272931,15.44864325391086,27.298451960725824,27.29845196072588,26.483388435275742,41.93203168918666,101.51965566855716,70.6568443246929
73,58,492,0,16.416399999999815,4.934888067983974,142.42945328428902,20.347064754898362,33.7598286043822,34.261062384844294,39.10723655915558,53.378975903375625,112.12083066812697,78.37000016217021,75.03626723328136,97.10575759601113,66.20847108818941,28.690337471548673,28.690337471548787,2.206949036272931,15.44864325391086,26.84869380823816,27.915942538144762,26.4833884352758,46.345929761732634,105.93355374110308,71.24036958601417
74,58,493,0,16.44976666666648,4.908437339407727,143.80967529141972,20.238005607104007,33.578877780190396,34.07742497516225,38.897623922487064,53.09286752891015,111.51986918351115,77.94994127243363,74.634076968655,96.58527607708288,65.85359732528377,28.53655884095633,28.53655884095633,2.1951199108427772,15.365839375899554,26.704786286372197,27.152133759903744,27.438998885534886,46.097518127698606,109.75599554213954,70.85852512396488
75,58,494,0,16.483133333333146,4.902608759376901,145.7815260413186,20.213973755988913,33.539004157903314,34.66667899259905,38.8514344942906,50.8549664917103,109.23029919499488,75.69729532267566,72.35293859014644,94.2780714962513,63.582885427704355,28.502672777936368,28.502672777936482,2.1925132906104636,15.347593034273473,28.838009875928254,29.251775779457468,29.598929423241714,48.23529239343094,114.01069111174581,71.4167243424353
76,58,495,0,16.516499999999812,5.006183326173199,148.8613676415189,21.239437066800352,36.100101353780154,34.75603841163773,39.099541700772946,49.45744289727057,111.15530867736446,75.09274989259706,71.64266384095447,96.26982953628249,64.92616410586493,31.34366543041756,29.10483218538775,4.477666490059619,15.67183271520878,25.526626468779675,27.236581948906764,25.746582317843036,47.01549814562634,105.22516251640184,70.12231590135063
77,58,496,0,16.549866666666478,8.142422670876194,145.79607140760845,18.62243310691872,32.33396002894707,37.856035179131204,42.188557859984904,52.13694395531065,110.28746597959784,77.96866430019296,73.39480611586214,103.88187942552804,63.23244834597358,31.61622417298679,24.841318993061122,4.516603453283778,20.32471553977723,25.248580872382284,27.47342624985043,27.09962071970301,40.64943107955446,112.91508633209571,67.14413744089356
78,58,497,0,16.583233333333144,0.0,142.28217726093607,21.315698597998743,34.37053123642241,32.714948914795904,37.66443664320863,53.97171552230545,108.99065927428373,74.68948330152598,74.14677323606736,101.10923623100098,62.91241365484507,28.08589895305579,25.83902703681133,5.617179790611203,14.604667455589038,27.792270713729607,29.977010301653504,29.209334911178075,40.44369449240037,119.08421156095665,76.02931179597282
79,58,498,0,16.61659999999981,2.2314703064614605,141.8344714927317,18.40117554794047,27.147007935234424,34.64173486702532,38.97095350679696,51.51749251811628,97.21632869492512,70.06958892714283,69.17557950030698,91.49028256492215,60.24969827446091,24.546173371076634,20.083232758153713,4.462940612923035,13.388821838769104,20.573139695550967,23.297233964990752,22.314703064615117,46.86087643569181,109.34204501661418,56.45222959561851
80,58,499,0,16.649966666666476,4.132890850693002,136.3227641324458,19.05168546755124,31.61053664284845,30.0878995534466,34.080691033111435,49.766596062444094,96.15079743143026,64.59088304032379,66.12625361108667,90.92359871524422,57.86047190970089,24.797345104157557,20.664454253464555,8.26578170138589,12.398672552078779,29.58699583713659,32.079859783365826,29.96345866752364,45.461799357622056,117.78738924474811,75.21974888361629
81,58,500,0,16.68333333333314,8.763078963993053,140.9262763870123,20.19789902282547,31.367049142453475,33.512332977416186,37.818549328417376,52.98765095730388,113.09550404311467,81.79525688543687,76.67694093493935,89.82155938092887,61.34155274795148,23.00308228048175,36.147700726471385,5.476924352495644,9.858463834492227,26.651864186110732,29.22851392625197,29.575391503476624,46.00616456096361,116.11079627290815,69.27822210531681
82,58,501,0,16.716699999999808,12.909762763372926,134.44726727708087,19.567117923340348,36.63747469786511,30.387455090452107,36.6374746978652,51.63905105349182,120.73179453456677,84.09442892694551,76.40466928743331,91.26113275998978,63.670557739527794,26.52939905813662,41.385862530692975,5.305879811627278,11.672935585580149,27.91518118744746,28.315706404544645,27.59057502046204,48.81409426697127,116.7293558558008,71.15420244712267
83,58,502,0,16.750066666666473,11.500666450709181,145.75509710128614,19.68944487833228,36.86651970776098,31.095098686747875,35.2215497497489,53.77354126521001,121.4865685822314,84.62015864670929,77.95013532264568,91.83166627051423,64.06860437477735,24.559631676998038,41.64459284360521,7.474670510390638,11.745910802042545,28.49272655418977,30.577427107063606,28.830871968649774,49.11926335399596,115.32348787459927,71.59903427950277
84,58,503,0,16.78343333333314,10.023520220651926,150.7698715265273,18.070158058104955,31.69715407001308,34.794755915891635,39.14309777739468,59.342287319955965,118.68457463991197,87.037406924159,80.68778131399563,91.89441760760621,62.75716324421887,19.051281699137917,39.22322702763677,7.844645405527331,7.844645405527444,18.482458058574665,18.48245805857461,17.930618069776813,49.309199691886306,94.13574486632837,68.57142857142875
85,58,504,0,16.816799999999805,2.095619951033086,143.43902417891215,19.320661304137943,29.636541563304004,28.503512961491793,35.12899168985639,55.127153940537575,104.40310452420977,74.79924916373864,73.34669828615233,88.0160379433828,58.677358628921866,18.860579559296298,29.338679314460933,2.0956199510329725,6.286859853098804,25.494317031776948,27.95905739276211,26.19524938791153,41.91239902065854,104.7809975516463,67.64666395538113
86,58,505,0,16.85016666666647,4.375833367937389,145.03098825372982,18.042023176107985,29.190449397807406,31.326199582420628,33.96560082279186,55.09033444930888,106.46862099727214,77.35453619527189,74.38916725493516,89.70458404271585,61.26166715112299,20.785208497702456,29.536875233577234,1.0939583419843757,7.6577083938904025,28.777550954972032,29.190449397807406,28.44291689159286,50.32208373127969,111.58375088240274,69.18800052023845
87,58,506,0,16.883533333333137,4.913990081489527,141.36585251029092,18.121900007595787,26.73499646943959,31.46488899329054,36.243800015191574,55.334234000842606,104.77290636245888,78.03812329234115,74.71850786819891,90.10173007635751,61.5328888326344,20.87723013964387,27.470039657426014,1.098801586296986,9.889214276673442,28.90495682103401,29.319683275008508,29.667642830020156,41.75446027928763,101.08974593932794,64.63344833852814
88,58,507,0,16.916899999999803,0.0,147.4175892224304,19.856558059726652,32.94598040771242,35.52049089657629,37.61355886374361,52.40290467967979,105.18133986152796,72.23884080129099,71.0736218048877,90.45733684258437,60.30489122838958,23.691207268295784,27.998699498895235,2.1537461152995547,10.768730576498115,26.201452339839896,27.2429729043458,25.844953383595453,49.53616065189141,114.14854411088027,80.47059569506662
89,58,508,0,16.95026666666647,7.0030097525185635,158.53737608796925,18.26161520891054,31.70747521759388,36.05019914282779,40.83421298606802,55.76084675335679,112.50678991855459,80.82334930639439,76.40184146544073,95.22548356562174,62.007291624125855,23.252734359047167,32.110918876779465,3.3218191941496116,9.965457582448835,29.54573051340715,29.54573051340715,28.789099682629853,48.720014847527466,112.9418526010864,75.74913223583972
90,58,509,0,16.983633333333135,8.08541011595901,150.43075466667955,18.492040405247586,33.93502070609966,34.30348993001307,39.73701144097333,54.56211928548415,114.34496643337691,80.51129941818002,75.12339117955446,91.94206084661892,65.03218937931581,24.66738217836121,33.63733933412891,2.242489288941897,11.212446444709599,27.281059642742076,29.495341505165392,29.15236075624506,49.33476435672236,109.88197515815438,76.70493534898868
91,58,510,0,17.0169999999998,11.86133753324742,151.2270410682986,16.035134256519882,31.14939840871712,38.022686407265226,42.76666067170894,55.76525345612699,114.47139036302232,83.37920710271248,75.98953041416416,96.9141837166153,63.875257449587366,25.32984347138813,31.937628724793626,3.303892626702691,14.316868049045524,27.244596551189975,31.53636229427244,29.735033640325128,41.84930660490204,110.1297542234264,71.74511856285783
92,58,511,0,17.050366666666466,12.108183500472947,156.10021968915078,20.360428853498235,34.02496885350526,39.267198227608866,43.65667646368255,56.925782602892816,123.09016862059354,89.09017691494891,82.06781288880018,98.9310621125262,67.45299689490423,26.981198757961693,38.22336490711234,6.74529968949048,13.490599378980846,22.929609827828703,25.138247723847996,23.60854891321651,42.72023136677262,89.93732919320558,64.89369389116817
93,58,512,0,17.083733333333132,12.78750277072993,152.57431376455187,17.574741537199376,36.79108726580586,32.601863079036924,39.298316764166955,51.85556180658725,118.77778334727164,81.99084232822572,74.59376616259146,93.77502031868642,61.80626339186142,26.64063077235403,39.42813354308407,5.328126154470851,13.8531280016241,28.43442769769399,31.031475126797776,29.83750646503654,38.3625083121899,110.82502401299303,72.11693052154628
94,58,513,0,17.117099999999798,6.905178322274942,158.45842168539895,20.13188131125666,37.69493775482287,36.013004101542144,40.793184717772284,54.981872629050415,119.54138133895647,81.84894022874899,77.51812357543145,98.2624101660399,65.5082734440266,27.295113935011045,36.02955039421465,1.091804557400451,12.009850131404846,29.132979257037682,31.26452457785836,29.478723049811947,45.8557914108186,111.36406485484514,73.20791769511978
95,58,514,0,17.150466666666464,13.945453572658366,157.4045775675835,19.966850889955033,40.23692330764346,34.230336603175466,40.657634466984724,54.05549946204566,128.00224860524528,87.7843871974487,79.37891332871914,97.01867184621221,66.14909444059924,28.66460759092638,44.09939629373275,6.61490944405989,13.229818888119894,31.182982165531364,33.72955233591072,31.972062312956268,52.919275552479405,112.4534605490187,71.17648026415593
96,58,515,0,17.18383333333313,16.29895204759162,155.43372903403164,22.83170880817462,36.44556474042434,36.92378378960922,41.2820452700355,55.38567568441399,130.89039443043782,94.48300707857177,83.95624668861853,100.74749602634222,69.40383059592466,31.34366543041756,42.53783165556672,8.955332980119238,15.67183271520878,25.030916630865654,25.030916630865708,24.62716569532813,51.493164635686014,100.74749602634216,66.30122367096651
97,58,516,0,17.217199999999796,13.558953580496805,164.4086872793077,20.55108590991354,34.09834029183907,41.64261803019594,43.79443867212915,56.8305671530651,125.02724773674323,90.92890744490417,82.4758947894992,102.53759892748542,66.87234712662098,28.978017088202364,37.894330038418616,8.916312950216138,15.603547662878213,27.117907160993724,29.73961301810069,27.86347796942539,51.26879946374271,102.53759892748542,66.4997963330107
98,58,517,0,17.25056666666646,2.9663014220919437,151.7894436243063,21.39030375166864,34.14469353777227,34.14469353777224,36.63112036673841,51.889082693488184,109.89336110021532,75.80046513536851,72.363468845856,85.99716587478554,56.63227996632213,20.974918506045242,35.657361460277,2.0974918506045697,6.292475551813482,29.663014220919624,32.085455627502995,30.413631833765635,48.24231256390408,106.97208438083084,67.02134717150047
99,58,518,0,17.283933333333128,3.0885959032302437,158.95020036056545,20.13518184103757,28.72560238747794,36.01890826870364,42.40497078380591,56.1496201943115,103.29494893209689,74.70316875654338,73.1628981018896,91.72661851580176,56.783144795496355,19.655703967671798,26.207605290229026,0.0,6.551901322557342,24.417494565181407,27.014181201527634,26.207605290229083,48.047276365419975,104.83042116091627,74.15846757258576
100,58,519,0,17.317299999999793,2.2216051953541864,153.80505057965897,18.31982575773292,31.41824197508487,33.98402472783101,38.798666748067426,56.64004121305181,104.13144879392958,72.77240760094966,72.20216884901265,86.6426026188152,57.7617350792101,16.66203896515674,29.9916701372822,1.1108025976770932,5.55401298838558,29.220654140801013,31.808545660327063,29.9916701372822,53.31852468850161,108.85865457235747,76.60512219653225
101,58,520,0,17.35066666666646,0.0,166.85937974803272,15.796028170810882,26.838341839887306,37.89307805604969,40.534300076949314,54.63294271720806,97.03422970700596,70.27449103280213,69.43204280614236,88.95980484536983,52.07403210460677,16.273135032689652,24.95214038345739,1.084875668845939,7.5941296819218,28.538623128367075,33.1908132316059,32.546270065379304,43.39502675383898,117.16657223536515,71.37129800237715
102,58,521,0,17.384033333333125,4.790642474824343,160.58302176550012,15.597201877543895,28.583720706874765,35.33403302051045,39.50464987654163,58.201870120012046,98.31911076415354,69.75280731395094,70.70053471539234,92.12493917460222,55.70345159394549,16.068303344407354,22.495624682170273,3.2136606688815164,7.4985415607234245,28.583720706874708,31.19440375508779,29.994166242893698,44.991249364340604,117.83422452565395,75.98871125971368
103,58,522,0,17.41739999999979,2.9675256320554486,157.27885849893553,15.276273170770398,27.9955808217049,36.223266668799454,38.69180047599207,54.718468985781634,95.90664549278124,67.96216810613859,68.19661867756588,88.13101490639292,52.458937444281446,15.737681233284434,24.13111122436942,1.0491787488856517,7.344251242199448,29.675256320553927,32.09869748288814,31.475362466568868,44.0655074531964,115.40966237741924,69.7526352781055
104,58,523,0,17.450766666666457,0.0,162.88307347914485,13.606701590200908,24.529830136703442,35.481936693484926,38.12305439092591,54.17107993580814,91.98371810886042,67.55559480355234,66.69366112426849,83.90492851117654,49.48239373736055,12.90845054018098,23.66549265699848,2.1514084233634776,6.454225270090433,28.703368449247396,33.398840207300246,31.19542213877071,45.179576890633484,122.63028013171942,69.5141335636189
105,58,524,0,17.484133333333123,2.1813675325968234,162.5667720979124,13.796179633895395,24.38843043398765,33.86393065278324,38.6539311590949,54.70841939241485,92.88118484462431,68.49632991552117,67.62239351050232,82.8919662386802,50.171453249727506,11.997521429282756,25.085726624863696,3.272051298895235,5.453418831492172,30.84919549118796,33.863930652783154,32.72051298895275,43.62735065193698,119.97521429282659,65.62255483141624
106,58,525,0,17.51749999999979,3.017171309818082,156.90741307134286,15.531839938942941,24.325212770526033,37.25931713948219,39.33910091975067,51.38057596708262,93.313065402353,69.09915167973082,67.2040622349798,83.20502943378438,51.203095036175,16.000967198804688,24.534816371500597,1.066731146587017,7.467118026108778,30.17171309818213,32.635697593225274,32.001934397609375,46.9361704498271,117.34042612456773,72.91323929348805
107,58,526,0,17.550866666666455,2.122351924650957,156.09029097417874,12.909762763372926,25.819525526745963,37.06528289493012,39.134235846680546,55.54726563088051,92.14527632793218,66.33835244526261,66.85408562650412,84.89407698603702,53.058798116273124,13.795287510230992,22.284695208834705,1.0611759623254784,7.428231736278235,27.915181187447438,28.315706404544645,28.65175098278752,48.81409426697127,114.6070039311499,69.13135852336265
108,58,527,0,17.58423333333312,0.0,147.54414630113928,15.25634352968837,25.494317031776912,30.00471147552136,36.17600928504742,52.55788098749984,93.06062816743608,67.58171275081695,67.05983843305364,81.72917809028411,52.390498775823175,14.669339657230466,25.1474394123951,2.095619951032859,6.286859853098804,31.71248432761607,33.79085637540849,33.529919216526764,50.2948788247902,115.25909730681087,70.91127069194629
109,58,528,0,17.617599999999786,2.9945539283253386,142.86250715523494,17.461099902584742,29.94553928325268,34.469904306922466,36.98001308168209,53.10586211261803,98.52492005119467,68.58116920081304,68.81775515379752,84.69877557390464,55.05420412303795,16.939755114780837,27.52710206151903,1.1368683772161603e-13,6.352408168042757,27.850961462121514,32.391053207156645,30.70330614554041,48.70179595499508,118.57828580346631,71.65060867831954
110,58,529,0,17.650966666666452,3.052234803643616,146.0774194658483,17.797434311818513,30.90152217769817,35.594868623637026,37.69231934661809,51.97768575077475,102.89698750476455,72.0353279592131,70.14331764147482,88.48849302462975,56.11465411317988,20.503431310584915,29.13645502030488,1.0791279637149955,9.71215167343496,26.256316572330423,30.901522177698222,30.215582984019875,49.63988633088991,114.3875641537897,72.35792396603341
111,58,530,0,17.684333333333118,4.925152335778403,146.93141843137533,18.16306436746013,33.693225948745734,34.19347087641315,38.46666943430515,53.273667858362046,109.73257088668828,76.04537281453034,72.68563778746147,92.50899354767819,59.470067280650255,23.127248386919632,31.937628724793626,1.1012975422341924,12.114272964576912,26.522757028410833,29.386283686275085,28.63373609809088,48.45709185830765,110.12975422342646,72.65225746984014
112,58,531,0,17.717699999999784,9.150461887108394,140.58958068986888,21.054251697582963,36.12779806226024,32.31368493783956,36.60184754843322,53.678020125034664,119.6989708399047,83.57120634026595,77.67595476063354,93.21114571276019,64.36007680166779,25.522099421351072,38.837977380316715,5.548282482902323,12.206221462385315,29.190504928127886,29.190504928127886,27.741412414511956,51.04419884270203,108.74633666488694,68.90600522302091
113,58,532,0,17.75106666666645,11.990741759891543,136.6973576028716,20.52846675830175,36.24682640442696,32.420147123573074,38.88633117951438,51.64617812023825,120.09333669728633,83.84654396605785,76.81855719033763,95.7448683821599,66.79874538290221,30.05943542230591,36.7393099605963,3.339937269145139,16.699686345725468,23.246645873605647,24.894422581311574,23.379560884015802,48.98574661412829,95.74486838215984,77.77266235902898
114,58,533,0,17.784433333333116,11.231075316248555,139.99913367140792,20.89565169003461,38.022686407265226,32.07026851304002,38.46666943430493,51.08881195619261,120.9623830786778,82.94167107362348,75.98953041416428,94.7115886321468,63.875257449587366,28.633736098090935,39.64671152043354,4.405190168936997,13.215570506811218,26.79572569844848,29.386283686275085,28.63373609809088,48.45709185830765,107.9271591389579,73.8444433880059
115,58,534,0,17.81779999999978,13.141364055589472,148.33183650952031,20.495609570554766,37.29475141464971,33.53884527465223,37.73023449568253,52.25375657161852,122.89772431486936,85.60308394754371,77.77536993179785,97.21921241474729,64.81280827649823,29.16576372442421,39.96789843717397,7.561494298924799,16.203202069124472,26.282728111179075,28.823690502588835,27.00533678187429,45.36896579354874,108.021347127497,64.23411090301315
116,58,535,0,17.851166666666447,17.721242348242264,150.1238243908441,20.387358659971643,37.097773091721265,36.02407751453951,42.81884632738486,52.68378205770339,127.73547497027796,90.69256150834862,79.51360290299817,98.85474955507868,64.47048884026879,30.086228125458774,42.980325893512486,8.596065178702474,17.19213035740495,28.67145347189567,29.229781754822465,27.937211830783156,38.68229330416125,111.74884732313251,64.6493254912774
117,58,536,0,17.884533333333113,17.740968346742573,155.49787155559355,18.381641626925383,35.02239175287213,36.06417689837887,40.191626158164866,54.17107993580814,124.89291872593276,89.87120821591523,79.60211166444947,98.96478747472099,60.23943585417794,25.81690108036196,43.02816846727001,12.90845054018098,15.059858963544457,28.703368449247506,31.324979477619998,30.11971792708897,40.87676004390647,114.02464643826545,62.723795113987656
118,58,537,0,17.91789999999978,4.166610153782926,147.5621324654326,19.207123774504407,29.828389311146584,34.35874752963538,40.45046769028014,57.20560001192904,110.31685619930477,80.49757104906085,77.08228784498283,91.6654233832229,58.33254215296006,18.749745692022884,33.33288123026273,6.249915230674219,6.249915230674333,27.40160009029548,27.794756478974328,27.082965999588566,49.99932184539432,118.74838938281147,75.11463277166487
119,58,538,0,17.951266666666445,4.882261948656197,151.16101147933156,15.895493273067512,28.718326344709542,33.89569913191437,38.131684802183166,59.59560200685188,108.77697152155353,80.07504971459328,76.41948720809035,87.33655680924619,58.952175846241175,14.192190481502507,33.84291576358282,5.458534800577809,5.458534800577922,28.718326344709542,29.130375036661167,28.384380963004958,48.03510624508533,113.53752385201994,73.88202973242379
120,58,539,0,17.98463333333311,4.262500923576681,150.0527468177016,16.231119948747576,26.362112305799123,32.6018630790369,37.2206891649826,55.780162635546134,101.98874122028907,75.68190125407001,72.46251570080312,85.25001847153317,55.41251200649651,14.918753232518384,29.83750646503654,4.262500923576567,4.262500923576681,25.927780903293623,26.362112305799066,25.575005541459916,49.01876062113155,119.35002586014639,70.84604806631498
121,58,540,0,18.017999999999777,3.1557755714306444,154.48802697708646,18.40117554794052,31.949792555930465,34.13493190995051,39.54175457395014,56.89155318325068,109.8871686863492,77.94190701359392,74.75425526646075,87.027341951999,58.01822796799934,16.736027298461295,34.58778975015355,5.578675766153879,5.578675766153765,27.147007935234424,27.147007935234424,26.77764367753815,51.32381704861484,107.11057471015272,71.44190802207707
122,58,541,0,18.051366666666443,11.361175016003694,159.50838245870082,16.220883714480546,31.901676491740247,36.74692712764777,43.775410611476374,56.805875080018666,116.24670093910959,84.34506384433648,76.86978584946655,95.80871859498745,62.38707257348017,23.395152215055077,34.5357008888908,5.570274336917805,12.254603541219353,24.911024141341866,24.911024141341866,24.50920708243865,44.56219469534301,95.80871859498745,69.1791295299257
123,58,542,0,18.08473333333311,11.44097103641945,153.1355258783912,18.502510891374328,34.322913109258664,36.52575057823579,41.37287210754305,55.006428565553385,119.25742785667465,84.93746739652313,77.40968625522237,91.99411989751059,62.82525261293404,23.55946972985032,39.26578288308383,7.853156576616811,12.340674620397749,20.68643605377146,21.28616708917681,20.19383119701456,47.118939459700584,98.72539696318216,66.44709654207837
124,58,543,0,18.11809999999977,13.793103448275865,161.44413669958107,18.69887970771214,34.68718528075487,41.37931034482759,44.55072579736012,57.09601006883724,124.13793103448278,89.47576859930489,81.63260059300501,92.97046178647793,63.49202268344834,21.541936267598544,44.21765865454438,10.204075074125626,10.204075074125626,17.269315671053825,16.5081750795784,15.873005670862085,47.619017012586255,95.23803402517251,67.15230556877006
125,58,544,0,18.15146666666644,14.364254499892283,159.90518823453286,18.728696496928148,36.621806996581746,37.457392993856296,41.445292809752836,55.67885959005055,125.16286378999551,88.69272887192538,79.49158194246922,95.38989833096309,63.59326555397536,24.983068610490363,43.15257305448324,9.084752221996496,13.627128332994744,14.364254499892283,14.364254499892228,13.627128332994687,45.423761109982365,93.11871027546391,65.03692835937404
126,58,545,0,18.184833333333103,22.549499093767427,168.9835086570368,16.334812244427404,32.125740184540284,41.37287210754308,43.565919762065825,54.59301322149653,125.42994245189016,93.32527186451156,80.77532478805801,94.23787891940117,62.82525261293404,24.681349240795612,44.87518043781006,15.70631315323351,15.706313153233623,18.502510891374275,14.190778059451128,14.584433642288275,47.118939459700584,96.48163794129164,69.1208895078107
127,58,546,0,18.21819999999977,22.577108729117615,172.52550027832348,16.117199796162193,33.8656630936763,40.39929362513294,45.15421745823525,54.768061053535554,127.27332400955716,93.42941177942595,79.69923551788361,88.55470613098191,61.98829429168734,22.13867653274542,48.705088372039995,17.710941226196383,13.28320591964723,22.577108729117548,22.57710872911756,19.92480887947096,48.70508837204005,95.19630909080553,56.44277182279389
128,58,547,0,18.25156666666644,15.811388300841932,174.25555945220222,15.81138830084182,29.832867780352537,40.80441152620635,43.416586692185,54.81788029466303,116.21101496846151,86.40023148117139,77.14434522374268,87.20665112249173,60.37383539249424,20.124611797498005,40.24922359499624,13.416407864998746,8.944271909999088,27.20294101747082,25.000000000000046,24.59674775249772,58.13776741499453,102.85912696499031,64.03124237432867
129,58,548,0,18.284933333333104,7.989681536104412,166.12154079093915,17.86547103330433,31.338109276913983,38.253037378058934,42.62443691294741,52.15700861584659,108.64882262814767,77.39942033126614,72.01801613263058,79.77380248537543,53.18253499025036,15.511572705489698,39.88690124268771,8.863755831708431,4.431877915854216,24.77495071957521,24.77495071957521,23.267359058234547,57.61441290610452,90.85349727501097,64.87064315795688
130,58,549,0,18.31829999999977,7.000864222519517,165.6263031430915,18.2560203511785,31.30881660559956,38.21728111590585,40.39929362513318,51.35027723960069,107.73144966702125,76.4345622318117,71.95069873142279,77.48536786460909,53.132823678589034,14.39013974628449,40.95655158557918,9.962404439735565,3.320801479911779,24.751792829549082,24.751792829549082,23.245610359382795,55.34669133186367,92.98244143753095,76.85023118631152
131,58,550,0,18.35166666666644,13.540254609499014,168.73640018377927,15.74022626344371,31.871529043647385,40.620763828497005,45.01814781511583,54.16101843799598,115.28036837337496,83.43804714496707,75.68414095238325,82.36215338935824,57.87610778711655,16.69503109243749,43.40708084033747,12.243022801120787,5.565010364145905,24.587019414551737,24.887482939441835,23.373043529412428,57.87610778711661,97.94418240896658,70.28676385436043
132,58,551,0,18.3850333333331,26.418426811076895,166.00099709631985,15.972058270861076,33.560689893683694,42.20110407231345,44.36950720121766,50.88784842706137,126.60331221694047,93.08060634740231,78.98151353424453,81.1754444657513,59.23613515068337,19.74537838356116,54.84827328766971,21.93930931506793,8.775723726027195,24.52889350394309,24.52889350394309,23.036274780821316,54.84827328766977,94.33903005479198,69.2740422772165
133,58,552,0,18.418399999999767,22.74317695987435,169.38881520944716,17.980060105366803,38.498392233162036,38.498392233162036,42.89782991019533,52.49154349643832,131.65454366831025,93.16057845958474,80.28547139041859,89.20607932268729,62.44425552588109,24.531671813738967,53.523647593612395,17.841215864537503,11.150759915335925,24.632833776173133,24.933857171470894,23.416595822205466,55.75379957667957,95.89653527188887,64.36606531156697
134,58,553,0,18.45176666666644,13.951177828860253,160.6658488696502,17.784331996740324,31.195781991519357,38.07930478557858,40.253439547620175,54.07768787825088,116.80727260387046,85.66068630375622,77.2056214671718,88.23499596248212,63.97037207279959,23.161686440151584,38.6028107335859,7.720562146717157,9.926437045779267,24.662431120816205,25.15084350753599,23.161686440151584,41.911623082179005,90.44087086154417,67.9538371449775
135,58,554,0,18.4851333333331,5.0274112769501045,150.4364096811864,16.36806524805597,27.352074487488395,38.8121360298201,38.81213602982032,56.61141911236934,104.97542935542526,77.62427205964053,74.19478021632256,85.43641358243212,60.704820176991234,16.862450049164295,30.352410088495617,5.620816683054727,7.869143356276709,24.833579790307414,25.137056384750643,23.6074300688299,49.46318681088172,80.93976023598827,65.81877934829488
136,58,555,0,18.518499999999765,3.124904636933698,149.6858677945048,17.814697364050847,29.063293131180572,33.80101169819913,35.97035364248877,55.943648355041226,105.34683406280057,76.28864448919101,74.02298218779333,86.1760091141474,64.07959652077625,19.886771334033938,28.725336371382582,1.1368683772161603e-13,8.838565037348417,22.206619823634938,22.53400779879937,22.096412593371156,50.821748964753624,81.7567265954732,67.20361528848377
137,58,556,0,18.55186666666643,9.218824264778648,152.18863635046273,16.277548962258297,29.408584883752248,36.39770598669075,38.59750281911074,58.81716976750457,113.59130208235241,84.19556021886581,78.2562656805369,91.67162551148601,64.84090584958767,20.123039746423842,33.53839957737284,4.4717866103163715,8.943573220632857,22.801727186626202,22.801727186626245,22.35893305158197,46.95375940832213,87.19983890116964,66.21415974539688
138,58,557,0,18.585233333333097,14.2196664229807,158.98070369577923,18.126589141889518,34.023356359423445,38.81213602982031,41.02811173123278,54.37976742566861,120.51114860963682,86.49485411104611,78.6914335627664,89.93306692887586,67.44980019665695,24.73159340544089,40.469880117994194,6.744980019665718,13.489960039331322,25.1370563847506,25.137056384750643,24.731593405440833,40.46988011799414,80.93976023598827,68.38018621872084
139,58,558,0,18.618599999999763,20.32481824705494,157.19518903554075,15.871016626723769,36.19148625826063,38.7460894264676,43.173832918406646,54.61105893668792,126.96813301379036,90.78443480032857,79.67977471567394,94.26902924107901,67.33502088648504,26.93400835459397,44.8900139243234,11.222503481080821,15.71150487351315,22.889505696557666,22.889505696557627,22.445006962161642,35.912011139458684,83.04652575999819,61.63188026490345
140,58,559,0,18.65196666666643,13.627900193970628,164.77319882895938,20.65558717310353,40.57560500375201,41.31117434620721,47.89455939012588,51.72395042249115,126.43950897183015,85.8695091042273,78.4144546845539,96.33775861245203,62.731563747643236,28.005162387340647,45.92846631523878,10.081858459442742,14.562684441417105,29.468032069378417,29.890837490656477,29.125368882834323,51.529498792706875,114.26106254035005,78.79758948037787
141,58,560,0,18.68533333333309,13.676685402288198,162.29265190609496,18.541055397476708,41.030056206864444,41.45906024334735,45.859219655657135,52.152019808290845,125.30855468741001,84.27876390023276,76.44672981422468,92.18576242303573,62.956130435243836,25.856982143046594,46.092881211517806,7.869516304405465,14.614815993895945,27.3533708045763,27.353370804576358,26.981198757961693,51.71396428609319,110.1732282616768,82.91812048669448
142,58,561,0,18.71869999999976,15.455885927574872,153.89282110672738,18.024505467181005,39.88696741179152,38.1732222875914,44.58159137567456,50.69907543057144,123.97508994524355,84.08911065211525,75.40983606557381,91.80327868852464,61.202185792349724,26.229508196721213,45.90163934426232,8.743169398907185,15.300546448087402,24.43790139344035,28.749609700471947,28.415300546448123,52.459016393442596,111.47540983606552,78.99152349548697
143,58,562,0,18.752066666666423,18.16306436745996,162.61151849626324,20.770258734510065,38.8902357432014,41.54051746902036,43.742451484292495,50.37527684340765,128.15533793934353,89.26521799411498,78.84978038506131,92.36688559392894,63.07982430804907,28.16063585180757,48.43629366510913,12.39067977479533,14.643530642939936,20.770258734510172,20.770258734510065,20.27565781330145,45.05701736289217,90.11403472578439,66.29662036280972
144,58,563,0,18.78543333333309,22.974661075767578,153.3428722796887,18.16306436745996,38.562595231535965,34.46199161365159,38.890235743201515,52.254486164785504,131.90244634916567,93.35070266232361,81.10263125320591,94.61973646207355,67.58552604433828,29.287061285879872,49.562719099181436,11.264254340723028,15.769956077012239,22.974661075767635,22.974661075767635,21.40208324737381,42.80416649474756,85.60833298949512,66.71634416622074
145,58,564,0,18.81879999999976,20.40043226983664,155.56094297280538,15.930061258670511,38.8902357432014,34.46199161365159,41.54051746902036,52.593333071639975,127.77855547273747,88.89488040429308,77.723354950989,92.36688559392894,65.33267517619367,27.034210417735267,47.30986823103683,11.264254340723028,15.769956077012239,16.401001884253798,18.57748417624936,16.8963815110846,47.30986823103677,85.60833298949512,64.07766896967165
146,58,565,0,18.852166666666424,20.629428586814594,155.06415703103096,16.108877340075857,36.7338921381819,37.08542064660117,41.572140769867666,53.18369701156513,126.61618578743092,89.89273181947473,78.59580519084284,93.40371051665386,66.06603914592597,27.337671370728003,45.56278561787997,11.390696404469963,15.94697496625804,14.408217909446332,13.857380256622562,12.529766044916983,43.284646336985986,86.56929267397197,65.23598116212264
147,58,566,0,18.88553333333309,16.245404659971594,151.85760770813158,18.522611164090613,37.045222328181225,35.14418369531341,40.12318971186094,53.63444397932972,125.41620742530476,88.38455695403064,79.26192700747947,94.19533354512055,66.62596762947555,27.569365915645108,43.65149603310465,9.189788638548293,16.082130117459656,16.72566778697336,16.72566778697336,17.230853697278178,43.65149603310465,87.30299206620924,61.303536417918515
148,58,567,0,18.91889999999976,13.697692318338508,148.84613671101135,15.92324388246207,34.07723002960881,36.65806033362834,41.522739926869995,49.99999999999988,113.69240734914442,79.61621941231013,72.0603758577671,90.0754698222089,63.0528288755462,27.022640946662705,36.030187928883606,4.503773491110451,15.763207218886578,20.761369963434998,18.56953381770519,18.015093964441803,40.53396141999406,83.31980958554334,60.0878329393131
149,58,568,0,18.95226666666642,4.986771434294338,151.79784669253746,20.19488512325422,35.96012021073349,36.30424403438673,41.12197070881552,52.49154349643832,113.29962257757116,77.41551091630205,73.59501544121701,86.97592733962017,60.21410354281397,22.30151983067185,37.91258371214212,4.460303966134347,8.920607932268695,20.194885123254277,20.19488512325422,18.95629185607106,46.83319164441082,84.74577535655294,61.237878083374056
150,58,569,0,18.985633333333087,7.14970005403157,145.43973203685465,18.228230045921293,34.21413492628447,36.80533368765213,41.68955707763118,55.427470381061525,114.86344163241051,80.69981452207777,75.74127813852567,94.95921438262917,65.56707659752976,26.000737271434105,32.78353829876494,1.130466837888548,12.435135216772778,23.057089863450845,20.84477853881568,20.348403081991933,47.479607191314585,90.43734703107543,64.30756766342488
151,58,570,0,19.01899999999976,9.136550383454498,139.93790492733922,20.429947737256164,33.53324129195262,33.89734796220228,38.253037378058934,53.91612185082804,116.94196646519318,83.44415251973793,77.55786352744826,93.06943623293796,66.4781687378129,26.59126749512518,35.4550233268335,4.431877915854216,13.295633747562533,24.47584578235445,24.47584578235453,24.375328537198072,46.53471811646898,86.42161935915675,59.12862632654696
152,58,571,0,19.05236666666642,8.122769321068938,141.8580675894261,18.16306436745996,34.09181985181908,34.46199161365137,38.890235743201515,57.03762827167738,116.67070722960409,82.62159712123936,77.723354950989,92.36688559392894,67.58552604433828,23.65493411551836,34.9191884562415,3.3792763022169083,12.39067977479533,22.640871017787504,22.640871017787504,22.528508681446056,45.05701736289217,81.10263125320591,61.49086184470363
153,58,572,0,19.085733333333085,5.0750960708918536,145.55885155474715,20.925157160444805,36.94725709474924,33.04663137840834,39.63776744287907,54.895557334520284,117.54080274134247,80.59661625948735,77.16816668662432,93.05573041622335,65.8199068797677,24.96617157508433,36.314431381940835,2.2696519613713235,11.348259806856504,27.611507814894416,29.852610680740998,29.50547549782698,54.47164707291125,111.21294610719383,77.06796993367205
154,58,573,0,19.11909999999975,0.0,148.76600419553418,22.952465615527082,36.291034630882,37.11907351948718,41.500385825693044,54.43655194632306,113.6312001267547,77.34595829525234,76.52293042295685,94.52832581659368,67.52023272613837,27.008093090455304,31.509441938864597,2.2506744242045897,11.253372121023062,29.60300015086295,30.027742085458883,29.258767514660008,58.5175350293199,110.28304678602592,84.75216307460288
155,58,574,0,19.152466666666417,5.101443274928412,157.9471428514558,20.659270683931116,36.78703061325113,34.8992415276642,39.84354568466617,55.180545919876565,115.52263070192818,78.76734145174255,76.42806543886468,93.53882635801358,63.88017409815552,23.955065286808463,35.36223923290754,1.140717394609851,7.985021762269525,23.26616101844289,20.659270683931084,20.532913102978682,47.9101305736167,93.53882635801358,74.27813527082078
156,58,575,0,19.185833333333083,9.302473555619017,151.34923854497782,20.800963229258116,36.37982933842324,37.209894222475896,41.60192645851628,54.89525878904216,121.28941595625066,84.95952953880642,78.96634333686029,92.50343076603633,65.42925590768425,24.817993620156017,40.611262287528234,6.768543714588077,11.280906190979977,22.674340822576443,23.008624319526817,22.561812381960124,47.3798060021162,90.24724952784038,64.60719850962364
157,58,576,0,19.21919999999975,14.444810863565014,165.73807540936502,22.9531635343043,41.363643447478765,39.88703770326605,44.87200923217282,53.3187691347686,131.79653141720672,90.49648067578923,82.22130485857645,100.49270593825997,66.23382891385324,30.832989321966124,46.820465266689325,7.9937379723616,14.845513377242924,23.291557661496814,23.844878452391974,21.697288782124303,43.394577564248664,93.64093053337865,72.58427627472193
158,58,577,0,19.25256666666641,11.693145988398353,161.4559882893113,21.142393944222288,39.587021768789334,40.04927121555771,45.05451823962217,53.19071591598375,125.54171852242781,85.9573187164437,79.11590366036842,98.60822775060421,66.5032233666866,29.811789785066367,41.27786277932273,4.5864291977025005,16.05250219195875,21.142393944222288,23.386291976796862,21.78553868908699,43.57107737817398,89.43536935519916,65.66767257209098
159,58,578,0,19.28593333333308,9.281825619803321,162.91093311132101,22.95755396761274,38.53388122852264,41.50958608235876,43.70988052074103,52.55417167404137,123.24017766583282,84.77095185542392,78.79106823620373,94.54928188344445,63.03285458896289,27.01408053812702,42.77229418536763,6.753520134531641,11.255866890886296,27.38670614796283,30.034398961745282,27.014080538126905,49.525814319899496,103.55397539615342,67.15895774181134
160,58,579,0,19.319299999999743,9.159630335555203,156.40943438919197,20.481556079070533,40.53924002115605,38.34966884544391,43.13443970839803,49.675070053540736,119.8189050964291,79.29361176117546,73.31071006167565,91.08300340996061,59.981490050461844,26.6584400224275,42.20919670217688,4.443073337071269,11.107683342678115,27.478891006665446,29.21975281122632,27.769208356695344,51.09534337631936,99.96915008410315,65.78899964113779
161,58,580,0,19.35266666666641,9.33325708154452,162.54185886936247,20.86979728581476,36.84950893902431,39.53290123712368,44.47361377106088,53.279930563023846,120.3145064585792,83.47918914325908,76.96400955650392,99.60048295547551,63.38212551712081,29.42741541866326,36.2183574383547,2.2636473398971475,15.84553137928026,23.633172056606547,23.084763916056133,22.636473398971702,54.32753615753205,99.60048295547551,64.38475220930532
162,58,581,0,19.38603333333308,9.175777155032224,154.96887811804928,20.51766146504164,38.41727257585322,38.86586310378557,41.5748901545614,49.76263847707781,117.84397997109356,79.43339247151955,73.43994396716505,91.24356674708383,57.86177403473607,25.592707746133215,41.17087767856219,5.563632118724627,12.239990661194156,29.271262103252678,27.07380238731344,26.705434169878174,48.95996264477668,109.04718952700256,77.73172620757117
163,58,582,0,19.419399999999744,10.05593457579958,156.5790065932706,20.73084021016149,36.25718773575702,41.46168042032271,45.862117918926074,49.92647461769774,116.44928547590833,80.25870635812062,74.20298585296939,92.19158848399229,58.462958550824396,25.858616282095454,39.350068255362544,5.621438322194649,12.36716430882825,27.35509951410253,27.81334076436411,28.107191610973246,49.46865723531289,103.43446512838153,67.081450480576
164,58,583,0,19.45276666666641,9.20962068165016,158.73144563258697,20.59333789115771,36.36136845566581,39.580575682703575,43.88447779753059,50.39369157989228,116.53633158751242,80.19434437508427,73.71081657626155,93.81376655160557,55.84152770928904,25.6871027462729,39.08906939650228,5.584152770928881,12.28513609604363,24.973090385081687,24.97309038508163,24.570272192087145,46.906883275802784,102.74841098509182,68.8098147632448
165,58,584,0,19.48613333333308,9.965028064633664,154.02336276092365,18.374603852012317,34.0856403291557,39.484655424155875,41.62710819333903,52.018973682335705,114.0767234641108,79.99999999999996,73.53218449570647,95.81466464592063,57.93444839055667,25.62485217274616,34.53784423283196,3.3423720225321176,16.711860112660588,29.30802679208047,29.728536467971985,28.96722419527839,37.88021625536402,102.49940869098492,67.03287060006022
166,58,585,0,19.51949999999974,11.564625207099418,154.02440429826103,16.511359117491345,30.259022176585724,37.40497256183594,42.36991589970815,55.18305525143695,113.42315782534084,83.1775321140114,75.97832159792131,95.25640319739398,58.968249598386706,22.680095999379432,34.02014399906932,6.804028799813864,13.608057599627728,25.357118195416792,25.357118195416792,23.814100799348523,36.28815359900722,92.98839359745597,70.41795448446322
167,58,586,0,19.552866666666407,12.115650656307608,150.60355217337397,18.55248972616732,30.016340588242954,39.29141443546084,42.03010325049282,50.307501124667404,110.79077870757483,80.77448580916428,73.11914499038721,92.24261368018085,56.24549614645173,24.7480183044388,33.74729768787108,6.749459537574239,13.498919075148478,27.370239716613565,30.600858283406325,28.12274807322592,40.496757225445265,110.24117244704541,73.28337047710536
168,58,587,0,19.58623333333308,8.068058751011016,152.5071604839372,18.452356315374306,32.03865725362892,36.904712630748584,41.26072306622452,52.23909289567708,110.19280729133114,78.15869352301131,72.72449880056467,93.9824292191912,55.941922154280405,23.495607304797772,32.44631484948275,3.3565153292568084,12.307222873941669,25.513441949247824,27.678534473061486,26.852122634054638,35.8028301787395,109.6461674223898,79.96368957531668
169,58,588,0,19.61959999999974,9.500142503206327,146.83791009529943,19.58504549956974,32.495487051287085,35.03479446357126,39.685132572443564,50.00000000000001,111.29772736010146,78.82828754303561,72.22607907255485,93.46904350565922,57.356003969381845,26.553705541380396,32.92659487131186,3.186444664965734,13.807926881517801,28.34164951926626,28.341649519266255,27.615853763035716,38.23733597958784,106.21482216552187,65.16432990292121
170,58,589,0,19.652966666666405,14.074999646750452,155.98821163554803,20.5176614650418,36.22774764936649,39.435124929303896,45.39050998372529,51.95371983927965,122.64244299233788,86.42095629887586,77.89084966214466,100.14537813704317,62.31267972971568,30.04361344111294,38.94542483107239,5.563632118724627,16.690896356173766,29.27126210325262,31.863635655118426,30.04361344111294,44.5090569497969,111.27264237449236,71.83767307067724
171,58,590,0,19.68633333333307,15.51573756339886,150.95814167970437,21.734575386024652,36.79108726580597,39.81504435856706,41.872427836429104,50.1636781556498,124.14419601919364,87.38126893332141,77.79064185527398,95.90627078047476,61.806263391861535,29.837506465036654,42.62500923576658,10.656252308941589,14.91875323251827,28.032223169791976,28.43442769769399,27.706256003248313,44.75625969755487,106.56252308941635,62.681956568099395
172,58,591,0,19.719699999999737,23.030249143454768,163.22382491843933,18.62243310691872,36.76248865986587,41.64102633351284,46.55608276729674,55.36294735489487,133.7555338049491,97.00188008684081,83.55716388575081,106.14018115216993,65.49075007261547,31.61622417298679,45.16603453283824,11.29150863320956,20.32471553977723,25.748601311760638,25.24858087238234,24.84131899306101,31.61622417298679,101.62357769888615,66.41864636981906
173,58,592,0,19.753066666666403,20.88615438554116,171.9499867403837,20.297693581733768,38.00540467631845,43.25445870099287,48.08353833265932,51.81936795137842,130.8606423831545,92.91143952858634,80.35818029460677,99.07172913033719,59.443037478202314,28.620721748764026,48.435067574831464,15.411157864719144,15.411157864719144,29.372927295757307,29.372927295757258,28.62072174876414,39.62869165213482,110.07969903370787,71.7125096140197
174,58,593,0,19.78643333333307,19.142096986053268,173.90281331928313,20.65558717310348,34.27172867865231,44.63991260030906,48.93135831527657,52.73305893917209,126.61802589824711,92.37459406846453,80.65486767554125,103.05899758541386,58.250737765668646,29.125368882834323,42.567846828757865,11.202064954936304,17.92330392789802,25.544638343965246,27.712378220539303,28.005162387340704,40.32743383777057,116.50147553133729,66.612267092804
175,58,594,0,19.81979999999973,21.474844240369237,185.61908187156817,18.666514163088983,30.2008223685613,46.66628540772238,48.86543015477686,53.27993056302374,123.52962257743404,93.33257081544475,80.35948056634948,95.0731882756811,54.32753615753211,22.636473398971816,45.272946797943405,18.109178719177294,13.581884039383112,13.199218745834953,14.316562826912817,13.581884039382999,40.74565211814911,99.60048295547551,57.2662513076511
176,58,595,0,19.8531666666664,18.44081782230294,180.25285595453107,15.812870826978688,32.01862307379746,43.42065756966334,47.80615564806583,50.994976139060924,117.16472984695538,85.15491547720907,73.79716206577109,89.45110553426798,53.670663320560834,22.362776383567052,42.48927512877731,13.417665830140209,13.417665830140209,17.030983095441737,16.280346950177478,14.535804649318493,40.25299749042057,96.15993844933809,62.37571251523662
177,58,596,0,19.886533333333063,16.511359117491455,178.84230035806354,17.27264651504849,28.05372942137715,44.559318582407975,46.7562157022952,51.16862887174186,112.7864550369444,84.73983179941614,73.71031199798335,90.72038399751807,52.164220798572956,21.54609119941051,37.422158398976194,12.474052799658693,12.474052799658807,15.21427091725016,14.34415218186238,13.608057599627728,43.09218239882108,104.3284415971458,66.04543646996582
178,58,597,0,19.91989999999973,14.074999646750452,177.66028571068298,18.351554310064447,29.691244281762962,41.5748901545614,43.7232110587805,50.74813292849656,112.81970469448028,83.14978030912252,73.43994396716505,86.79266105210411,48.95996264477674,18.916349203663685,41.17087767856219,14.465443508683961,10.01453781370435,20.51766146504164,20.517661465041694,20.0290756274087,42.283604102307095,97.9199252895533,76.12219939274469
179,58,598,0,19.9532666666664,17.104382453549082,174.90764992567364,16.350511250688474,27.78043983321013,44.12523733632925,48.482651178762566,51.85098446668035,112.94520985305918,85.22649890741218,72.99225200292847,87.59070240351423,49.41013981736694,19.090281293073645,39.303520309269175,14.598450400585648,10.106619508097765,22.903933372554754,22.903933372554743,21.33619673931753,42.672393478635115,96.57436418849,60.47312410456365
180,58,599,0,19.986633333333064,18.3515543100645,178.14746569057743,16.201541283138347,28.149999293500976,45.878885775161,45.878885775161,49.262498763626766,111.91616287166615,83.77285606543303,71.21449111967524,86.79266105210411,46.73450979728682,20.029075627408588,40.05815125481729,17.803622779918896,11.12726423744914,23.23440984892171,23.234409848921832,23.36725489864341,40.05815125481729,106.8217366795127,71.83767307067724
181,58,600,0,20.01999999999973,27.828734589250956,181.80437668679474,14.229110075920993,28.458220151841807,44.20194661757894,48.56693558264347,51.30378598295395,121.76078216484359,93.33363462387906,76.49387475917433,89.99279383432281,51.745856454735645,21.373288535651795,46.12130684009037,21.373288535651568,14.623828998077556,25.15375056233372,25.651892991477006,24.748018304438745,38.24693737958722,103.49171290947123,68.31454874614275
182,58,601,0,20.053366666666395,32.1703100488891,187.71804704901555,18.52818047581983,32.714948914796075,43.62636123743353,50.69174099077775,47.61036231951639,130.8597956591841,98.14484674438803,78.64051706855639,89.87487664977868,53.92492598986723,26.962462994933617,53.92492598986723,24.715591078689158,15.72810341371121,25.12079170728923,26.298961517465052,24.715591078689158,40.443694492400425,112.34359581222333,72.5290811409081
183,58,602,0,20.08673333333306,29.02788246541901,189.142099062444,16.066831504109004,34.2610623848444,45.49741993454292,49.791039764113,50.95137503503155,130.07900655065552,95.81819415857969,78.34669078769093,90.48491048719222,52.9667768705516,23.17296488086629,54.07025138868801,25.37991391713922,14.345168735774337,26.848693808238064,27.29845196072577,27.586862953412265,44.13898072545959,114.76134988619503,86.71933770043714
184,58,603,0,20.120099999999727,36.56085462341459,190.74421184027426,18.520293222140072,29.964249400219206,46.30073305535021,50.670162043984924,47.590095083568116,132.375712008988,102.42950394631686,80.85295606478235,94.32844874224611,53.901970709854936,29.196900801171523,53.90197070985482,26.95098535492741,17.96732356995176,25.11009804759123,25.607375986579154,24.705069908683413,38.18056258614723,101.06619508097793,71.90437814534737
185,58,604,0,20.1534666666664,39.34185312860862,190.85635267499484,16.3999614756074,30.054872797228047,48.629281334156325,53.02244807028113,47.03792309283069,132.7760669968099,102.73929010106288,79.97113247443053,94.61373419510085,56.317698925655236,30.411557419853807,52.93863699011604,28.158849462827675,21.40072559174905,25.684822525265744,22.973203662604792,22.527079570262117,38.29603526944561,110.38268989428445,75.52453302712793
186,58,605,0,20.18683333333306,45.55792631335957,202.82085655435196,16.26129832435702,29.800756140997446,48.218116380942114,52.57413849666618,48.7838949730713,140.3123256277434,110.51544817980198,84.87912211811931,96.04742765997719,55.84152770928904,29.037594408830273,60.30884992603217,33.5049166255734,20.102949975344018,24.97309038508163,24.973090385081687,24.570272192087202,31.271255517201894,98.2810887683487,71.51204790612525
187,58,606,0,20.220199999999725,45.11886593997386,193.83903266424304,14.109983854439657,28.21996770887942,45.99292034061699,47.69299777699415,51.50627302828497,138.53676233229154,110.38300881748097,84.77740478363955,98.16331080210887,58.0055927467007,29.002796373350293,55.77460841028915,31.23378070976196,22.309843364115636,20.568659273070544,20.568659273070487,20.078859027704084,35.69574938258501,100.39429513852042,70.9017913765716
188,58,607,0,20.25356666666639,47.208983990129404,192.90966743083314,16.201541283138347,26.048257745325273,45.8788857751612,50.208504773473784,49.262498763626766,138.19327513088692,112.26962972211005,85.67993462835909,100.14537813704317,62.312679729715796,34.49451913609266,52.298141916011446,27.81816059362302,25.592707746133215,14.928791543123284,14.928791543123335,13.352717084939059,26.705434169878174,95.69447244206344,73.40621724025786
189,58,608,0,20.286933333333057,49.897192950202296,207.91029292496665,16.245349045706234,28.226114797809373,50.34426483590054,54.705167003677936,46.594467929981626,140.72423863968686,112.57319845032602,84.79587164553755,98.18469348430665,53.555287355076416,31.24058429046113,60.24969827446091,35.70352490338428,22.31470306461506,14.969157885060747,12.016835362522114,11.157351532307587,31.240584290461243,98.18469348430665,62.83877437375141
190,58,609,0,20.32029999999972,39.889349718872054,192.52260765224338,18.025582006957833,27.64998060586759,49.31666849301364,53.58855859290401,49.942478485099016,134.8379590391733,107.19940628185549,83.06507017532272,98.36653047077698,56.83399538311562,31.695882040583683,51.36918813473915,27.32403624188248,20.766267543830622,9.274085431690652,7.881457097819516,6.557768698051746,28.41699769155781,93.99468467207578,69.46971650384359
191,58,610,0,20.35366666666639,40.61893985387828,192.62625585855548,17.413343958321665,30.74649768096354,49.703000188649,51.76842571012228,44.74565735863916,133.16972952742034,102.43271543388694,79.1879298919539,95.02551587034463,52.79195326130264,31.675171956781583,54.90363139175463,27.451815695877258,21.116781304521055,14.16556753887178,14.16556753887178,12.670068782712633,27.45181569587737,95.02551587034469,74.26985431142933
192,58,611,0,20.38703333333305,44.764475698866654,199.2729535492192,16.1142383458164,30.106322701815216,49.93795335687333,54.263660162965145,49.74134647793623,140.16643722817926,110.07378651946838,84.11151293782757,99.605739005322,57.549982536408265,32.095182568381574,56.443252103015766,29.881721701596575,21.02787823445692,13.999155701381829,13.9991557013819,13.280765200709652,42.055756468913785,97.39227813853711,83.35083667523588
193,58,612,0,20.42039999999972,47.12590928928341,188.67373730509942,14.0502315563101,27.478891006665446,47.95638569634016,54.05232002820813,49.92282755085522,137.95009334597822,110.47539022126335,83.30762507008592,99.96915008410315,59.981490050461844,33.323050028034345,53.316880044855,31.101513359498767,26.6584400224275,16.918719213924202,18.319260671110353,16.66152501401723,33.3230500280344,97.74761341556751,64.11741234888609
194,58,613,0,20.453766666666382,43.87921410134665,185.94867436330307,15.79556341087927,29.510940517295715,46.38262103874577,48.950381143071915,46.83711593357266,135.79193355045365,106.38108567297482,82.44812492421454,97.63593741025409,60.751249944158076,33.63015621908755,53.1573437011383,27.121093725070523,22.78171872905932,18.53781810912889,21.36894364219239,18.442343733048006,19.527187482050863,93.29656241424283,69.46389303067502
195,58,614,0,20.48713333333305,40.282852038579165,191.35230135656082,16.070745708809145,29.45154589254705,45.02407090742605,51.53429575448664,50.96378781919393,136.52551207522387,107.08017147722265,83.88449435824361,101.54438790734753,64.01711411550173,34.21604375138884,49.668450606854776,23.17861028319885,25.38609697683694,20.94205756923109,20.94205756923109,20.971123589560875,26.48984032365587,97.12941452007152,72.81360644011937
196,58,615,0,20.52049999999972,45.56108917647679,199.70477814503394,16.401001884253745,30.056779469360695,46.44371044062349,53.02581179851324,49.203005652761405,140.99679132011974,110.9400392450459,85.60833298949524,99.12543819836287,60.826973439904464,32.66633758809678,57.447697137687555,30.41348671995229,23.65493411551836,23.520453582294962,25.187638421703767,24.78135954959066,40.55131562660296,94.6197364620736,71.59672062630338
197,58,616,0,20.553866666666384,38.60051813123755,193.82982226685348,16.278820596099774,30.41381265149102,46.09772228646431,52.630789467762966,48.83646178829903,133.9589489358586,103.58571330062844,81.61648117874233,98.38699100999065,60.37383539249424,32.422985673746894,50.3115294937453,25.714781741247634,23.47871376374769,22.80350850198277,23.3452350598575,22.36067977499789,35.77708763999658,93.91485505499111,66.70832032063178
198,58,617,0,20.58723333333305,40.80441152620635,196.02295783912655,16.278820596099774,27.65863337187857,45.60701700396538,50.44799302251773,46.690470119715,131.24404748406687,103.58571330062856,80.49844718999248,98.38699100999077,60.37383539249436,34.659053651246836,48.075461516245355,23.47871376374769,23.478713763747805,24.99999999999999,27.658633371878675,25.714781741247577,38.01315561749641,91.67878707749134,64.03124237432846
199,58,618,0,20.620599999999715,42.034025343765315,192.87524264687625,16.017417077516498,29.92543097827956,42.719407897246136,47.49495798923612,48.0522512325491,135.55565860797998,105.72227889209208,82.50605410383798,99.00726492460558,61.60452039753238,34.102502362919836,51.703793905071734,27.502018034612547,23.10169514907477,24.598552737527594,27.21449406584397,25.301856591843602,37.40274452707325,96.80710348183658,65.63712541755773
200,58,619,0,20.65396666666638,34.098340291838966,193.22392832042118,16.227934521197103,29.739613018100748,41.10217181982683,48.11918579670528,48.683803563591255,128.67015029681292,98.93692882134476,79.13227743316804,98.0794424523773,60.18511241395879,32.3216344445334,45.696103869857666,21.176243256763314,23.405321494317377,24.92185233168121,25.415402270824,24.51986061309435,40.123408275972565,95.85036421482334,68.19668058367795
201,58,620,0,20.687333333333047,33.45589223240886,179.380334834884,16.20154128313824,32.40308256627659,43.2104781494378,45.39050998372529,50.74813292849645,132.27879062730935,99.94736434343903,81.22902893337937,100.14537813704305,64.53813257720549,33.38179271234765,46.73450979728682,20.0290756274087,22.254528474898393,24.881319238538833,25.374066464248312,24.479981322388312,40.05815125481729,102.37083098453297,70.72599790858156
202,58,621,0,20.72069999999972,26.651864186110732,169.7104352139248,15.949044456577987,30.982162797563447,40.39579804565119,40.39579804565119,49.42601822481218,122.87855425052645,91.96015314431402,76.67694093493924,98.58463834492193,65.72309222994795,33.956930985473036,38.33847046746973,12.049233575490575,23.00308228048175,24.97861820737026,24.978618207370268,24.098467150980923,41.624625078967085,96.39386860392375,71.32629516214931
203,58,622,0,20.75406666666638,24.88748293944189,156.72397143006367,16.205554794386657,27.08050921899788,34.55687723179898,38.42678945779158,54.16101843799598,122.24796473057543,95.17306691738061,81.24915131652915,102.39619070028323,71.23213266106654,33.39006218487498,33.390062184874864,8.90401658263329,24.48604560224169,24.887482939441835,24.887482939441835,24.48604560224169,46.74608705882491,91.26616997199153,61.12398236528778
204,58,623,0,20.787433333333045,14.064772381713603,147.8641768416679,17.929137207149665,29.24999283412252,33.05969551244405,36.67643917579814,54.108259700449985,115.16807272468462,85.92758702376611,77.8342521215809,97.84877409570163,66.71507324706931,28.909865073729975,31.13370084863243,4.4476715498046815,17.7906861992185,24.8632398173874,25.355628999999116,25.57411141137652,42.252879723143906,91.17726677099472,65.442767740483
205,58,624,0,20.82079999999971,3.151218563174262,156.4541141583786,18.374603852012264,27.561905778018506,34.0856403291557,37.35224316987618,60.532931877927275,104.44281214393723,76.93104929743689,76.8745565182387,95.81466464592074,66.84744045064235,21.168356142703374,21.168356142703487,1.114124007510668,10.027116067596353,23.263592254695094,23.263592254695094,23.39660415772488,33.423720225321176,93.5864166308993,72.99000431050447
206,58,625,0,20.854166666666377,4.940681914275399,156.5034597908121,18.22033462320232,27.330501934803475,34.93589685269939,37.038641755960334,58.12392578346701,102.35681205634835,75.026821148294,74.01959412400947,97.21976541660945,61.867123446933306,22.095401231047617,19.885861107942787,2.20954012310483,13.257240738628639,26.880215740024365,25.19263349134577,25.40971141570469,30.933561723466653,95.01022529350467,60.10598964455414
207,58,626,0,20.88753333333304,3.1653951311369006,153.67659214884023,18.04552869625309,27.68590010675414,34.74733117111349,39.08974630608693,56.668529985874315,104.91267502233731,77.27714342798765,74.98212413911699,96.245711581553,62.67162614612755,23.501859804797732,23.50185980479796,1.1191361811808065,12.310497992989212,17.046174460872713,18.457266737836058,15.667906536531916,40.28890252251057,85.05434976974459,57.54580396625102
208,58,627,0,20.92089999999971,10.123338658193289,159.37427687083795,18.250108305501303,27.999771244633504,39.53290123712388,42.28842215688376,57.71190979014035,113.6792785986354,85.69033940540741,79.22765689640084,97.33683561557837,65.64577285701796,24.90012073886885,29.42741541866326,4.527294679794409,15.845531379280146,14.31656282691289,16.479601385028925,14.71370770933163,33.954710098457554,88.28224625598966,58.19819261539793
209,58,628,0,20.95426666666637,11.884784281276609,151.5259771973149,20.347064754898476,29.4443726486015,34.261062384844294,38.54270793360788,55.56955683537305,116.86415118663335,87.44643935843696,80.55363982396375,99.31270663228406,66.20847108818941,27.586862953412265,32.00076102595824,5.517372590682385,14.34516873577445,20.93695690360854,21.73592723406356,19.862541326456835,37.518133616640625,101.5196556685571,66.39212878104716
210,58,629,0,20.98763333333304,13.311365720620064,154.07465819956116,20.17582100850549,31.332762301066776,35.6241647402306,40.35164201701103,55.405230790264596,120.18144518409227,88.86527339363079,80.96987663248399,100.66525202957462,70.028001411878,30.63725061769651,32.82562566181798,4.376750088242488,15.318625308848254,18.045802910754755,20.760748542283338,19.695375397090743,39.39075079418143,96.28850194133236,71.24832948046117
211,58,630,0,21.020999999999702,15.716152118174081,166.1012154012044,23.20462052125521,33.99923538904122,38.8160323597052,43.155077082632566,54.0781809867417,126.8440502047274,92.84508907484224,83.3474830269015,104.46217872704995,68.90058596890526,33.33899321076058,37.78419230552879,6.667798642152206,17.780796379072285,21.085430688578725,21.085430688578725,21.11469570014833,40.00679185291273,100.01697963228179,70.63531861266047
212,58,631,0,21.05436666666637,20.64102263501785,178.72845718533623,22.83170880817462,34.756038411637704,41.82485660906344,45.663417616349484,54.88567166145941,133.07410867086966,98.35589660598914,86.19507993364834,105.22516251640184,67.16499735089485,32.463082052932464,43.657248278081624,14.552416092693875,16.791249337723684,23.374105300450275,23.37410530045022,22.388332450298208,35.821331920477235,98.50866278131235,73.33674128894404
213,58,632,0,21.08773333333304,33.72631463737184,177.45807864365366,18.378311255377316,32.45032693008058,39.49262215614974,45.45669028501415,53.5815244192995,137.83733441532976,105.41056427475719,85.80485774312774,100.2913921672922,64.6322305078105,31.201766452046513,51.26004488550484,22.286976037176032,20.05827843345844,25.411062377361578,25.411062377361464,24.515673640893624,31.201766452046456,100.29139216729214,60.00951950642512
214,58,633,0,21.121099999999704,29.353814856267686,183.81555541424387,20.872564137696838,33.655998389200825,40.56897246966108,44.8746645189346,55.00403606922535,138.74979336338478,105.17139917846187,86.90637698937599,99.00726492460558,63.80468184030144,28.60209875599719,52.80387462645615,22.001614427690015,15.401130099383181,27.21449406584397,25.085700082958944,25.301856591843602,39.6029059698422,107.80791069568158,72.57198417558374
215,58,634,0,21.15446666666637,36.329662233175945,180.34122434552674,18.403180236077645,32.49423774119529,41.691847125445456,48.176071364735535,55.209540708232716,142.3581278883488,109.89914017713309,89.26853642426727,100.42710347730076,62.48797549698713,27.89641763258362,56.90869197047027,27.896417632583393,16.73785057955024,25.445447866379197,26.12153575787983,25.66470422197682,29.01227433788688,104.89053029851408,76.9536724547968
216,58,635,0,21.187833333333035,23.111687012628007,178.88543819998313,16.1159656601066,25.240042082951447,38.66057581712261,42.98224285228214,57.470946118708284,121.9343834790898,96.69579396063926,81.90683087104787,95.18901966094745,57.55615142289844,21.030132250674455,40.95341543552399,21.030132250674455,9.961641592424712,25.240042082951398,25.910672323883304,25.457528513974353,37.632868238049014,108.47120845084714,73.58673560478027
217,58,636,0,21.2211999999997,6.186419764707138,166.5744499953078,18.036358024663382,20.74988269684964,36.07271604932679,38.19832424183203,58.89296158205091,103.07863775472299,82.33401919073957,76.55303892058953,91.86364670470732,52.49351240268993,15.310607784117792,26.246756201344965,8.748918733781693,4.374459366890733,27.054537036995182,27.05453703699513,26.246756201344965,32.80844525168118,102.79979512193438,70.60382838803302
218,58,637,0,21.254566666666367,6.145397494464575,173.41022498142678,13.741526546379895,23.40097648159358,36.421526623271035,39.16937717882409,53.750275747389125,87.98870168845141,64.59979175918004,63.00905750063009,89.08177094916653,43.454522414227654,14.122719784623996,16.295445905335328,1.0863630603556658,7.604541422489774,24.291816512000256,22.68392666014292,22.813624267469493,30.418165689959324,99.94540155272341,59.104540508829885
219,58,638,0,21.28793333333304,6.211262495105912,181.0878640760968,15.987215339548527,25.70367217025122,39.589185833240066,41.666415495455325,55.98756352867691,94.45408692769207,68.78114379067686,68.0764003652954,94.42855534540979,50.50829704521925,17.56810332007626,17.568103320076148,1.1368683772161603e-13,10.980064575047777,27.163179611414527,25.03839958894191,25.254148522609626,35.13620664015252,105.40861992045751,68.1825762557024
220,58,639,0,21.3212999999997,9.79492301549818,176.36302212296417,15.944979452190115,20.77816945637663,38.25039715366224,40.91652501799103,56.86119431422733,103.21915713409169,82.44625898677899,74.46718656990538,98.55951163663951,54.755284242577545,21.902113697030927,21.90211369703104,6.570634109109392,13.141268218218556,24.972251795082002,25.635766823421005,24.092325066734077,24.092325066734077,96.36930026693642,62.33450836913013
221,58,640,0,21.354666666666365,7.834222162029664,160.74479938144026,15.818385006679236,29.553578233890338,34.35533686120474,38.50250899076122,55.39631616093098,108.0528596475684,78.52280323895714,72.78954655671066,93.4313582668226,56.4933794171485,20.641811710111938,29.33310085121184,5.432055713187424,11.95052256901215,24.7739857277824,24.773985727782346,24.98745628066183,36.93797884967404,102.12264740792239,72.22795951114169
222,58,641,0,21.38803333333303,4.351426345763457,172.0465053408526,17.94139044567788,31.151471894333145,37.997197031472176,40.64567634960883,59.743039504454174,109.7603629645352,78.62727593341938,76.14996105085902,95.73137960679412,56.568542494923804,17.405705383053373,30.45998442034363,4.351426345763457,6.527139518644958,24.806946917841664,24.806946917841667,22.844988315257638,32.635697593225245,97.90709277967579,76.52203147966691
223,58,642,0,21.421399999999696,6.916627565616546,168.70050228370076,16.657444999530853,25.600867080546802,38.75780873678814,40.33052260967135,61.86419764707021,110.34134780909777,84.93663709920604,79.83388344575758,91.86364670470732,52.49351240268982,10.93614841722706,34.995674935126544,13.123378100672426,2.1872296834453664,20.749882696849816,20.749882696849816,19.685067151008752,43.74459366890824,104.9870248053798,87.54385100284225
224,58,643,0,21.45476666666636,4.956739854538073,169.99522157114345,20.43716197896891,28.039554909771617,38.71337584245915,41.41177423140033,60.50472070714204,107.52812866969812,79.58616589759053,78.69361155685885,90.8855795445412,55.41803630764707,13.300328713835256,31.03410033228249,6.650164356917685,1.1368683772161603e-13,24.783699272690022,25.946059384894973,24.38393597536475,50.984593403035376,110.83607261529426,83.4736183947144
225,58,644,0,21.488133333333028,3.088918209916927,167.97013498608,20.137283023563864,25.565347170878812,33.90782494882918,38.145325996801155,59.97594285835335,108.0680009348192,82.68267263740087,79.72311796584154,91.73619053603682,54.604875319069606,14.197267582958148,31.670827685060317,9.828877557432406,1.0920975063814922,27.017000233704813,27.628124377243687,26.21034015315331,41.49970524249284,111.3939456509018,81.60826038994963
226,58,645,0,21.52149999999969,4.328626632025816,165.97616327584723,19.95398283649211,24.676968551327786,33.10762749563594,37.79810709031099,59.074256971660866,104.47156293747686,79.81593134596882,77.91527937646549,93.06547258855608,58.436459532349204,17.314506528103493,25.971759792155126,4.328626632025816,2.164313316013022,24.197758496064555,23.310367802010877,21.64313316012931,49.77920626829746,108.2156658006466,75.13004603016299
227,58,646,0,21.55486666666636,3.100868364730079,169.11818807704122,20.215188501566043,23.615509896936548,36.16202853397903,40.96198988555876,60.2079728939615,106.36023693091322,83.0025486170339,80.03154426176638,96.47638212377319,57.00877125495697,17.54116038614052,26.31174057921089,8.770580193070373,4.385290096535073,24.999999999999996,25.664252300697314,24.119095530943355,39.46761086881628,105.24696231684351,70.77863649870184
228,58,647,0,21.588233333333022,15.67001649074218,170.92533344492756,16.8771242666326,21.825807399293677,36.54844493958029,42.047066498211045,58.29583114417932,111.79653534946807,90.39847671158005,80.88673692993495,97.5072993127983,57.617949593926255,19.944674859435963,31.025049781344933,17.728599875054215,8.864299937527107,25.267142373690586,25.267142373690586,24.376824828199574,37.673274734490235,110.80374921908896,71.53495541713582
229,58,648,0,21.62159999999969,3.160056526016792,170.1742519246068,20.60104810498425,21.19830361474524,36.374982272294275,39.02381939613456,59.62382728534717,104.06618391698852,82.9176191468783,79.32465764601136,93.84889073612601,53.62793756350061,15.64148178935443,26.81396878175019,8.937989593916654,2.2344973984792205,22.787491675835394,26.15412150048257,24.579471383271084,37.986455774146236,109.49037252548027,63.594910844235955
230,58,649,0,21.65496666666636,4.397729159182518,168.62581946131604,18.13230183616843,16.74605372868792,33.636160197251606,36.26460367233675,60.81758924132518,96.67505114725148,80.03987885535548,76.96026028569463,87.95458318365104,52.772749910190555,10.994322897956295,21.988645795912817,8.79545831836515,0.0,22.424106798167816,20.860261013331115,19.789781216321444,48.375020751008094,105.54549982038128,66.1489223089834
231,58,650,0,21.688333333333023,2.259202043910136,177.6744273049936,20.828813681835744,17.20557016672287,36.777144763153494,42.205377174565804,59.81554736454684,98.08684139458181,81.11133154585912,79.07207153685181,88.10887971249201,51.9616470099312,11.29601021955034,24.851222483010474,11.296010219550226,2.2592020439100224,20.82881368183568,20.828813681835634,20.33281839519043,49.70244496602112,108.44169810768244,75.09935573694439
232,58,651,0,21.72169999999969,4.5243253205271685,169.556599065248,20.856109215927237,23.61767154616341,35.118208329286794,37.92075622029194,58.1600216203982,103.78865396871365,80.17124893795778,76.91353044895902,88.22434375027649,49.767578525797035,12.441894631449259,30.53919591355725,10.179731971185674,1.1310813301316784,23.61767154616342,26.477935087619436,23.752707932766782,52.029741186060505,119.89462099396548,80.17124893795763
233,58,652,0,21.755066666666355,2.1977690231790348,169.01401080696405,20.84986765262725,29.892890553781836,38.382385897307216,40.524858432120325,53.878969888319304,105.05703751808096,75.1752669081858,72.5263777649078,85.7129919039819,48.35091850993854,14.285498650663612,34.065419859274925,7.692191581126622,1.0988845115895174,20.84986765262732,23.67069679566809,21.977690231790234,48.35091850993854,109.88845115895123,72.49307058622144
234,58,653,0,21.78843333333302,4.925152335778455,169.8856319891038,18.163064367460077,20.895651690034505,40.19358854767277,40.6138466053449,57.18269424859409,99.60504175003123,78.71003659331845,73.78693532969578,88.10380337874108,48.45709185830765,13.215570506811218,26.431141013622323,6.607785253405609,2.2025950844684985,20.895651690034555,20.895651690034555,19.82335576021677,13.215570506811162,85.90120829427258,61.35719910778954
235,58,654,0,21.821799999999687,6.27716506815798,164.70831396794955,18.30092377421662,25.97639259291011,39.32632643340215,40.922109610190404,61.90252358131255,111.60739473135023,85.66663143140062,79.89526775379443,93.2111457127603,53.26351183586303,13.315877958965757,33.28969489741439,11.09656496580476,4.438625986321881,23.170307887808104,23.902732453573428,22.193129931609576,19.97381693844858,88.7725197264383,70.1808389919432
236,58,655,0,21.85516666666636,16.007733905771776,165.32229076969844,16.00773390577173,21.655977363621474,36.85913012216834,41.07755966702638,59.205346198321614,112.6780396343503,91.2183803678353,80.25734452456345,92.35091698716883,52.77195256409652,15.391819497861547,35.181301709397644,17.590650854698765,8.79532542734944,24.583681924732076,27.81326111281802,25.286560603629596,39.578964423072364,94.54974834400622,64.03093562308693
237,58,656,0,21.88853333333302,4.870665799157794,159.0255600797364,15.857738945609887,20.664484892867588,33.81519144948823,35.92425589756149,60.24680867103406,99.93770671124723,79.2886947280495,75.14886477594223,89.30734654532273,52.277471148481595,11.980253804860354,25.04962159198078,7.623797875820173,3.267341946780107,29.061185757712447,26.94319192317118,27.227849556500814,41.38633132588126,95.84203043888294,63.430955782439845
238,58,657,0,21.921899999999685,0.0,159.28567131602466,15.77746971034545,21.344465676011275,35.7424132932513,36.32892778424526,61.64156850985821,98.29163655644142,77.3542419086823,75.85207479837459,93.18969189514598,52.01285129031396,11.919611754030257,22.755622439512422,5.418005342741026,3.2508032056446154,28.50509362947444,26.806809969938588,26.006425645157037,43.34404274192838,101.85850044353168,72.04113712910133
239,58,658,0,21.95526666666635,2.1640915772038625,153.28430364082644,15.754824492511341,24.674440339920213,33.595735703219525,38.34780044958144,56.92836120363434,97.64826283049463,73.00401837878309,71.41502204773144,88.72775466536336,54.10228943009952,15.148641040427833,23.80500734924385,2.164091577203976,6.4922747316119285,23.903172744472197,24.195279380814235,23.80500734924385,41.11773996687572,93.05593781977137,64.08781003372334
240,58,659,0,21.988633333333016,4.356455929040067,156.90802813256562,15.857738945609887,20.664484892867478,34.440808154779106,33.81519144948827,62.374956462046065,99.93770671124723,79.2886947280496,76.23797875820242,91.48557450984288,54.45569911300174,11.980253804860354,22.871393627460634,5.44556991130014,5.445569911300254,26.94319192317118,26.94319192317118,26.138735574240854,39.208103361361225,93.66380247436291,62.86744782073272
241,58,660,0,22.02199999999968,7.8537126157266295,159.0255600797364,15.857738945609887,20.664484892867478,33.81519144948845,36.513754331515074,61.95517529571324,105.66089690574634,85.06252126971842,79.50532070498252,93.66380247436291,56.633927077521776,14.158481769380387,27.227849556500814,9.80202584034032,5.44556991130014,26.499286890060887,26.94319192317118,27.227849556500814,47.92101521944147,102.37671433244316,71.35151358725827
242,58,661,0,22.055366666666348,3.0930711619857125,153.30216779940565,15.922558341778174,24.93713694175717,33.456680019594,38.7560705755598,60.0565786016929,103.44461940990503,78.52381166147896,75.45603996997363,89.6723953266353,52.4911582399817,12.029223763329014,29.52627650998977,7.6549605766640525,3.2806973899987497,26.607604209509546,29.179974982280502,27.339144916657062,41.555500273318785,100.60805329329816,70.02237657861454
243,58,662,0,22.08873333333301,2.2015939806740334,163.39328148678467,16.027846110886493,25.10203352810863,34.177929566220115,36.90544013642348,58.74585459151445,100.40813411243447,75.30610058432583,72.6526013622472,88.06375922696623,48.435067574831464,11.00796990337085,28.620721748764026,8.806375922696589,2.201593980674261,28.95744770595537,29.372927295757258,28.620721748764026,44.03187961348317,103.47491709168543,68.95594789923221
244,58,663,0,22.12209999999968,6.843458449150652,153.2843036408264,15.754824492511341,22.59377937936131,33.10423554409469,33.595735703219525,59.42392140638334,91.86562372756451,69.28473615009553,70.33297625912951,86.56366308815939,51.938197852895655,10.82045788601988,19.4768241948359,0.0,2.164091577203976,28.464180601817205,28.872582827060906,28.133190503651804,45.44592312128367,97.38412097417933,62.459447094250805
245,58,664,0,22.155466666666342,6.972408989521424,160.47147355826255,13.944817979043135,23.01951149735933,34.22877648300585,36.36363636363646,61.49965119994689,105.39644351813436,82.38071619957952,76.0679914886681,88.19477274048472,52.916863644290856,11.024346592560505,30.868170459169733,11.024346592560619,4.409738637024134,31.181560935001635,32.103381860542505,30.868170459169676,44.09738637024236,108.03859660709378,66.94965057565435
246,58,665,0,22.18883333333301,12.753631067147957,157.0546667121807,13.8332551312332,23.557184632820366,33.45818050979257,35.60551961927177,58.8929615820508,108.59325550547202,85.07733064784622,75.45942407886673,91.86364670470732,56.86797176958066,17.497837467563272,28.433985884790445,8.748918733781693,8.74891873378158,28.768514873886645,29.181283667614064,28.43398588479033,43.74459366890824,104.98702480537975,66.41403270747405
247,58,666,0,22.22219999999968,9.768745261289178,155.9331659336583,16.635573736480687,25.567253084027733,35.558769491286846,37.707862857783354,58.28593715199731,109.84952960420887,84.31734463624335,76.45252460692552,91.74302952831067,61.162019685540486,19.659220613209413,28.396651996858054,6.553073537736509,8.737431383648527,26.57386011575481,27.019014368527515,26.212294150945866,48.05587261006747,104.84917660378358,63.60946062301032
248,58,667,0,22.255566666666343,12.799638603541435,158.12483465235695,13.883157310897838,27.15213375990385,34.07742497516225,36.20284501320502,58.11888288248417,111.28197139274033,84.13353695379367,75.73163692407638,94.3901561662401,57.07311768191266,18.65851924216372,31.829238707220497,7.68291968794972,9.878039598792611,31.42933409588224,31.961428342166364,31.829238707220497,48.29263803854144,114.14623536382521,77.7952478449741
249,58,668,0,22.28893333333301,6.189659333910088,147.6464061166067,15.93161080016137,24.466776794595308,31.863221600322802,36.091605821509454,58.393129369965074,104.03416195767255,79.65805400080683,74.40475150012048,89.72337680896874,59.086126191272115,17.507000352969612,26.260500529454134,4.376750088242261,8.753500176484863,24.46677679459536,24.95131446207215,24.072125485333004,50.33262601478731,102.85362707369586,70.06218642802784
250,58,669,0,22.322299999999675,4.976648980620652,154.98087177780596,16.202795185057436,27.529461915104527,36.70594922013922,38.868871087994236,56.348326477220155,103.1019469008889,75.5729997326947,72.33281523534959,91.25062845074865,57.866252188279645,18.917813215399065,25.594688467892865,1.112812542082338,10.015312878740701,27.07589773689649,27.529461915104527,27.820313552057485,46.738126767456606,106.83000403990081,79.90582984159283
251,58,670,0,22.35566666666634,6.310176611990314,157.53340430219367,18.39716813624682,25.437135141575737,36.31779376515221,38.962466404742464,59.06844392422185,99.59789747209685,74.16135567660358,73.62248310158168,95.93232646569732,62.467561419523804,21.194351195909917,16.7323825230867,5.5774608410289375,10.039429513852042,27.141095854413024,25.437135141575794,23.42533553232147,51.312639737465986,100.39429513852048,75.26059581480253
252,58,671,0,22.389033333333007,4.978884516262243,151.21389500517986,16.21007356178668,24.89442258131167,34.56651309383894,37.32503390054388,58.57335467630901,98.29987610390289,73.44487543265222,72.36530749814415,95.7448683821599,60.11887084461205,20.03962361487072,17.812998768773923,2.2266248460967972,11.133124230483759,29.286677338154465,27.5418282872446,25.606185730112543,55.66562115241851,104.6513677665468,73.44487543265222
253,58,672,0,22.42239999999968,6.442297245584104,161.8607150810246,16.581877424708384,23.77984473311964,38.18114301905033,40.36087655970896,59.91682788449191,96.68812958969541,72.9218534164073,72.88627310035099,100.2186255129825,61.49779292842106,21.638112326666715,12.52732818912284,5.694240085964907,14.80502422350878,30.388255330970313,30.980015439564358,30.74889646421053,45.55392068771931,113.88480171929825,77.07233363984044
254,58,673,0,22.45576666666634,2.258301726642003,151.91171207548862,18.62243310691872,25.248580872382284,32.33396002894685,35.0582705212547,59.40664330257409,103.63612114554662,78.39267605910264,76.78225870582514,92.59037079231848,63.232448345973694,19.195564676456343,23.712168129740007,1.1291508633208878,7.904056043246783,27.473426249850394,27.93364966037811,27.09962071970301,47.424336259480185,106.14018115216993,76.1821276387991
255,58,674,0,22.489133333333005,7.075823478909361,153.62849606849701,16.289768963825907,27.67723526549702,36.90298035399613,36.90298035399588,58.8613254268383,109.70949643620706,82.06125077148198,77.19622887554203,93.97801776152937,60.41443998955458,19.019360737452416,30.207219994777233,5.5939296286624085,10.069073331592449,27.221236433882467,27.221236433882503,27.96964814331227,49.22658073222965,109.64102072178423,78.69766373158389
256,58,675,0,22.52249999999967,13.240419747641154,158.9148549389207,15.84669963078454,29.606478606356156,36.48833539689267,40.13657869711764,55.10993592052405,113.56511675176083,84.10673907423146,76.18490593035187,95.77531031244246,58.77121314627152,22.855471779105528,33.73902976915588,7.618490593035176,14.148625387065294,29.04095490513779,29.040954905137735,28.297250774130703,45.71094355821111,119.71913789055299,76.43326814067194
257,58,676,0,22.555866666666336,8.933636702598578,162.90834040350123,16.501287212843785,31.547994551356677,38.39446768242166,43.17169299941282,52.71869850360467,109.30693582968442,77.79116676081311,71.50193032990478,95.33590710653971,56.3348541993189,23.833976776634927,30.334152261171653,4.333450323024522,15.167076130585883,26.359349251802314,29.47064838484411,28.16742709965945,41.16777806873307,117.00315872166237,80.16883097595372
258,58,677,0,22.589233333333,6.085101941048776,161.25520143779195,17.740968346742463,30.803480839744015,36.06417689837865,40.82010477060287,53.22290504022761,106.98796399028868,76.24610878185187,70.99647797099556,94.66197062799404,58.08802743081446,24.741196868680277,26.89260529204364,1.075704211681682,13.984154751862775,26.173013090006883,24.529830136703442,23.66549265699848,45.179576890633484,114.02464643826545,73.52656650770167
259,58,678,0,22.622599999999668,9.85030467155701,160.30595368589297,16.035134256519992,29.386283686275142,39.030084336614394,43.27412726981585,54.48919310237995,109.533439129094,80.17567128259991,72.68563778746147,92.50899354767819,57.26747219618176,22.025950844685326,30.836331182559434,4.405190168937111,13.215570506811218,24.625761678892648,25.113447867551777,24.228545929153825,48.45709185830765,116.73753947683201,78.71003659331832
260,58,679,0,22.65596666666633,12.243557253258098,169.91049542222152,16.551850394871206,28.1225263829995,39.70621932315307,42.47382085417298,56.24505276599916,113.06304448079909,84.94764170834603,76.16464540523407,95.49000319462175,59.11285912048015,22.73571504633844,31.830001064873954,9.0942860185354,13.641429027803042,20.9612935638061,23.736783378302327,21.598929294021616,43.197858588043175,111.40500372705867,78.39701820073351
261,58,680,0,22.689333333333,11.316320258897692,167.56915369887162,14.036167798388668,25.304061354053335,36.60184754843322,38.758635157755315,57.61671640181522,108.22422411048201,82.92037641986332,74.3469852708921,90.9918327195993,57.70213782218491,18.86416044186808,29.960725407672953,7.767595476063434,9.986908469224318,24.812673580282134,23.170307887808104,22.193129931609576,46.60557285638009,104.307710678565,71.63947842077576
262,58,681,0,22.722699999999666,9.477212569376082,180.50987265951244,18.420390196418325,29.80261485466111,39.01164727500384,41.18924465126212,54.76229055815735,111.08525783392938,81.31156281817422,74.83231423249947,91.58581741887997,53.611210196417574,18.987303611231255,34.62390658518632,10.052101911828231,7.818301486977589,22.78038391157149,23.321561115176248,22.338004248507332,49.14360934671612,104.98861996798439,78.56501884543972
263,58,682,0,22.75606666666633,22.47544356135829,184.1277783667613,18.173813129966717,29.40367426409312,42.791969654238756,45.43453282491676,52.98531505337166,122.94514853125582,93.55542911877494,79.34034828185963,92.5637396621695,57.30136264800967,24.242884197234957,44.077971267699695,19.83508707046485,13.223391380309977,24.64033501621479,24.64033501621479,24.2428841972349,46.281869831084805,103.58323247909448,66.92017412731812
264,58,683,0,22.789433333333,30.640323057949242,184.4791740135231,16.50031894109,31.546143360500082,42.56689719012077,46.7704232954173,55.70306237004042,133.9966873450659,102.47344439664903,84.49732282688751,97.49691095410105,56.33154855125838,22.749279222623613,53.08165151945491,27.08247526502805,14.082887137814623,22.619947422950535,22.095051176443505,22.749279222623557,43.331960424044894,103.99670501770777,72.02105538627298
265,58,684,0,22.822799999999663,18.74495409576208,188.47386301500873,18.09161793182443,27.13742689773667,40.98601216690365,45.22904482956124,53.78487791438753,117.59551655685908,90.45808965912242,78.98151353424441,94.33903005479192,54.84827328766971,21.939309315067817,39.49075676712232,17.55144745205439,10.969654657533852,22.37379326245586,22.37379326245586,23.03627478082126,46.072549561642575,107.50261564383271,72.36647172729798
266,58,685,0,22.85616666666633,10.15706176356311,179.5962688422618,20.93931924854676,36.972262895474785,39.6645941735167,42.429294349791164,57.50188877407628,125.16286378999551,88.19699051912335,81.76276999796835,99.93227444196123,59.05088944297711,22.71188055499124,43.15257305448324,11.355940277495506,9.084752221996496,20.939319248546703,20.939319248546703,19.305098471742497,47.694949165481546,99.93227444196128,79.32918834703322
267,58,686,0,22.889533333332995,7.0180838991942975,166.86223198674585,20.461054805095227,33.94896077669323,36.60184754843322,42.108503395165926,56.18851709730343,117.51885743642588,83.5712063402659,78.78561125721399,99.86908469224306,59.92145081534579,24.412442924770517,35.50900789057539,8.877251972643876,11.09656496580476,18.961818525599064,18.30092377421662,16.64484744870714,51.04419884270209,106.527023671726,69.51092366342435
268,58,687,0,22.92289999999966,5.049716174476463,156.10076783254564,17.198713554685582,27.93364966037811,32.881369466210245,35.706885500397235,61.34937567858976,110.72589470978986,82.82150322292472,79.04056043246703,92.5903707923186,54.19924143940602,12.420659496530561,35.00367676294968,10.162357769888672,3.3874525899628907,27.473426249850394,27.93364966037805,28.2287715830239,49.68263798612213,106.14018115216999,68.57209641571899
269,58,688,0,22.956266666666327,3.208481601961263,151.87001205956523,16.51666994397732,28.06275281479836,30.85818793426549,35.87191483271381,59.37858460857258,106.34071693312512,78.32901823279683,76.00275978497916,88.48082482430402,52.180999255358756,11.343695490295431,34.03108647088618,9.074956392236345,2.2687390980590862,25.365274232358335,27.60040235339272,26.090499627679435,49.912260157299784,111.16821580489494,65.32235307922058
270,58,689,0,22.989633333333,2.2747108724120153,155.61416615579367,16.56014511749991,28.136619584085754,33.12029023499985,38.13110258584695,62.08752384365498,107.08067038266495,78.96228853983507,77.34016966200545,93.26314576888888,52.318350065474306,11.373554362059508,31.845952213766964,6.8241326172358185,2.2747108724119016,25.43204069935454,27.673052123938405,26.159175032737153,50.04363919306229,118.28496536542002,62.12917934907446
271,58,690,0,23.02299999999966,6.963000739015924,152.7581436553108,16.769126390212325,27.852002956063767,32.06006302209289,39.01766407352251,55.44227851634003,106.28559344957355,78.59250932335581,73.76345464383223,88.07576673890424,48.4416717063973,13.211365010835607,35.230306695561694,11.009470842363044,4.4037883369451265,26.78719868733463,27.85200295606375,27.523677105907495,41.8359892009795,123.30607343446587,68.93019055951163
272,58,691,0,23.056366666666325,6.286169728795464,149.89911813016622,16.180019632786664,30.229222252558287,30.229222252558397,37.255832245505644,55.739931693369826,106.79553012939576,76.7324804044836,73.34238850819452,88.89986485841757,48.894925672129716,13.334979728762619,35.559945943366984,8.889986485841746,4.444993242920873,29.232379020629306,32.36003926557333,31.11495270044611,44.449932429208786,126.68230742324499,72.66578374612682
273,58,692,0,23.08973333333299,13.427617346193092,151.01532475916306,14.808270919202394,27.922743425641524,34.90342928205189,39.116763871937025,55.88909910849706,111.36327331795006,83.56437890159728,75.0545475836916,90.50695443915754,50.77219395367365,15.452406855465938,37.5272737918458,13.24492016182785,11.037433468189988,20.94205756923109,20.94205756923109,19.867380242741888,41.94224717912181,103.7518746009855,58.6543795195863
274,58,693,0,23.123099999999656,12.33475223636044,150.72155969287024,14.486431831790185,28.331994372183228,36.216079579475306,39.14018347791509,57.99097975680427,112.7943388430328,84.46968713912415,76.73195059334716,98.49175747802758,54.972143708666636,19.469300896819504,33.21233682398599,8.016770957513813,12.59778293323609,26.115786384016644,23.91358457376487,22.90505987861104,45.81011975722214,105.36327544161088,63.020141098569994
275,58,694,0,23.15646666666632,7.324484191363118,154.6316403780565,17.6396938262336,31.503797713708508,35.957175291388154,39.57933305590441,58.641633689015976,114.5995078972874,83.15789831099721,77.59287664752333,99.59682674159706,55.58892655344948,19.68774482101344,33.58497645937575,5.790513182650898,10.42292372877182,21.9734525740893,21.9734525740893,19.687744821013382,46.32410546120798,104.22923728771787,60.79763096807693
