,video_id,frame_seq,gap,time_seconds,m1,m3,m4,m5,m6,m7,m8,m9,m10,m11,m12,m13,m14,m15,m16,m17,e1,e2,e3,b1,b2,b3,label_measures
0,48,175,1,5.839166666666672,16.5521177720474,158.4168248986164,20.93695690360892,31.83863423793433,42.19978575547774,47.39805209569007,33.10423554409438,101.63054227587104,69.83346138325903,60.19375109787461,73.27934916262984,52.34239225902138,31.40543535541337,36.63967458131447,5.234239225902002,15.702717677706914,20.93695690360846,20.93695690360846,18.319837290657688,47.10815303311938,62.81087071082584,52.34239225902138,{}
1,48,176,0,5.8725333333333385,15.909747208830597,154.61495105640338,16.770346059137527,32.25840472946472,37.12274348727203,47.72924162649258,32.25840472946427,96.77521418839324,64.51680945892853,55.68411523090799,68.94223790493379,53.03249069610274,29.1678698828564,34.47111895246735,2.6516245348052507,13.258122674025344,21.212996278441096,21.212996278441096,21.212996278441096,47.72924162649269,58.33573976571324,53.032490696102855,{}
2,48,177,0,5.905900000000005,17.578762059271412,164.48645534333917,17.578762059271412,29.878150255009523,47.24150353928592,53.0608202327934,37.05928436896673,101.15216090945547,71.28495678877651,61.52566720745017,64.45546088399533,52.73628617781469,23.43834941236173,41.01711147163314,5.859587353090319,11.719174706181091,23.43834941236173,23.438349412362182,23.438349412362182,46.87669882472392,52.73628617781424,52.73628617781435,{}
3,48,178,0,5.939266666666672,5.781940846277394,150.77457068717035,17.34582253883309,29.48222920160899,46.615497388105766,46.25552677022108,36.56820474119758,88.44668760482655,58.96445840321756,54.92843803963751,63.60134930905406,52.037467616498816,23.12776338511094,28.90970423138788,4.547473508864641e-13,11.563881692555697,17.345822538832635,17.34582253883309,20.236792961971787,46.25552677022142,46.25552677022142,52.0374676164987,{}
4,48,179,0,5.972633333333339,11.563881692555697,150.4416120827313,17.345822538832635,28.90970423138788,40.47358592394346,46.25552677022108,31.13670436230795,87.49664192708488,58.96445840321798,52.037467616498816,57.81940846277666,52.037467616498816,26.01873380824918,31.80067465452703,2.8909704231391515,8.672911269416545,17.345822538832635,17.34582253883309,20.236792961971787,52.03746761649836,52.03746761649836,46.61549738810571,{}
5,48,180,0,6.006000000000006,12.086578036702576,157.2416886257031,18.12986705505364,30.216445091756214,48.7225537134095,42.30302312845845,32.5441073409671,91.45155741968136,61.62969726170749,54.38960116516091,60.43289018351197,54.38960116516091,27.194800582580683,33.238089600931744,3.0216445091755304,15.108222545878109,18.12986705505364,19.110557856672923,21.151511564229168,42.303023128458335,48.3463121468094,54.38960116516091,{}
6,48,181,0,6.039366666666672,12.46202676686562,149.67407768771153,12.46202676686562,31.155066917163825,37.38608030059663,43.61709368402944,39.408388845279056,94.29234254516469,63.54411766316293,56.07912045089461,62.31013383432765,56.07912045089461,21.808546842014493,34.27057360888057,3.115506691716746,9.346520075148874,19.704194422639542,12.46202676686562,12.46202676686562,43.61709368402944,49.84810706746202,49.84810706746214,{}
7,48,182,0,6.072733333333339,12.8764555995931,154.65153877538964,19.3146833993892,25.7529111991862,45.06759459857562,51.50582239837195,34.67091776777931,91.05029072119724,65.65729836823581,57.9440501981685,64.38227799796505,57.9440501981685,28.97202509908402,28.97202509908448,3.219113899898275,9.657341699694824,19.31468339938965,19.3146833993892,19.3146833993892,51.50582239837195,51.50582239837195,51.50582239837195,{}
8,48,183,0,6.106100000000006,6.525884661473356,157.1641147228411,19.57765398441961,33.27561323230804,46.14497297369042,46.14497297369042,35.1429644143851,93.43644886255436,60.16568375961885,55.47001962252307,65.2588466147331,52.20707729178639,26.103538645892968,32.629423307366324,0.0,13.051769322946711,19.57765398441961,13.051769322946711,13.051769322946711,45.68119263031304,52.20707729178639,45.68119263031281,{}
9,48,184,0,6.139466666666673,6.871067372240759,144.4559190222833,20.613202116723187,34.355336861204705,41.22640423344592,48.58578332901208,37.00183020044211,97.17156665802422,63.34811110743017,58.40407266404827,68.71067372240987,61.83960635016865,30.91980317508433,30.91980317508433,3.43553368612038,10.30660105836114,21.72822285274973,13.742134744481971,17.177668430602807,48.09747160568668,54.96853897792744,48.09747160568668,{}
10,48,185,0,6.172833333333339,6.978985634536457,153.696215425837,20.93695690360846,27.915942538144463,42.45151231724604,41.87391380721692,37.58298782860148,91.79422424238784,64.3430683244149,59.32137789355738,69.78985634536184,62.81087071082584,31.40543535541292,24.426449720876462,10.468478451804458,17.44746408634046,13.95797126907246,20.93695690360846,20.93695690360846,41.87391380721692,48.85289944175338,48.85289944175315,{}
11,48,186,0,6.206200000000006,7.1145550379601445,149.40565579716915,21.343665113881343,36.27725496909046,35.572775189802314,43.27614880465027,29.33406190078132,93.57736134425438,57.35937648049294,53.35916278470359,56.91644030368343,56.91644030368343,28.458220151841488,35.57277518980254,0.0,7.1145550379601445,22.498198458580696,21.34366511388089,17.78638759490059,49.801885265723286,49.801885265723286,49.80188526572306,{}
12,48,187,0,6.239566666666673,7.25356957788199,138.5792522051179,14.507139155764436,36.98609282082418,43.52141746729285,43.52141746729285,29.9072335323748,88.24348247850511,51.29048236328888,47.14820225623407,65.28212620093927,50.77498704517484,29.01427831152841,29.01427831152887,7.25356957788199,14.50713915576398,21.760708733646425,14.507139155764436,18.1339239447052,43.52141746729285,43.52141746729285,51.29048236328911,{}
13,48,188,0,6.27293333333334,15.05153389413772,150.5153389413756,15.05153389413772,30.10306778827453,45.154601682412704,45.154601682412704,33.65625295293396,91.55490639477364,62.05906407309407,52.68036862948247,60.20613557655088,60.20613557655088,30.10306778827544,30.10306778827453,0.0,15.05153389413772,22.57730084120658,15.05153389413772,15.05153389413772,45.154601682412704,45.154601682412704,52.680368629481336,{}
14,48,189,0,6.306300000000007,7.656992531540709,130.39388422061822,17.12155580373323,30.627970126161927,38.28496265770309,39.04315433375984,39.04315433376025,93.15133453125732,63.14117796421576,57.42744398655577,76.56992531540618,68.91293278386638,34.456466391932736,19.14248132885132,11.485488797310609,19.14248132885132,15.313985063081418,15.313985063081418,15.313985063081418,45.9419551892438,45.9419551892438,45.9419551892438,{}
15,48,256,1,8.541866666666666,45.17971739130377,183.0336243648881,11.518613029843308,24.84884456521712,45.23615678544071,49.697689130434185,45.23615678544069,126.50320869565064,101.65436413043352,79.06450543478167,58.7336326086949,63.25160434782532,15.812901086956344,65.51059021739053,38.40275978260826,6.776957608695568,20.330872826086704,20.45598707052305,19.20137989130413,67.7695760869557,51.956674999999365,77.10392331206569,{}
16,48,268,1,8.942266666666656,25.19702185728806,182.2301823021708,11.472729318939162,16.925563970009367,44.867199264095085,47.38504369861728,31.109805294837567,84.62781985004688,67.70225588003751,54.259638736710826,33.390546914899005,55.65091152483171,13.912727881207845,38.95563806738221,19.47781903369116,2.782545576241546,14.1882541907171,14.188254190717146,13.9127278812079,66.78109382979801,19.477819033691105,54.02726234241212,{}
17,48,298,1,9.943266666666633,6.016568375961924,156.54643825496882,12.03313675192362,30.67859955389479,42.11597863173301,48.50712500726659,36.59735667827818,85.08712596230346,54.48234385427273,51.1408311956759,48.13254700769494,54.14911538365686,15.041420939904585,33.09112606779036,3.008284187980962,3.008284187980962,18.049705127885773,19.026059766179724,18.049705127885545,60.16568375961879,48.13254700769494,42.11597863173301,{}
18,48,323,1,10.77743333333328,13.745684176978784,138.52656095189042,14.16872693951618,27.7053121903782,34.53560407646168,37.95651104074316,38.42035527120987,93.7960406788542,66.10087858365652,58.41915775215989,48.10989461942586,30.92778939820232,1.7182105221222628,53.2645261857931,22.33673678759078,8.591052610611769,6.872842088489506,9.719666493590166,8.591052610611769,41.23705253093658,68.72842088489438,69.49731465079142,{}
19,48,324,0,10.810799999999944,18.32434833405521,134.17550908070024,14.374801496802776,28.973338686962983,36.116241780292334,39.69371802064774,36.64869666811001,98.08893093897004,69.1262069003225,59.296056174311616,50.31180523880971,32.34330336780636,5.390550561301097,55.70235580011081,23.35905243230445,5.390550561301097,7.187400748401387,8.03575832747974,5.390550561301097,39.530704116207744,68.2803071098133,65.5788779439198,{}
20,48,325,0,10.844166666666611,18.29327806657807,139.7970346945713,15.085023541459316,25.87060194201713,33.130535666381206,36.76903385433814,37.311112731624426,96.24420263380765,70.3756458715159,60.36781761970815,47.56252297310334,32.927900519840705,3.658655613315659,54.87983419973443,25.610589293209387,7.317311226631318,8.181002657634796,5.1741203884031375,5.487983419973489,40.24521174647202,65.85580103968141,62.62609633991149,{}
21,48,326,0,10.877533333333275,15.326626740589973,131.6774896377454,15.326626740589973,30.89180379865005,30.891803798649853,38.50767310856856,40.0036702298559,100.79515029683756,69.92117314014547,61.30650696235966,53.64319359206479,34.48491016632738,5.747485027721268,55.5590219346384,24.90576845345868,5.747485027721268,8.567844814431075,10.837561700986402,7.6633133702951,38.31656685147482,68.96982033265454,65.58739768568925,{}
22,48,327,0,10.910899999999945,11.8302701600378,142.83687011647578,16.259151149809234,31.79289575407681,35.70921752911893,39.434233866792056,35.70921752911921,95.37868726223007,63.585791508153285,57.17963910684944,43.37765725347208,27.60396370675494,0.0,59.15135080018899,27.603963706754712,11.8302701600378,7.886846773358457,11.153685671242012,5.915135080019127,39.43423386679274,67.03819757354768,63.585791508153534,{}
23,48,328,0,10.944266666666609,16.11318989021538,137.90669156387273,16.609095970748026,28.48436459479425,36.47778506496003,36.47778506496003,37.13906763541037,98.01270770778136,69.53919612103857,60.42446208830711,48.33956967064569,32.226379780430534,4.028297472553732,56.39616461575338,24.169784835322844,8.05659494510769,5.696872918959069,11.393745837917496,8.05659494510769,36.254677252984266,64.45275956086084,64.9543450210965,{}
24,48,329,0,10.977633333333277,16.66214738279973,138.46886083245008,13.172584109764976,29.45479350876845,33.58363171006784,37.720540444915045,37.72054044491487,96.6189065376514,67.16726342013455,58.31751583979872,45.8209053026992,29.15875791989947,0.0,58.31751583979894,29.15875791989947,12.49661053709974,8.331073691399752,9.314423549765229,4.1655368456999895,41.65536845699921,66.6485895311987,58.4660957387962,{}
25,48,330,0,11.01099999999994,17.16465520836755,138.38587445053523,13.56985142747874,30.34311023641437,38.85814091877658,38.85814091877568,34.59646861263375,95.27929880492026,64.93709164870202,55.78512942719499,42.91163802091933,25.74698281255155,0.0,60.07629322928688,30.03814661464344,8.582327604184002,6.068622047282521,9.595333964064118,8.582327604183774,38.62047421882721,64.36745703137854,69.1929372252681,{}
26,48,331,0,11.044366666666606,13.442477945923656,135.61440246653638,14.1696159019,31.68422437171036,36.12557399195208,36.12557399195208,40.57560500375215,99.49048261016615,67.80720123326869,60.491150756656,49.28908580171969,31.36578187382156,0.0,58.250737765668646,26.884955891847085,8.961651963948952,6.336844874341564,12.67368974868377,8.961651963948952,35.84660785579604,67.2123897296176,67.3615850069368,{}
27,48,332,0,11.077733333333272,18.157215690970588,133.58208176705722,13.617911768227714,27.61150781489451,36.59703822301298,36.59703822301391,37.43205908049672,96.29317756913994,68.69213305461597,59.01095099565396,49.93234315016866,27.23582353645565,2.26965196137121,56.74129903428275,24.966171575084445,6.808955884114084,10.150192141783505,10.150192141783606,4.539303922742647,36.31443138194072,68.08955884113902,63.71216665830959,{}
28,48,333,0,11.111099999999938,15.027615135307116,139.1170868992203,14.256447488396589,33.60276898225084,38.31305140884589,38.31305140884589,39.18722589382108,101.58934590363867,68.04042137895358,59.401864534986544,52.27364079078802,33.26504413959242,4.752149162798787,57.02578995358704,23.760745813994617,4.7521491627990144,10.626128567237313,10.626128567236904,9.504298325597802,38.01719330239143,66.53008827918484,61.9604445040008,{}
29,48,334,0,11.144466666666604,19.82583122633282,132.03607844661494,9.616940736686727,28.85082221006064,35.00619268088969,34.00102004590249,39.65166245266542,97.2452949959221,68.84681832200802,57.70164442012128,52.893174051777805,28.85082221006064,2.404235184171512,55.29740923594977,26.44658702588913,2.404235184171739,4.808470368343478,6.800204009180499,4.808470368343478,38.4677629467476,67.31858515680824,63.24555320336796,{}
30,48,335,0,11.17783333333327,15.01760908452161,140.96657051076355,15.01760908452161,30.449516611331447,40.35861173420069,40.35861173420162,41.27945899981181,101.23744931251798,70.79368813915941,62.57337118550663,50.05869694840544,35.04108786388383,2.50293484742042,57.56750149066602,27.5322833216228,7.508804542260805,7.079368813916221,7.079368813916221,7.508804542260805,40.046957558724216,70.08217572776744,70.79368813916012,{}
31,48,336,0,11.211199999999936,15.17529113587898,142.44669280492406,15.175291135879206,30.7692307692309,35.7685042288671,40.78236951430887,36.82592902367473,97.30085108210388,66.53326383025211,58.17194935420321,45.52587340763739,30.350582271758185,2.529215189313163,58.17194935420344,27.821367082445025,7.587645567939717,5.058430378626326,7.153700845773421,5.058430378626326,40.46744302901084,65.7595949221427,66.53326383025257,{}
32,48,337,0,11.244566666666602,21.01990443519253,142.7574976706326,11.750483799409496,26.79522572222529,37.15829241504421,36.784832761586586,37.15829241504427,95.89431531662798,69.11841929181173,57.80473719677889,42.03980887038461,26.27488054399032,2.6274880543990093,60.4322252511779,34.157344707187576,7.882464163197028,5.254976108798019,7.431658483008429,5.254976108798019,42.03980887038461,73.56966552317317,63.92954354441876,{}
33,48,338,0,11.277933333333268,16.47549804452865,143.73501643010312,10.9836653630191,28.002962008403784,32.9509960890573,38.44282877056685,45.2868124481659,100.21654217326046,72.23378110616578,63.15607583735982,49.42649413358595,32.9509960890573,2.745916340754775,57.66424315585027,24.71324706679297,13.729581703773874,10.9836653630191,7.766624260474607,5.49183268150955,38.44282877056708,65.90199217811482,66.13042264529975,{}
34,48,339,0,11.311299999999934,22.26952647400049,145.71232133529088,11.134763237000245,28.38818751235008,44.53905294800097,38.97167132950108,35.21121303563016,96.10790784130064,67.73012060176727,55.673816185001215,44.53905294800097,27.83690809250038,2.783690809249947,58.45750699425162,30.620598901750785,8.351072427750296,5.5673816185001215,7.873466591789383,5.567381618500349,38.97167132950108,66.80857942200169,67.04015231539896,{}
35,48,340,0,11.3446666666666,16.93503643550548,147.74410665601306,16.93503643550548,28.784027082682325,33.87007287101096,39.51508501617991,34.33726835970936,96.6270433206783,67.97494764447764,59.27262752426896,45.16009716134795,28.225060725842468,2.8225060725840194,59.27262752426941,25.40255465325845,8.467518217752968,5.645012145168494,7.983252735457802,5.645012145168494,39.515085016179455,67.74014574202192,67.9749476444776,{}
36,48,341,0,11.378033333333263,17.420601154186443,140.44937663535643,11.61373410279066,29.609328407904314,34.841202308371976,35.321793318651714,41.06075069490409,99.39755304385724,69.92393880585047,60.97210403965164,52.26180346255842,34.84120230837243,2.9034335256974373,55.165236988256765,26.130901731279664,8.710300577093221,8.212150138981222,8.21215013898106,5.806867051395329,40.64806935976799,75.48927166814042,69.92393880585053,{}
37,48,353,1,11.778433333333256,4.773249298367433,169.60154757920148,13.916293520442077,27.211707739350857,47.37314664596308,54.10852325716188,54.42341547870171,99.3248837818089,72.15346960131089,69.1915374169746,47.2527572603729,64.12874199622041,1.6875984735847285,42.18996183961866,8.437992367923755,8.437992367923755,10.125590841508483,10.125590841508483,10.125590841508483,43.87756031320342,27.00157557735595,54.42341547870203,{}
38,48,354,0,11.811799999999922,3.594280658457137,184.1871579788117,14.819598802931662,28.9780170882024,54.39133607893934,54.03388640563309,57.95603417640479,102.23185629964242,73.30922885920002,71.88561316913461,50.31992921839424,68.29133251067788,1.7971403292283412,41.334227572252416,8.98570164614182,12.57998230459856,14.81959880293169,17.97140329228364,16.17426296305527,46.7256485599375,28.75424526765383,46.72564855993778,{}
39,48,355,0,11.845166666666588,0.0,182.68446428431383,15.661676901452813,26.859554295582488,49.52657098623918,53.314692988067925,57.481956376454654,99.92331806084933,73.06588712582881,72.17177733180773,53.17920434975309,64.57474813898585,1.899257298205498,39.88440326231478,9.496286491027265,9.496286491027265,11.395543789232818,15.1940583856437,13.294801087438202,41.78366056052028,22.79108757846558,53.314692988067925,{}
40,48,356,0,11.878533333333252,3.9872611141445296,164.25386532270673,15.949044456578008,28.19419372173004,48.01298181631165,51.98752449100358,56.38838744346008,100.94938838006114,72.76068751089988,71.77070005460098,51.83439448387844,67.78343894045645,3.9872611141445296,39.87261114144496,7.974522228288947,7.974522228288947,11.961783342433534,16.439898730535745,15.949044456578008,47.84713336973397,31.89808891315596,47.847133369734365,{}
41,48,357,0,11.91189999999992,0.0,184.53371471664684,17.65132576493967,26.040764589187088,55.65397925255411,55.81839313882294,56.308754474501136,99.94270982056275,73.90281845118389,72.77828056103272,51.37290392543491,64.21612990679353,2.140537663559826,40.670215607635896,10.702688317798902,10.702688317798902,13.537948868448296,12.843225981358728,14.983763644918554,47.09182859831526,25.6864519627174,60.54354789153308,{}
42,48,358,0,11.945266666666583,4.382657079127966,176.18063414103867,13.147971237383445,30.67859955389485,52.77417972473118,57.14285714285708,57.64485381774056,101.6549727922711,71.3444883253484,70.1225132660453,48.20922787040615,65.73985618691745,0.0,43.8265707912783,8.765314158255592,13.147971237383445,8.765314158255592,8.765314158255705,8.765314158255592,43.8265707912783,26.295942474767003,52.59188494953378,{}
43,48,359,0,11.978633333333253,4.578385528140188,183.6497672126181,18.313542112559844,27.84923193982923,50.56992103417121,54.94062633767953,51.18790634061114,97.87470366870384,70.03583144620946,68.67578292209942,50.36224080953957,64.09739739395945,6.8675782922099415,38.91627698918956,6.8675782922099415,11.445963820349904,10.237581268122026,9.156771056279922,11.445963820349904,41.205469753259536,22.89192764069969,50.56992103417121,{}
44,48,360,0,12.011999999999915,4.802228751331313,183.0524941761224,14.406686253992802,29.21081711051664,53.042350245566624,53.04235024556618,58.42163422103332,102.65992522844569,73.45997433531839,72.03343126996413,52.82451626464035,67.23120251863327,2.401114375665429,40.81894438631309,7.203343126996515,12.005571878327371,9.604457502661944,9.60445750266183,9.604457502661944,43.22005876197852,19.20891500532377,57.826491698147066,{}
45,48,361,0,12.045366666666585,5.043530698606901,177.17084171559745,15.949044456578058,25.71706144960075,50.68685621230431,50.68685621230431,55.707617367379854,101.99909597778874,76.32246875517026,73.13119512979995,55.47883768467591,70.6094297804965,7.565296047910351,37.82648023955164,7.565296047910238,7.565296047910238,10.087061397213802,10.087061397213802,12.608826746517252,45.391776287462,25.21765349303439,50.68685621230431,{}
46,48,362,0,12.078733333333249,7.272727272727252,145.63625014182392,14.545454545454618,14.545454545454504,43.63636363636397,43.63636363636397,36.36363636363626,72.72727272727263,58.18181818181813,54.5454545454545,58.18181818181813,50.90909090909088,18.181818181818244,18.18181818181813,3.636363636363626,3.636363636363626,21.81818181818187,21.81818181818187,21.81818181818187,50.909090909090935,50.909090909090935,65.4545454545455,{}
47,48,363,0,12.112099999999916,7.731002358028616,180.73026645198195,10.93328838546222,27.333220963655776,54.93909420187138,54.93909420187138,55.74905082520988,99.75689538605258,72.93413037752644,68.33305240913955,49.19979773458044,60.13308612004289,0.0,43.73315354184933,10.93328838546222,10.93328838546222,10.933288385462332,10.933288385462332,10.933288385462332,43.73315354184945,21.86657677092478,49.1997977345809,{}
48,48,364,0,12.14546666666658,5.767498007284303,179.62770461738955,17.302494021854272,28.83749003642356,52.226915739403104,52.226915739403104,52.22691573940316,98.72366355824587,70.1646415445623,69.20997608741663,51.90748206556236,69.20997608741663,8.651247010927136,37.488737047350696,2.8837490036423787,8.651247010927136,5.7674980072847575,11.534996014569517,11.534996014569517,46.13998405827783,23.06999202913892,52.22691573940309,{}
49,48,365,0,12.178833333333246,5.937829808056449,179.02335309104612,17.813489424168438,23.75131923222466,53.44046827250531,53.76933579666096,59.67445103034851,101.63927434326747,78.09995742312003,77.19178750472997,53.44046827250531,71.25395769667398,2.968914904028225,38.59589375236487,8.906744712084219,8.906744712084219,5.937829808056222,11.875659616112216,8.906744712084219,41.564808656393325,23.75131923222466,59.674451030348685,{}
50,48,366,0,12.212199999999912,6.222713912870631,180.88734707825915,12.445427825741035,25.6569067407658,50.16912345948643,56.34907108548894,57.370587564725,101.29844340847325,75.70258205194882,71.56120999801146,56.004425215835,68.44985304157603,6.222713912870631,37.33628347722311,6.222713912870404,6.222713912870404,12.445427825741035,12.445427825741035,12.445427825740808,43.55899739009397,24.890855651482298,56.349071085488966,{}
51,48,367,0,12.245566666666578,6.430735193624969,186.9342934971896,19.29220558087445,25.7229407744992,51.44588154899793,51.44588154899793,51.846244642057954,97.31468195955938,71.89780519122695,70.73808712987307,51.44588154899861,64.3073519362481,6.430735193624741,38.5844111617489,6.430735193624741,6.430735193624741,6.430735193624741,6.430735193624969,9.646102790437226,45.015146355373645,25.7229407744992,51.44588154899884,{}
52,48,368,0,12.278933333333244,6.633581268066564,186.8033445871752,13.267162536133128,27.35095624435735,53.481641977437775,53.06865014453342,61.158597412005136,107.98687937250352,80.70099915816704,76.2861845827656,53.06865014453274,72.96939394873243,3.3167906340331683,43.11827824243301,9.95037190209996,9.95037190209996,13.267162536133128,6.633581268066564,9.95037190209996,46.435068876466175,19.90074380419992,53.481641977437775,{}
53,48,369,0,12.31229999999991,6.880209161538005,186.90883136599896,15.384615384614998,20.640627484613333,48.161464130765125,55.04167329230222,55.47001962252287,97.30085108210385,76.92307692307688,72.242196196147,48.16146413076467,68.802091615378,3.440104580768775,37.84115038845812,10.32031374230678,10.32031374230678,6.880209161537778,6.880209161537778,6.880209161537778,41.28125496922689,27.52083664615133,55.04167329230222,{}
54,48,370,0,12.345666666666576,0.0,179.13991852208378,14.229110075920971,28.458220151841715,56.916440303683885,50.307501124667645,58.66812380156253,100.61500224933506,72.55450993818057,71.14555037960463,49.801885265723286,71.14555037960463,3.5572775189803,39.13005270878239,10.671832556940672,3.5572775189800723,14.229110075920744,10.06150022493355,10.671832556940444,49.80188526572306,28.458220151841942,58.66812380156269,{}
55,48,371,0,12.379033333333242,7.242859683401548,175.1814048070281,14.485719366802869,28.971438733605964,51.21475197315795,58.39380160234241,52.72881440780208,96.63180075954678,68.71180011766387,65.18573715061325,43.45715810040883,65.18573715061325,3.621429841700774,39.83572825870806,10.864289525102096,10.864289525102096,7.242859683401321,7.242859683401548,10.864289525102322,43.45715810040883,21.728579050204416,51.21475197315795,{}
56,48,372,0,12.412399999999908,0.0,177.30288876141788,14.724203476646151,23.28100985898593,51.53471216826256,44.172610429938686,52.05792062953527,89.56383319623018,66.66666666666653,66.2589156449078,51.53471216826165,66.2589156449078,7.362101738322963,29.448406953292533,2.273736754432321e-13,2.273736754432321e-13,14.724203476646151,14.724203476646151,14.72420347664638,51.53471216826188,29.448406953292533,37.53950042476509,{}
57,48,441,1,14.714699999999851,15.920200983856034,155.2347156397546,18.020443923171136,27.86035172174786,39.85022203237909,43.780552705603895,47.76060295156788,109.46947140660303,81.61529503314536,73.63092955033369,67.66085418138778,65.67082905840573,18.90523866832882,42.78554014411293,12.93516329938302,4.975062807454947,17.91022610683791,19.90025122981996,19.90025122981996,55.72070344349584,59.700753689459816,57.710728566477655,{}
58,48,442,0,14.74806666666652,20.840303806013747,137.74877168636957,15.094339622641542,28.30188679245282,35.89867469894419,37.7829894235863,52.830188679245225,116.99634715416975,88.69931527202384,78.30188679245282,75.4716981132076,77.35849056603774,23.584905660377444,40.56603773584902,8.490566037735789,8.490566037735903,18.8679245283019,20.754716981132106,19.81132075471703,54.71698113207549,58.490566037735846,56.63521139548539,{}
59,48,443,0,14.781433333333185,18.61008303961957,131.48888563951323,16.665952263585837,25.924814632244647,33.33190452717167,37.08171488864443,53.701401738220966,114.82482604924604,88.90436594315726,79.62621637046561,79.62621637046561,81.4779888441974,26.850700869110483,34.25779076403762,4.629431184329405,12.036521079256431,22.22126968478108,22.22126968478108,22.22126968478108,51.84962926448924,57.404946685684536,55.58402851825383,{}
60,48,444,0,14.81479999999985,16.744004933322003,132.1046955495911,14.99938705680279,27.968620969285457,35.397380079687665,39.11361607090958,55.813349777740086,115.40758829090528,87.46070438038201,79.06891218513181,79.99913468142745,81.85957967401885,25.11600739998312,34.41823236293976,4.651112481478322,10.232447459252398,20.549286595789567,20.464894918504683,20.464894918504683,52.09245979255746,59.53423976292282,57.70379414545275,{}
61,48,445,0,14.848166666666517,14.67874464830993,130.3255342253408,14.792977847016669,25.68780313454249,36.69686162077505,38.575366704152266,55.075864659251856,110.15172931850373,84.48251984828475,77.06340940362747,77.06340940362747,80.73309556570496,23.852960053503807,31.19233237765866,3.6696861620774825,11.00905848623256,22.0944364975707,22.01811697246501,22.935538512984408,53.21044935012373,60.549821674278746,64.32427056152271,{}
62,48,446,0,14.881533333333184,14.678281374777953,128.44806696909177,12.973890370337056,25.686992405861247,34.909168694093,36.74154443350239,56.87834032726448,110.10239912561684,84.42005886636295,77.06097721758408,78.8957623894313,80.73054756127851,22.934814648090423,30.2739553354794,2.7521777577708235,10.0913184451598,22.093739178564206,22.017422062166872,22.01742206216693,53.20876998356994,58.71312549911164,62.49053117971849,{}
63,48,447,0,14.914899999999848,15.719175201584676,125.8019082303392,12.35015042188869,20.958900268779416,33.230856140180144,33.230856140180144,52.426352174148974,101.36156013134016,80.41835322110896,72.482863429529,73.35615094072813,76.84930098552474,22.705475291177663,26.198625335974384,1.7465750223983605,10.479450134389708,14.081338007315315,15.719175201584562,15.719175201584562,52.39725067194871,57.636975739143566,52.51355991755366,{}
64,48,448,0,14.948266666666514,17.31585506480451,124.7222467891004,12.121098545363113,24.242197090726226,32.945661149590514,36.40450051688509,50.33525771746777,103.9528338814114,79.72818407850927,70.99500576569824,72.72659127217867,76.18976228513952,24.242197090726226,29.43695361016762,3.46317101296097,12.121098545363113,7.139509943007542,10.389513038882626,9.523720285642412,53.67915070089384,60.60549272681561,48.60792150058951,{}
65,48,449,0,14.98163333333318,17.327210799547863,124.18466090723408,13.900315266735111,22.413584892605627,32.758316381500435,34.52551443840354,50.02925293824362,103.46168157395545,81.05206964351655,72.4131204222644,72.4131204222644,75.86136425189608,24.13770680742141,29.310072551868984,5.172365744447461,12.068853403710705,8.620609574079083,12.191382975586013,12.068853403710705,53.4477793592904,58.620145103737855,48.55171394583827,{}
66,48,450,0,15.014999999999846,12.34932637612556,120.55624680318216,14.080398450586792,22.70396030147492,34.92916969457701,36.67562817930593,50.76759859255466,99.60939402526796,76.92351684257459,70.73156863151814,73.35125635861141,76.84417332806913,24.450418786203727,24.45041878620384,0.0,12.225209393101863,12.22520939310192,12.225209393101863,12.225209393101863,54.14021302659421,57.63312999605188,54.25277076353361,{}
67,48,451,0,15.048366666666512,15.987215339548584,128.0086969001446,14.21085807959878,21.316287119398226,35.5715264095537,37.3457727302518,51.63672261245061,103.0899565779371,81.7896304170048,73.71882628791866,74.60700491789362,79.93607669774315,25.757180269272794,25.757180269272794,2.664535889924764,13.322679449623934,15.98721533954864,17.763572599498502,17.763572599498445,56.84343231839512,60.39614683829478,56.954346438141776,{}
68,48,452,0,15.081733333333178,14.467646097922623,128.51492844062952,14.467646097922511,19.893013384643496,36.169115244806335,38.02060509564848,54.28380542874806,103.09784087426712,83.20861986901431,75.95514201409344,75.95514201409344,81.38050930081442,24.41415279024432,24.41415279024432,0.904227881120164,11.754962454562133,18.17475547681461,18.084557622403224,18.084557622403167,56.06212862944989,59.67904015393054,54.37410292186983,{}
69,48,453,0,15.115099999999844,18.40743847259543,130.25042451446043,12.821260099714207,20.147694442408124,36.67793334494473,36.67793334494473,56.80940054859283,108.0649065547343,87.91721211232618,78.75916918395887,76.92756059828548,84.25399494097928,23.810911613755025,27.474128785101925,3.6632171713469006,12.821260099714207,18.316085856734617,18.316085856734617,18.316085856734617,58.61147474155081,58.61147474155081,54.97877590500335,{}
70,48,454,0,15.14846666666651,18.329349678420044,132.2891528294157,12.830544774894063,22.0714597720452,36.70449412717093,38.66580550525744,54.98804903526025,108.158695334443,86.14794348857436,76.98326864936428,73.31739871368029,82.48207355289037,22.911687098025027,30.243426969393223,4.582337419605096,10.081142323130962,18.329349678420044,20.16228464626209,19.245817162341098,60.48685393878628,58.65391897094423,53.18670700576023,{}
71,48,455,0,15.181833333333175,18.461711517235123,134.7167733850478,14.69607164366164,22.12051707923244,35.09600681541441,36.92342303447023,53.30492286691352,108.39909512660886,86.33942090651226,77.15437612922369,71.64334926285062,84.50241195105457,24.799620898678995,30.31064776505218,4.592522388644284,10.103549255017356,20.20709851003477,23.881116420950207,22.962611943221305,58.78428657464667,55.11026866373123,55.38513455170568,{}
72,48,456,0,15.21519999999984,20.19798344790841,132.1184129393748,14.629116000086585,23.842542053438187,36.75519906195509,38.79130172409696,53.06206440086788,111.5619973421118,87.7746960005195,77.71717875045988,73.14558000043291,84.11741700049788,25.60095300015155,32.91551100019478,5.48591850003254,10.971837000064966,20.115034500119062,20.11503450011901,20.11503450011901,62.173743000368006,58.51646400034639,56.71731101702419,{}
73,48,457,0,15.248566666666507,21.617538192362225,127.91627839086534,12.56667182708884,21.617538192362204,32.36412831035542,36.08385395248212,52.0619261407968,107.77415462753744,86.19016233300196,75.40003096253326,70.01431446520951,80.78574745985713,23.33810482173658,32.31429898394276,7.18095532976497,10.77143299464774,17.952388324412652,19.82906101638759,19.74762715685398,59.24288147056188,53.85716497323807,57.47568639992652,{}
74,48,458,0,15.281933333333171,20.459354390707297,128.9296503948638,14.639522301881811,22.035399048305933,36.78134457163412,38.81889559872103,53.068268344321154,109.93357711429782,87.91334825843697,77.77246222874669,71.36767122167339,86.00719352355509,25.619164028293085,31.108984891498608,5.489820863205637,10.979641726411272,18.390672285817047,20.212351117930943,20.12934316508733,62.217969782997216,58.55808920752679,53.099809665587,{}
75,48,459,0,15.31529999999984,23.88993575444784,127.45127009359196,12.99441198006229,22.12868622065028,35.10896782540572,38.98323594018682,53.32460845796936,112.113991308635,90.0466809206107,78.10171304338678,73.50749462906992,86.37130618915717,26.646466803037924,32.159528900218106,6.431905780043621,11.944967877223917,20.214561022994246,22.052248388720955,22.05224838872101,62.48137043470945,58.80599570325592,49.651578459609325,{}
76,48,460,0,15.348666666666505,25.369771739579733,127.48152525950216,12.684885869789923,23.834803488150992,34.85695021198234,38.44100921616803,50.73954347915958,112.41028677144465,88.79420108852923,76.10931521873943,72.48506211308506,85.16994798287499,28.087961568820447,33.524341227301875,6.342442934894962,13.590949146203457,21.745518633925546,23.557645186752666,22.65158191033902,63.424429348949445,59.8001762432952,54.48447108753887,{}
77,48,461,0,15.38203333333317,24.18290777650475,130.86511593664403,14.881789400926095,26.10948348642411,37.39003312475544,41.30366855232543,53.94648657835694,119.06884731795476,93.01118375578778,80.91972986753547,76.26917067974603,89.29073640555634,28.833466964294303,36.27436166475718,4.650559187789327,13.951677563368207,22.400059321614982,26.10948348642405,24.182907776504805,61.38738127881993,57.66693392858844,50.36364507291987,{}
78,48,462,0,15.415399999999837,1.862581744394901,123.61987450975468,13.038072210764769,24.28509477589225,35.58457426205865,35.82747519969462,59.63171155867623,98.78709355254126,74.52654841088436,73.57197890360055,72.6406880314031,85.67876024216775,19.55710831614715,19.557108316146923,8.381617849777399,6.519036105382384,20.57288779086461,22.428454235863768,21.41969006054194,61.46519756503335,57.74003407624343,54.14317212352417,{}
79,48,463,0,15.448766666666502,1.8625817443951287,131.22942576115602,13.038072210764652,20.572887790864662,35.58457426205865,37.66838460316989,57.740034076243546,91.34249758300238,70.80260969999328,70.7781062870082,68.9155245426133,83.81617849777285,18.625817443949582,14.900653955159555,9.31290872197485,5.587745233184933,20.48839918834443,20.572887790864684,19.55710831614698,61.46519756503335,57.74003407624349,52.28516113189315,{}
80,48,464,0,15.482133333333168,0.0,130.3740050296885,13.104404262220426,24.163327536376016,35.40615060683979,37.24971572276814,57.48040456488287,94.53354109501689,70.42321969091768,70.42321969091768,70.42321969091768,83.39591805503414,19.459047546174588,17.605804922729362,10.192834428948572,6.486349182058234,20.3856688578972,22.31599632766457,22.23891148134237,61.15700657369166,57.45052132680127,50.07185837961747,{}
81,48,465,0,15.515499999999834,2.635088424654876,129.05209365714282,13.043022258697649,18.725821631917505,35.598084338197545,37.45164326383477,59.65435139574482,93.18307573100756,74.53155576398626,73.59991131693641,72.66826686988668,83.84800023448463,18.632888940996622,14.90631115279723,9.316444470498368,5.589866682298975,20.496177835096205,20.496177835096205,21.427822282146053,61.48853350528867,55.898666822989696,52.30501177005501,{}
82,48,466,0,15.5488666666665,12.984549463223972,123.70126154361397,14.690340761756374,25.773594773835047,35.08232077228118,37.13671946417162,55.1193742365388,108.3568238021443,82.63316678488002,76.2061427016115,71.61541121356265,84.46945938009958,22.953657440244456,30.298827821122583,0.9181462976098372,10.099609273707642,22.111890959672177,22.11189095967224,22.03551114263462,64.27024083268441,53.2524852613671,55.11937423653868,{}
83,48,467,0,15.582233333333166,20.031063958663367,120.86047280236156,12.74704070096766,29.192943998072742,32.97981797679285,35.02774621898114,52.84055594268102,114.78116145912944,85.60664348826225,75.57174129859357,71.01922676253366,83.76626746350132,24.58357849472316,37.33061919569093,4.552514536059903,11.836537793755497,21.927813742916573,21.927813742916648,21.85206977308735,63.73520350483796,52.809168618294336,56.45118024714225,{}
84,48,468,0,15.615599999999832,18.12126552827124,111.48629066167892,12.684885869789923,27.24223554376944,29.49928305090157,33.41396263206126,52.67649602739962,110.67332045307936,83.43657234173503,74.29718866591224,72.48506211308506,86.98207453570205,27.18189829240692,30.80615139806116,1.812126552827067,12.68488586978981,21.745518633925485,23.62723956344439,22.65158191033913,61.61230279612232,50.73954347915958,54.393990309210416,{}
85,48,469,0,15.648966666666498,4.646139935246854,119.3253204902117,16.62253556510143,22.950238292197465,33.30993962335907,35.383947564933,18.70035251073898,62.47287592755335,39.53316354616235,37.40070502147808,31.16725418456508,45.71197280402873,19.73926098355787,23.894894874833312,1.0389084728187754,3.11672541845644,25.020229268313333,22.855986402014366,23.8948948748332,64.41232531476783,49.86760669530412,66.52260022780634,{}
86,48,470,0,15.682333333333164,10.798453159412176,112.9765213680657,12.426783347101832,26.687931012401503,32.39535947823649,34.46921253374864,49.83377597171937,99.66755194343877,72.98003025168622,67.45968102712425,63.90917149938082,79.88646437422608,22.19068454839612,27.516448840011208,6.213391673550859,7.988646437422631,21.37689814061256,23.07831193033195,22.19068454839612,60.3586619716375,47.93187862453567,53.28722228133927,{}
87,48,471,0,15.71569999999983,10.585946193389532,119.27145900781191,12.350270558954437,24.763472534853385,32.19589842645135,34.25698258795046,51.4384525125626,99.05389013941335,74.29041760455996,68.80865025703201,65.28000152590221,81.15892081598645,22.05405456956157,25.58270330069137,4.410810913912314,7.93945964504212,21.24527871561771,21.245278715617783,21.171892386779064,63.51567716033725,54.69405533251262,54.72250477804261,{}
88,48,472,0,15.749066666666495,7.25588140132038,124.42567288136097,12.69779245231041,23.651279741676195,35.22093324739553,37.395956780747696,52.730093162592944,96.2943217486279,72.64945591489364,68.93087331254276,67.11690296221263,83.44263611518329,22.674629379125804,20.860659028795908,8.162866576485271,8.162866576485271,21.84309553662456,21.8430955366246,21.767644203960856,65.30293261188262,50.79116980924204,54.44933495572572,{}
89,48,473,0,15.78243333333316,3.518464033123678,124.39648885913644,10.555392099371034,23.13908448579269,33.83950349215558,35.578265708594856,51.13891090394216,88.24262902276975,65.18660887449317,63.33235259622632,59.81388856310264,77.40620872872114,17.59232016561839,19.351552182180285,8.796160082809251,5.277696049685574,19.43135273591992,21.110784198742124,21.110784198742124,63.33235259622637,52.77696049685534,54.53619251341729,{}
90,48,474,0,15.815799999999829,1.82100581442387,129.9182684486055,11.07674593543316,23.743010970561222,36.60176388059728,38.62936679877889,51.02067040220228,87.42724584511508,63.73520350483796,62.82470059762602,60.0931918759901,72.84023257695776,15.478549422603464,20.941566865875416,6.373520350483773,4.552514536059789,23.743010970561112,21.85206977308729,21.85206977308735,65.55620931926188,50.98816280387035,56.480543671883005,{}
91,48,475,0,15.849166666666491,1.8316085856735072,132.68736932473897,10.989651514040702,22.05548801571495,38.63782544275963,38.85428554227635,53.11664898453046,87.93628929864431,65.93790908424467,65.02210479140797,58.61147474155087,73.26434342693858,12.821260099714324,21.979303028081404,5.4948257570205215,3.6632171713470143,22.05548801571495,21.97930302808152,21.97930302808152,65.93790908424467,53.1166489845304,56.89791174308431,{}
92,48,476,0,15.88253333333316,4.110625698982121,129.3247530522791,9.191638492981385,23.96886070847908,36.94992944350821,37.49467523008257,53.34318914812821,90.09681372433802,66.1797971494666,64.34146945087025,60.66481405367768,73.53310794385175,13.787457739472188,22.97909623245357,4.595819246490805,4.595819246490805,22.136396849460773,23.968860708479195,22.979096232453628,64.34146945087019,45.958192464907256,57.01780139381148,{}
93,48,477,0,15.915899999999825,5.28306379745834,122.13415686283312,10.711874170785126,24.90460157749344,33.64426404328058,35.61445103543466,49.43422264131112,89.82934781203329,65.18158007578319,62.51625493659128,58.113701772042646,70.44085063277896,14.968680759465542,25.53480835438245,4.402553164548635,4.402553164548635,21.20550412762973,22.893276455653165,22.012765822743404,65.15778683532056,51.069616708764784,51.19092238253607,{}
94,48,478,0,15.94926666666649,7.62549901605241,124.5879541756462,11.096731020433367,24.04291721093876,37.17358885212944,37.4029160665007,53.76159726105882,96.18945042268945,72.15245870055043,68.429841292672,61.03202061238312,73.97820680288862,13.870913775541569,28.666555136119428,0.9247275850359528,4.623637925180447,24.325784791378904,24.11394518609847,24.04291721093876,66.58038612259975,53.63419993209425,55.60681542041941,{}
95,48,479,0,15.982633333333157,5.548365510216627,128.26741632064605,11.096731020433252,25.958340315649,39.23286876775758,39.23286876775735,50.07209886090581,92.49125120622612,66.68305447367345,63.80620336749144,57.33311027223874,70.27929646274424,13.87091377554168,28.6665551361192,2.774182755108427,2.774182755108427,26.15524584517171,25.892372381011,25.892372381011057,66.58038612259975,51.78474476202206,55.60681542041941,{}
96,48,480,0,16.015999999999824,3.734242939730393,125.77803879336518,9.335607349326096,26.2062986493064,35.67130559538797,37.76019486895888,52.312731985978864,91.48895202339575,65.37591916785577,63.48212997541748,57.880765565821775,70.95061585487827,12.136289554123778,27.073261313045805,4.667803674662991,2.800682204797681,24.34428555430169,26.139700578113093,25.20613984318044,67.21637291514787,52.27940115622613,54.27513687528344,{}
97,48,481,0,16.04936666666649,3.6498872401864446,121.12182564990368,9.124718100465998,23.724267061211663,34.8654989069337,36.90720064643531,51.13099925649137,87.61630153159874,63.89909200804149,62.04808308316888,54.7483086027961,67.52291394344854,10.037189910512666,26.46168249135144,2.7374154301397766,2.7374154301397766,22.201397344419423,21.975231202315857,20.98685163107177,65.69797032335526,49.273477742516434,51.39087894460905,{}
98,48,482,0,16.082733333333156,7.260063207633266,118.8662149102412,9.075079009541582,25.41022122671643,34.91252602770875,34.91252602770875,50.85284312134226,92.58359845989054,67.18010743376585,63.52555306679096,54.45047405724938,68.97060047251591,10.8900948114499,30.85526863244138,0.0,1.8150158019083165,25.474960748779274,25.41022122671643,25.41022122671643,67.1555846706076,47.19041084961617,51.111309046171705,{}
99,48,483,0,16.116099999999822,9.17189980486114,114.6744260045533,11.006279765833256,25.681319453610968,33.4742930787951,37.41415686536361,51.36263890722205,97.2221379315274,71.54081847791645,66.95486857548588,56.865778790138734,71.54081847791645,12.840659726805484,33.01883929749988,0.0,1.834379960972228,23.91738850725121,25.74674967291282,24.764129473124967,69.70643851694422,53.19701886819428,56.984002990083496,{}
100,48,484,0,16.149466666666488,9.127758533088354,116.44959522236492,9.127758533088354,29.26582019384406,31.513908548343057,35.44580251091199,53.066750261692185,100.42193841724004,71.29007312480746,66.63263729154494,56.592102905147726,74.84761997132443,12.778861946323673,34.6854824257357,1.8255517066176024,3.651103413235319,23.802282153207408,23.73217218602969,23.732172186029743,67.54541314485374,51.11544778529469,53.22352091420185,{}
101,48,485,0,16.182833333333154,7.428340912805263,115.22030490273389,10.95893189976775,25.28718461432321,34.65518552594213,36.43585961917046,52.52630232410061,95.55473935995036,70.47142956203649,66.66058033199693,50.44584457556516,70.26385494453723,8.107367878215769,35.13192747226867,2.70245595940537,2.70245595940537,23.49047652067884,23.490476520678783,22.520466328377324,66.66058033199687,45.04093265675465,52.52630232410048,{}
102,48,486,0,16.21619999999982,3.754379302454936,118.99072688433344,13.140327558592276,26.28065511718444,33.99735053838092,34.61366688852332,56.59656753627385,99.65030808006316,73.42667573582156,71.33320674664355,60.07006883927875,73.21039639787102,10.32454308175113,32.85081889648052,0.9385948256136772,0.9385948256136772,24.69057493649868,26.28065511718444,24.40346546595697,67.57882744418856,46.92974128068647,54.95390546249551,{}
103,48,487,0,16.249566666666485,0.0,138.1396713740823,12.466901673825989,20.88180186711594,33.309939623358844,33.30993962335907,25.02022926831337,58.17887447785483,37.45837769262297,37.40070502147808,22.855986402014423,39.47852196711574,6.2334508369129935,27.011620293289752,2.0778169456376645,6.2334508369129935,27.09141845914376,24.933803347652088,25.972711820470863,66.49014226040543,47.7897897496664,60.5782532815382,{}
104,48,488,0,16.28293333333315,1.859741074651424,129.18174357237154,11.15844644790866,22.394248042480072,33.937089974838926,35.77283382618566,56.28597843252828,91.29794545353737,69.21135786612459,67.8805492247775,52.07275009024022,66.95067868745173,3.719482149302962,31.61559826907433,1.8597410746513103,7.438964298605697,24.24805697384361,24.17663397046863,24.17663397046863,66.95067868745173,46.49352686628595,54.22030371580236,{}
105,48,489,0,16.316299999999817,1.843004888893688,124.3584534491864,11.210561081319202,20.27305377783091,33.63168324395735,35.4509068654086,55.77944953802711,88.63684797184781,68.41496294108411,67.26967844462081,51.604136889024176,66.34817600017391,3.68600977778749,29.488078222299464,1.843004888893688,7.372019555574866,24.24094458852838,23.9590635556184,23.95906355561829,66.3481760001738,47.91812711123663,55.56590970749878,{}
106,48,490,0,16.349666666666483,1.8341678147733087,128.15570848841082,11.1568072579819,20.25904568027643,35.2809223507206,37.81233817709294,52.16909815546858,84.55095855219032,64.61375180085905,63.27878960967837,44.02002755455885,64.19587351706502,2.751251722159964,30.26376894375926,2.751251722159964,8.253755166479777,22.08630521496924,22.01001377727937,22.01001377727937,66.03004133183828,45.85419536933216,49.82728791224416,{}
107,48,491,0,16.38303333333315,3.650533180770253,135.03272397262432,12.9065838353456,20.4071008658017,37.22827984753045,39.01974299724515,48.32649673118474,84.04158510564419,64.30018098214259,62.05906407309351,41.981131578857344,63.88433066347864,5.47579977115538,31.02953203654669,3.65053318077014,7.301066361540393,21.97912027963196,21.90319908462129,20.99056578942873,65.7095972538637,41.9811315788574,53.21520841901919,{}
108,48,492,0,16.416399999999815,8.162840346320815,139.25958743047687,10.951599542310532,21.97912027963188,37.22827984753045,39.40209038496345,46.21205901873076,85.80694528071191,63.98854660659656,60.23379748270838,38.3305983980872,63.88433066347864,5.47579977115538,34.68006521731684,5.4757997711551525,7.301066361540279,21.9791202796319,23.72846567500642,22.81583237981385,69.3601304346339,45.6316647596276,51.39997387060632,{}
109,48,493,0,16.44976666666648,7.562467635418572,133.88168709578298,12.839174703412937,22.31361451596388,37.093748438986815,39.21002944078021,46.18316551649135,88.0400551091177,66.13186103970813,62.3617057022916,44.02002755455885,66.03004133183822,9.170839073866432,33.01502066591911,3.6683356295465046,3.6683356295465046,22.086305214969364,23.914622459230547,22.927097684666023,69.69837696138484,49.52253099887872,51.65063462524867,{}
110,48,494,0,16.483133333333146,7.370455035278155,124.82263278417255,13.029246839689051,24.02474409671133,35.4433833282131,36.20161638901952,48.47160015122425,92.20436303307034,68.4004436363916,64.49148155868306,49.75057148812698,68.17670907632214,11.05568255291712,33.167047658751244,1.842613758819425,1.842613758819425,20.601048104984176,22.18800784900916,22.11136510583424,70.01932283514162,51.59318524694646,57.38787938463353,{}
111,48,495,0,16.516499999999812,7.331739871367972,124.16697059441788,12.830544774894063,23.89854810187135,36.841536896830725,37.38468467269177,44.33278243983475,88.05721762779051,64.38795567403164,60.48685393878623,47.65630916389216,65.9856588423122,12.830544774894063,31.15989445331411,1.832934967841993,0.0,22.071459772045145,23.828154581946023,22.911687098025027,67.81859381015431,49.48924413173421,53.43877811933286,{}
112,48,496,0,16.549866666666478,7.296737463066961,128.08320576686646,14.593474926133922,23.78445420967924,36.89184567795278,36.89184567795301,45.93178869361775,91.28215649934413,67.71631835255191,63.846452801836,45.604609144168535,69.31900589913619,11.857198377483884,33.74741076668465,2.73627654865004,2.73627654865004,21.966088569534445,25.53858112073442,23.71439675496753,67.49482153336942,47.4287935099353,53.02700318950817,{}
113,48,497,0,16.583233333333144,7.194881762750924,119.58447595304868,12.59104308481392,23.45244524643699,34.36450576784059,34.92483356227947,46.9048904928741,89.9540074404318,66.64981351966215,62.955215424069934,53.96161322063142,68.35137674613316,14.38976352550162,28.77952705100347,1.1368683772161605e-13,1.7987204406877026,21.659462307348043,23.383365728940305,22.4840055085964,62.955215424069934,48.565451898568256,53.99158357185645,{}
114,48,498,0,16.61659999999981,9.25480099140974,122.69829008824188,12.705110613358215,23.664910762563032,36.48136611909515,36.70642294914267,49.30700135425528,94.39827216100656,70.87863289309931,66.2480767696535,58.08050566106601,74.41564787824086,17.242650118129063,28.13274492957885,0.9075079009542152,4.537539504770848,23.66491076256301,25.410221226716374,23.595205424808057,65.34056886869934,52.63545825534112,52.76048327294286,{}
115,48,499,0,16.649966666666476,7.225114798390298,120.19879257342728,14.01878186869476,22.84781911910161,33.70708166514233,37.17290896248405,47.44301477251745,91.12208214651616,68.36402391504906,64.83686614271335,56.07512747477915,71.84625707706084,16.64730346907504,27.161389870596167,0.8761738667933514,2.6285216003802816,22.84781911910157,22.78052053662907,21.904346669835604,61.332170675539714,50.818084274018645,50.848288190072346,{}
116,48,500,0,16.68333333333314,9.105029072119692,126.71374454649674,14.68141823703612,23.74301097056124,36.60176388059706,36.82756345526824,49.30186178157509,96.51330816446898,72.86299159409698,68.28771804089774,61.914197690414085,78.30325002022948,20.941566865875416,26.40458430914714,2.731508721635919,6.373520350483886,23.743010970561112,25.494081401935148,24.583578494723213,63.73520350483796,52.80916861829428,52.84055594268102,{}
117,48,501,0,16.716699999999808,7.0953611225359055,125.1909063331487,14.301157546785236,25.08588982356255,34.120499062057185,35.873699565986065,47.92652521386998,94.0804484300244,69.17977094472485,65.6320903834569,62.08440982218895,78.04897234789473,22.17300350792459,23.946843788558567,6.208440982218917,6.208440982218917,23.128047647908662,24.83376392887561,23.05992364824164,62.084409822189,47.89368757711725,51.44136813838532,{}
118,48,502,0,16.750066666666473,4.022061177896082,119.58447595304868,12.718874210691297,28.83568227913445,34.599078496206694,36.68684250625946,52.19389598789932,97.39701636101874,68.56405224390946,66.55265630544534,64.75393586475764,79.14369939025937,19.785924847564843,25.18208616962795,7.194881762750924,7.194881762750924,23.383365728940248,23.45244524643699,23.383365728940248,61.15649498338223,53.96161322063136,55.87625963606228,{}
119,48,503,0,16.78343333333314,8.950987670106883,131.1250955615629,14.433033939648784,26.91257010477566,36.20450454327244,39.54675611068886,50.15748857838419,100.39481399961365,73.48537371630724,68.92260505982301,66.23730875879107,76.97849396291929,21.482370408256543,28.64316054434198,3.580395068042776,5.370592602064107,23.341320139159983,21.55683292063916,21.482370408256543,59.07651862270552,53.70592602064136,57.28632108868419,{}
120,48,504,0,16.816799999999805,11.144161264288568,114.31118526026358,12.82462178351625,29.370618193306296,31.360309212032544,35.24093220737313,51.42918412839588,104.6858825737142,75.31645636565587,69.61937539623136,67.78728657001477,80.61190835353102,22.90111032770767,30.229465632574147,2.748133239324943,10.07648854419142,20.23608250111737,21.98506591459937,20.152977088382784,60.45893126514829,53.130575960281874,54.96266478649841,{}
121,48,505,0,16.85016666666647,13.0062441642865,117.5858662356004,13.138290637621358,27.93238904160024,33.65044288807617,37.34603889971672,52.15752458319773,105.97316234765422,78.05958131462717,71.53434290357575,68.74729058265712,79.8954998663313,22.29641856734827,31.58659297041004,0.0,9.29017440306177,24.225810925276985,24.15445344796064,24.154453447960577,61.31515106020777,57.59908129898304,52.1575245831975,{}
122,48,506,0,16.883533333333137,11.054157946614168,120.44580378763216,12.896517604383234,24.021431024352395,31.53611752915109,33.36655252813141,51.58607041753282,99.50447894297392,75.53674596853023,70.00966699522314,64.48258802191606,77.37910562629929,19.34477640657485,28.55657469541996,0.921179828884533,6.448258802191617,24.021431024352395,25.79303520876647,25.79303520876641,62.64022836414705,62.64022836414705,53.460185460022586,{}
123,48,507,0,16.916899999999803,7.357997512131558,120.21742510702452,10.707459153723676,21.414918307447465,32.32005549594783,34.09428664990064,51.87564749039551,91.03089697361908,69.62135992611594,66.02933144796305,60.67560187110121,73.16763755044565,15.168900467775188,24.09178309587844,2.676864788430862,4.461441314051513,23.199494833068115,23.199494833068115,22.307206570257847,60.67560187110121,51.752719242998126,53.65613563908356,{}
124,48,508,0,16.95026666666647,10.903494167182208,116.13628930851476,10.34396280679698,22.47812906979928,34.865616905123936,36.57143122513801,47.055873136374856,89.66425299003892,67.32411013281396,62.063776840782,55.16780163625072,67.23575824418049,14.653947309629077,28.44589771869176,0.8619969005663961,4.309984502832094,18.96393181246117,22.47812906979929,20.68792561359401,60.33978303964915,51.71981403398502,48.27182643171932,{}
125,48,509,0,16.983633333333135,9.170839073866432,125.38250978291084,11.00500688863974,23.84418159205268,35.041726898853405,37.0937484389866,50.06303847849144,93.82983004294164,70.08345379770692,65.11295742445179,55.02503444319859,67.86420914661164,11.922090796026396,32.097936758532455,2.75125172215985,0.9170839073866546,23.914622459230603,23.84418159205268,23.84418159205268,66.03004133183828,55.02503444319859,47.68836318410558,{}
126,48,510,0,17.0169999999998,1.7543184716555515,119.9240610172289,12.28022930158977,21.124791797764168,35.4788954125809,35.78121648011425,44.72652060014274,77.36922365181799,56.575070764356965,56.13819109298163,47.36659873470319,59.64682803629296,9.648751594106216,23.68329936735165,2.631477707483441,2.6314777074835547,19.37708085855712,22.8735143998182,21.051821659868097,63.155464979604346,52.62955414967024,45.61228026304775,{}
127,48,511,0,17.050366666666466,1.754318471655779,116.63249626911872,10.525910829933991,21.12479179776426,35.4788954125809,35.781216480114274,45.103388024569895,75.76137607307336,55.086717398955656,54.38387262132585,45.61228026304752,59.64682803629296,8.771592358278326,22.806140131523875,3.5086369433113305,1.7543184716556652,17.630682439974454,21.051821659868097,20.17466242404032,63.15546497960429,52.62955414967024,47.39907498036632,{}
128,48,512,0,17.083733333333132,1.7543690908677263,116.4377818635409,12.40526280856728,22.8741743935975,33.74596324876787,35.479919122792495,40.005770479220224,75.76356209643812,53.3570528512208,51.75388818060094,42.10485818082782,54.385441816902585,9.64902999977312,27.19272090845129,2.63155363630176,2.63155363630176,17.631191156760554,21.05242909041397,20.17524454497993,66.66602545297735,50.87670363516696,50.99755108246448,{}
129,48,513,0,17.117099999999798,7.743668132079978,117.85903599547564,8.65768416926494,20.850464551503222,35.31656041728397,37.378743024039245,39.48511491226271,74.6370712272841,54.1226454585217,50.21456818173647,32.89919984320659,53.67764184944235,5.194610501558941,31.16766300935365,3.4630736677059986,5.194610501558941,17.40172981361188,20.778442006235764,19.91267358930924,65.79839968641323,50.21456818173641,52.20518944083554,{}
130,48,514,0,17.150466666666464,6.242852386604276,119.87126940662192,10.388734331563342,22.575420613779897,33.618788968476274,37.37699205820967,37.376992058209694,74.53308535939547,52.202743946540366,49.34648807492624,31.16620299469025,53.67512737974437,6.06009502674533,32.031930855653854,4.328639304818012,6.06009502674533,17.40091464884677,20.777468663126854,19.911740802163195,65.79531743323491,48.48076021396258,52.0589740675235,{}
131,48,515,0,17.18383333333313,4.87659849094177,116.79682451337904,10.344827586206977,20.76136996343492,34.86853175199417,35.165651817881376,39.3163939689358,72.59828714285274,52.18188258766058,50.0,36.206896551724185,53.44827586206896,6.896551724137908,27.586206896551744,0.0,3.4482758620690674,17.327371760553262,18.96551724137936,18.10344827586221,63.793103448275815,46.55172413793099,44.96001658760444,{}
132,48,516,0,17.217199999999796,13.083540778447968,140.7652199997289,9.530461390884732,22.50667052988089,36.29091577358692,40.34783263390074,42.6215190539108,86.30199843860983,64.23211184555389,57.00685624895175,29.90523606502381,56.07231762191975,1.8690772540639955,42.98877684347178,11.214463524383971,9.345386270319976,20.896918976428584,22.506670529881,21.494388421735948,69.15585840036766,52.3341631137917,50.60334662802769,{}
133,48,517,0,17.25056666666646,5.6460242697133145,122.46797998047202,8.927148208441508,19.639726058571227,36.10807988825298,38.16812630293196,41.21984412741546,73.98231013090053,54.623643498693504,50.88474478811645,39.279452117142455,55.34831889233715,8.034433387597346,25.88872980448025,0.8927148208441622,0.8927148208441622,17.943345829229816,21.425155700259552,19.63972605857134,62.490037459090274,46.42117068389564,50.02390247925544,{}
134,48,518,0,17.283933333333128,7.984684095716067,124.75030847439416,8.927148208441508,17.854296416883017,34.66677292513723,36.41576233246227,41.21984412741546,73.74494466229628,56.0636279538108,51.7774596089605,33.923163192077595,53.56288925064882,4.463574104220697,29.45958908785689,4.463574104220811,6.249003745909022,17.94334582922976,19.639726058571227,19.63972605857134,66.06089674246687,51.7774596089605,48.33867345068832,{}
135,48,519,0,17.317299999999793,0.0,141.0710404692903,11.059907834101296,18.43317972350235,39.10267914395658,41.2178429032219,40.258672198786286,69.09369516678822,50.98365598502972,49.76958525345617,33.179723502304114,49.76958525345617,2.764976958525267,26.728110599078377,2.7649769585253807,8.294930875576028,20.360112474077887,22.119815668202705,21.198156682027506,64.5161290322581,47.92626728110599,46.23017955385978,{}
136,48,520,0,17.35066666666646,0.0,139.01982117618712,9.21570921637499,18.431418432750093,37.275236933684845,37.59286490071437,40.25482548171921,67.26836485378794,49.18115859101933,47.92168792515008,31.33341133567501,46.07854608187506,1.1368683772161605e-13,27.6471276491252,1.8431418432751343,9.215709216375105,20.358167064856342,20.27456027602512,20.27456027602512,62.666822671350246,46.07854608187517,48.23963847589818,{}
137,48,521,0,17.384033333333125,0.0,144.16529121958186,7.371315398160277,16.585459645860738,37.26890702713405,39.09230328227994,42.54500774374845,65.77634184811625,49.619685330576985,47.91355008804203,33.170919291721475,44.22789238896189,1.842828849540069,25.799603893561084,3.685657699080138,9.214144247700348,22.190597884263845,22.113946194480945,22.11394619448083,64.49900973390265,49.7563789375821,53.727231860506606,{}
138,48,522,0,17.41739999999979,1.8261794329304168,148.32579656398158,7.304717731721666,16.435614896373863,38.523297340179255,38.7391158206554,42.160626112886014,66.97374580454743,50.93698624711512,48.39375497265621,32.87122979274773,43.82830639033023,1.8261794329304168,27.392691493956363,3.652358865860833,9.130897164652083,20.170811118878884,21.914153195165227,20.08797376223481,63.91628015256504,49.30684468912159,56.72925810385735,{}
139,48,523,0,17.450766666666457,0.0,148.02259071946548,9.216198432639317,18.432396865278747,37.048659179038005,37.594860519337125,43.14913478867545,69.77581337880375,51.90610085335985,49.76747153625263,31.33507467097388,44.237752476669016,2.7648595297918064,30.41345482770987,6.45133890284751,10.137818275903328,22.195545016708834,23.96211592486236,22.118876238334565,64.51338902847556,49.76747153625252,53.48572146243085,{}
140,48,524,0,17.484133333333123,3.685657699080138,142.66161671943277,9.214144247700348,22.113946194480945,38.874517168323386,39.39518121667466,42.54500774374845,76.64927548154756,54.97686941014842,51.59920778712217,31.32809044218129,46.07072123850196,1.842828849540069,36.8565769908015,7.371315398160277,9.214144247700348,20.35470993605794,22.113946194480945,21.19253176971085,64.49900973390271,49.7563789375821,53.473800108492696,{}
141,48,525,0,17.51749999999979,5.504529243116167,136.38451691631894,9.174215405193763,22.01811697246501,33.2304215337051,35.293911356680724,44.11261949053435,79.93685040457798,58.31222533359635,54.12787089064307,38.53170470181374,51.37560626908498,2.752264621558197,33.94459699921674,4.587107702596768,6.421950783635566,22.32182948463892,23.852960053503693,22.93553851298429,64.21950783635629,45.87107702596876,51.50649974560675,{}
142,48,526,0,17.550866666666455,5.723345113798152,127.32352721092464,10.859283836878603,21.718567673757207,32.778332489095234,36.9144667919244,43.020371685719766,80.14726950489322,58.61890188064513,55.20135950413282,39.81737406855484,52.48653854491317,4.52470159869938,33.48279183037573,4.524701598699494,4.524701598699494,19.9907850610717,21.79384889662059,20.813627354017285,65.1557030212715,50.67665790543339,54.41694412555663,{}
143,48,527,0,17.58423333333312,7.565013063843231,134.7412064978523,9.173925859236192,22.01742206216693,37.10623371313335,39.22322702763679,43.185713971915405,81.06345844813887,59.17004387275468,55.04355515541715,38.530488608791984,53.20876998356994,3.669570343694545,34.86091826509755,5.504355515541647,5.504355515541647,18.439362768541663,22.017422062166816,21.100029476243208,66.05226618650056,53.20876998356988,53.33515678866778,{}
144,48,528,0,17.617599999999786,7.339372324155079,127.45227366380163,9.17421540519365,23.852960053503693,35.2939113566807,37.10740485405353,43.18707699240394,83.07605383426282,59.4273921647714,55.04529243116247,40.366547782852535,55.04529243116258,5.504529243116167,34.862018539736255,5.504529243116281,3.6696861620774825,22.09443649757072,23.852960053503807,22.93553851298429,62.38466475531743,51.375606269084926,55.31983424614088,{}
145,48,529,0,17.650966666666452,9.00818653135093,126.57704179585022,9.00818653135093,23.42128498151237,34.278487539135924,38.21849869506953,42.8244298921729,83.57733130554797,60.4287523142961,54.94993784124063,43.23929535048444,54.04911918810558,7.206549225080721,34.23110881913351,5.404911918810626,0.0,19.89973446978693,21.61964767524228,19.818010368972068,63.057305719456565,52.24748188183543,55.96687045857978,{}
146,48,530,0,17.684333333333118,8.96824918784398,129.59042496192097,8.96824918784398,21.523798050825576,37.83708477427547,38.04905889657142,42.63456992855665,81.42854194783065,60.16084446952946,54.70632004584854,43.04759610165127,53.80949512706411,7.17459935027523,32.28569707623831,3.5872996751375013,1.7936498375687506,19.730148213256825,21.523798050825576,20.626973132041257,62.77774431490809,48.42854561435763,53.92893921438428,{}
147,48,531,0,17.717699999999784,5.472524643250775,123.46578359704571,8.652821212036542,19.03620666648021,33.06238342801434,33.2880678460996,42.81179498017378,74.91564434057172,56.04998103796808,52.78220939342259,39.80297757536789,51.91692727221891,4.326410606018271,28.55430999972032,4.326410606018271,4.326410606018271,19.11470682082376,20.766770908887565,19.90148878768389,58.839184241848045,48.45579878740426,53.67539658362092,{}
148,48,532,0,17.75106666666645,0.0,129.26894120229431,10.434683982659068,17.477879361904368,34.955758723808515,35.17140394456598,39.657900819011566,66.65595397315857,49.800646038516135,48.69519191907568,34.782279942196965,46.95607792196586,2.6086709956647383,25.21715295809281,2.608670995664852,6.086898989884503,20.941705679499712,22.60848196242796,20.869367965318133,62.6081038959544,46.9560779219658,52.20239709959685,{}
149,48,533,0,17.784433333333116,2.491788680238101,132.7213762590374,10.57176403848132,17.619606730802275,35.41497122752524,35.63344937153662,41.881327087580935,71.02690544369182,53.58794181035705,51.97783985586659,37.00117413468468,49.33489884624623,2.6429410096202446,27.31039043274359,2.6429410096203583,6.166862355780836,21.14352807696264,24.73029652988048,22.90548875004288,63.43058423088809,49.33489884624629,49.36635240305718,{}
150,48,534,0,17.81779999999978,1.777707548743365,128.59843516279233,10.666245292459848,17.865739755597932,35.73147951119612,37.71087188048729,42.25562604914645,71.6616822953229,54.387392883020034,52.44237268792767,37.331858523609526,49.77581136481274,2.666561323115048,27.554467005521246,2.6665613231149337,6.22197642060155,21.40643358162562,23.17847065502862,22.22134435929138,62.219764206015896,47.99810381606943,48.12960571678954,{}
151,48,535,0,17.851166666666447,2.5253561965246214,140.424338198742,12.499875440318531,21.428357897688784,36.11347659118511,38.17383089979185,38.5478893482232,73.5611595582054,52.275483253921365,50.89235000701092,30.35684035505915,48.21380526979988,1.7856964914741411,33.9282333380072,5.357089474422196,10.714178948844392,19.64266140621476,23.214054389162925,22.32120614342585,66.07077018454049,55.3565912356961,51.90820364754553,{}
152,48,536,0,17.884533333333113,3.524194878827643,134.65929724372648,8.810487197069051,17.620974394138216,35.41772019680902,37.37973145562912,41.88457798621885,71.27243059891806,53.90981537053776,51.10082574300077,37.00404622769031,51.10082574300088,3.524194878827643,26.431461591207267,1.7620974394137647,5.286292318241408,21.21846297374928,22.90726671237968,21.145169272965973,59.91131294006988,42.29033854593166,47.57663086417301,{}
153,48,537,0,17.91789999999978,5.672018811508554,130.14780570606152,8.96824918784398,19.73014821325671,36.27432306167187,38.3438540198222,42.6345699285566,75.86523943494234,56.32174734019927,52.912670208279565,37.66664658894479,53.809495127064,4.484124593921933,29.59522231988524,4.484124593922047,6.277774431490911,21.598404160320182,23.31744788839444,22.42062296960995,62.777744314908034,52.01584528949519,53.92893921438427,{}
154,48,538,0,17.951266666666445,3.939252414616928,127.62205131376751,8.808436179613523,21.140246831072545,37.37102972552205,37.66057163886847,41.4651928988159,74.32566590780851,53.31833077063767,51.08892984175873,38.7571191902997,52.85061707768148,5.285061707768136,28.18699577476343,1.76168723592275,5.285061707768136,19.45847152013717,21.21352346961462,19.37855959514991,61.65905325729511,51.088929841758784,51.08892984175873,{}
155,48,539,0,17.98463333333311,6.52581785505598,140.53545808411351,12.669553556553865,19.99139899410383,38.692017160726245,40.47140428146942,40.83402241606141,77.91139516200079,58.17192458812264,55.20305478212754,34.388788224931886,52.48815044858031,3.6198724447295945,34.388788224932,7.239744889459416,9.04968111182427,20.23570214073484,21.71923466837802,21.71923466837802,66.96764022749892,54.29808667094511,59.97419698231123,{}
156,48,540,0,18.017999999999777,10.85961733418901,145.92172332687116,10.85961733418901,21.71923466837802,38.3945452904802,40.471404281469646,40.83402241606141,83.74745252991032,62.19969004249474,56.10802289330991,32.57885200256703,50.67821422621546,1.809936222364854,41.62853311439119,14.479489778918603,9.049681111824157,19.99139899410376,23.52917089074288,21.71923466837802,66.96764022749892,54.29808667094511,59.83748789870717,{}
157,48,541,0,18.051366666666443,8.968609865470853,148.17489813857142,12.55605381165924,23.38727320252068,38.050589122145965,40.46821227866724,42.63628457042049,86.56450950323695,63.69607499395412,58.29596412556055,34.08071748878922,52.017937219730925,1.7937219730941931,43.04932735426007,12.55605381165924,8.968609865470853,21.599272787071367,23.31838565022417,21.524663677130093,62.78026905829597,44.843049327354265,52.04885427281412,{}
158,48,542,0,18.08473333333311,9.04968111182427,147.31813527129816,10.85961733418901,19.909298446013167,39.982797988207416,41.98115757595554,39.07115322238619,78.351635259253,58.62070211410539,53.39311855976269,32.57885200256703,47.05834178148575,1.809936222364968,38.00866066966148,10.859617334188895,7.239744889459303,21.79451820318825,23.598681148208527,22.624202779560505,63.34776778276933,52.48815044858031,52.51934697463229,{}
159,48,543,0,18.11809999999977,3.636363636363626,148.39081747447784,11.059568236905813,20.082474576704104,41.97598683860089,42.44588192701358,41.46092454905953,74.89938154198535,55.29784118452922,52.72727272727275,29.09090909090912,47.27272727272725,1.818181818181756,36.36363636363626,9.090909090909008,10.909090909090878,20.32789070454356,21.81818181818187,20.90909090909099,63.63636363636368,45.454545454545496,52.75861137653423,{}
160,48,544,0,18.15146666666644,5.749358173884957,135.14049531846263,9.090533456791604,19.99917360494157,36.54349222815728,38.56786711140312,43.21590270671744,76.89968051129095,57.08970812664587,53.63414739507027,36.3621338271663,49.08888066667453,0.9090533456791264,33.634973790128925,6.363373419754112,8.181480111112478,21.81728029629977,21.817280296299828,20.9082269506207,61.81562750618275,47.27077397531622,54.6642734773852,{}
161,48,545,0,18.184833333333103,3.686479373055704,131.07754218343564,7.599871920884816,18.432396865278747,38.88318378407504,39.10101845088071,46.99357564917132,75.93163190501936,57.61414143702539,55.29719059583624,44.2377524766689,51.61071122278042,1.8432396865277951,27.648595297918177,3.6864793730558176,5.5297190595837264,20.359247778907424,22.118876238334565,21.197256395070667,62.670149341947706,53.45395090930833,59.01246356102376,{}
162,48,546,0,18.21819999999977,3.686596799919016,125.83127711116438,11.212346439432338,24.03367072504433,38.88442234527217,40.719792579912806,45.18901574240416,83.13255348111531,59.444587229999335,57.14225039874464,44.23916159902808,55.29895199878513,5.529895199878524,33.17937119927103,3.686596799919016,3.686596799919016,20.35989628995633,22.119580799514097,21.1979315995344,60.82884719866365,44.23916159902814,51.645260752224175,{}
163,48,547,0,18.25156666666644,3.619909502262431,123.55509984344629,11.009524941716204,25.403925516051068,38.39493834497083,38.69241326051046,44.03809976686501,83.33657508214547,58.17252010855457,56.10859728506784,45.24886877828055,56.10859728506796,7.239819004524861,32.57918552036199,1.809954751131272,3.619909502262431,21.794741319081044,23.529411764705856,22.62443438914028,59.72850678733033,43.43891402714934,50.807851032102135,{}
164,48,548,0,18.284933333333104,5.801367833719191,117.92626918647356,11.007321539393844,23.919652351484963,35.049097122280976,37.10155025807393,46.44718706627305,86.3020495273974,62.61715985619304,59.62299167171648,47.69839333737309,58.70571487676693,7.338214359595895,33.021964618181414,3.669107179797948,1.834553589898973,20.263306705811004,23.919652351484963,22.931919873737,62.37482205656494,53.202054107070126,58.73437278175758,{}
165,48,549,0,18.31829999999977,3.669377337422589,125.2435407584544,12.842820680978887,23.92141356372113,38.91962397035586,38.91962397035586,46.450606988644665,86.40585055199882,62.80962269434775,60.54472606747208,49.53659405520443,60.54472606747208,9.173443343556414,31.189707368091604,1.8346886687112367,3.6693773374224734,22.09257712692541,22.016264024535303,21.098919690179628,64.21410340489467,53.20597139262702,51.50216518501798,{}
166,48,550,0,18.35166666666644,3.636213382716619,116.86905210910612,10.90864014814997,27.33213673869248,34.734879566857565,38.86668183818864,46.03078485410354,87.43940255918633,60.43666680901495,58.17941412346613,49.08888066667453,59.9975208148245,9.090533456791604,32.725920444449685,0.0,1.8181066913583663,21.892903678326324,23.70521103043632,23.635386987658023,63.63373419754112,52.7250940493912,52.850331978917495,{}
167,48,551,0,18.3850333333331,2.582607721376923,124.51544367077074,12.913038606885111,27.39269149395648,36.70575232559976,38.73911582065518,44.16938784878035,86.00510258438433,58.69398653064567,57.52465213730841,49.30684468912159,58.43774185377367,10.043986881117348,31.95814007628257,0.9130897164651516,2.739269149395682,23.740332628095587,23.74033262809553,22.827242911630265,62.09010071963462,52.95920355498248,51.16562407698769,{}
168,48,552,0,18.418399999999767,3.603603603603574,124.7934743850292,12.61261261261268,23.4234234234234,32.48244392309885,34.658349660669096,45.93711273507013,85.16253908538002,61.92014514392647,59.45945945945948,48.648648648648646,59.45945945945948,9.009009009008992,30.630630630630662,0.0,1.801801801801844,23.49262128000952,25.225225225225245,23.423423423423458,61.26126126126121,52.25225225225222,52.283308571340406,{}
169,48,553,0,18.45176666666644,3.636213382716619,122.67842462352569,12.726746839508223,25.453493679016447,34.971980473371715,36.76893231976149,46.35280748514833,87.74130903380704,62.48047376990817,59.9975208148245,47.270773975316274,61.81562750618275,9.090533456791604,32.725920444449685,1.8181066913582529,3.636213382716619,20.081644773816432,21.892903678326288,21.817280296299828,65.45184088889943,54.54320074074951,51.036686899088274,{}
170,48,554,0,18.4851333333331,5.446084715153363,114.30292628886696,10.333219218068391,22.38864163914809,31.190426578804047,33.43913754746722,45.59774878868858,82.9522910118428,60.66948150203861,57.693807300881645,44.77728327829618,56.83270569937588,6.0277112105399056,31.86075925571072,4.305508007528488,4.305508007528488,20.66643843613673,24.172273845775308,23.249743240653743,60.27711210539866,53.3882992933531,51.69479150832196,{}
171,48,555,0,18.518499999999765,10.42995321913918,120.74795075789336,8.691627682615945,22.66499203745423,35.155458316025566,36.875453243558745,46.0246102136777,87.19396531903122,64.90266007857082,59.10306824178838,43.45813841307972,57.36474270526514,5.2149766095695895,36.5048362669869,8.691627682615945,5.2149766095695895,19.121580901755067,22.66499203745433,21.72906920653986,59.10306824178838,48.673115022649256,52.14976609569567,{}
172,48,556,0,18.55186666666643,10.384843419692174,130.37471380170555,10.528089406053054,20.769686839384576,38.2347815591542,38.70202637020549,44.49891604636721,85.67058737562391,65.1758671048878,58.84744604492301,43.27018091538457,55.385831571692165,6.057825328153854,35.481548350615185,9.519439801384465,2.596210854923015,20.841679037362177,20.769686839384576,19.904283221076867,60.57825328153831,50.19340986184602,48.4626026252306,{}
173,48,557,0,18.585233333333097,6.980247399076006,124.34101432664588,10.614796832827777,22.68580404699708,35.291691820361535,37.0183520268482,44.4905221219925,84.41483051736223,61.96812667697602,57.58704104237722,45.37160809399416,55.84197919260828,6.980247399076006,33.15617514561109,5.235185549307062,3.490123699538003,20.94074219722808,22.75282281648297,20.94074219722808,61.07716474191534,55.84197919260828,47.1166699437631,{}
174,48,558,0,18.618599999999763,3.88749132300751,115.58342652486944,10.431233832222688,20.93478146070113,33.441464833316935,33.75632080809483,46.03026121869799,80.44383455779447,60.02367171951297,57.37178607722444,43.4634743009276,57.37178607722444,5.215616916111344,29.55516252463076,1.7385389720370767,5.215616916111344,20.862467664445266,22.667774896085643,22.60100663648234,62.58740299333567,52.15616916111304,52.18513676632407,{}
175,48,559,0,18.65196666666643,1.7465750223982468,120.96844675215192,10.624001102599053,21.031548321165328,35.10572347611854,35.10572347611854,44.21974764720901,77.16620666396419,56.5685424949238,55.01711320554614,45.410950582355554,55.89040071674526,6.986300089593101,26.198625335974384,0.0,3.493150044796608,21.03154832116527,22.705475291177777,21.832187779978653,59.38355076154181,50.65067564955041,50.68078006567021,{}
176,48,560,0,18.68533333333309,2.469653426210209,126.1700471545988,10.477852109122637,21.0283411924331,35.10037015772723,37.04480139315199,42.81128364929303,75.59721687151702,55.14023250519837,53.2624148880401,45.40402580619809,55.88187791532073,8.731543424268807,24.448321587952933,1.746308684853716,1.7463086848538296,21.0283411924331,24.510610406327267,22.702012903099103,59.374495285028274,50.64295186075941,48.927817321996464,{}
177,48,561,0,18.71869999999976,1.8263126702634047,126.85973239427793,12.784188691843156,21.991716749422483,34.89165457370816,36.934887972644376,44.17261042993858,78.72233855425341,57.08505370291181,56.61569277816261,42.00519141605616,56.61569277816261,5.478938010789875,29.22100272421312,1.8263126702634047,5.478938010789989,24.02139273095179,23.81220390526528,23.74206471342308,63.92094345921589,52.96306743763603,52.99454623235438,{}
178,48,562,0,18.752066666666423,1.7467082368765432,129.83342365457412,8.906499384386942,19.213790605642544,36.84685062286568,37.05327717149511,44.223120368413326,73.54865515862045,54.40091887853851,53.27460122473576,41.92099768503806,54.14795534317409,4.366770592191415,25.32726943471061,0.8733541184383284,4.3667705921915285,22.77428907806625,24.516218386206784,22.70720707939563,61.13478829068049,47.1611223956678,54.14795534317409,{}
179,48,563,0,18.78543333333309,0.0,129.4406302437573,12.173452808215757,17.47738380030752,40.33730457067274,40.59887389969679,44.02960113947013,73.2268081492386,56.083150986619295,55.65006998041463,39.99848779842296,53.91100529352661,3.4781293737759142,26.085970303319414,1.739064686888014,6.9562587475518285,22.67462937912593,22.67462937912593,22.607840929543443,57.389134667302585,43.47661717219893,55.67723623537923,{}
180,48,564,0,18.81879999999976,4.028583487619744,132.51529224921055,12.611461143891232,21.694586020133062,38.00558061111936,38.514606597866575,45.18483376669306,82.95361116124076,61.49365809249219,59.45403110691609,41.43765804421423,57.65239380064588,4.504093265675465,33.33029016599846,4.504093265675465,6.3057305719456735,25.287184614323245,25.28718461432321,25.22292228778264,64.85894302572666,52.24748188183537,56.11167502262027,{}
181,48,565,0,18.852166666666424,5.355222083991293,136.8349774041175,10.710444167982589,21.495137738272668,39.635075598728,41.6729727828389,46.71985831013833,83.97440555702727,62.70668049115942,59.799979937902776,41.05670264393325,58.90744292390423,3.570148055994196,33.916406531944745,5.355222083991293,7.140296111988391,21.716362822618468,25.0547079254512,24.09849937796082,62.477590979898366,48.196998755921584,57.23382728266403,{}
182,48,566,0,18.88553333333309,5.401899101359845,138.0276541067355,10.952823148734549,21.682492978039345,39.98054159119508,40.26337866078585,47.12707646161682,84.64890609112207,63.124965641059084,60.32120663185185,43.21519281087899,61.22152314874518,5.401899101359959,32.411394608159185,3.601266067573192,5.401899101359845,23.47738240949824,25.208862473012744,25.208862473012744,64.82278921631848,50.41772494602549,57.732686957994645,{}
183,48,567,0,18.91889999999976,7.232405706795779,130.76108571919082,12.278812270298433,21.33974262695349,37.210420376762606,37.49871792680186,43.99300643721241,84.21583991333036,63.17253541507755,59.6399453128779,43.85290096535141,59.63994531287801,7.893522173763358,32.45114671435999,4.385290096535073,4.385290096535073,22.870874995874583,24.557624540596805,23.680566521289848,64.90229342872016,45.607017003965495,54.63163355250678,{}
184,48,568,0,18.95226666666642,7.0386301343330615,129.42756653060806,12.317602735082689,19.673569311058813,37.32797323688148,39.07073783920223,44.30704457425088,82.72262172130915,63.56724785078136,59.82835614183057,45.75109587316456,61.58801367541378,9.678116434707816,29.03434930412368,4.399143833958192,2.6394863003748696,24.88531549125429,26.39486300374876,24.635205470165488,65.10732874258036,45.75109587316456,56.74725033793393,{}
185,48,569,0,18.985633333333087,10.503609184253492,130.49909571435202,12.254210714962484,24.757244270396622,35.403724933996045,35.403724933996045,43.90486302737484,91.031279596864,66.61493137109706,61.2710535748123,47.26624132914094,63.02165510552129,11.3789099496081,35.88733137953284,4.37650382677225,0.8753007653543818,22.82505141909812,24.50842142992491,23.63312066457047,64.77225663623017,42.01443673701414,56.26488876784515,{}
186,48,570,0,19.01899999999976,8.860580253654462,128.37754679074618,10.632696304385377,23.10556644044605,35.619091792074855,37.59225829564005,46.10908387990044,88.6058025365445,65.59223701966205,61.13800375021572,49.61924942046494,63.79617782631203,10.632696304385377,31.898088913156016,3.5442321014617164,0.0,23.30854749712305,24.80962471023247,23.92356668486707,65.56829387704289,44.30290126827225,55.39103000866755,{}
187,48,571,0,19.05236666666642,8.896624627038932,130.48652378224577,12.455274477854688,24.974015425337004,35.76398837981738,37.74518162070324,46.26244806060299,92.54200343319856,67.61434716549661,63.1660348519772,51.6004228368264,64.05569731468108,11.565612015150691,34.6968360454523,4.448312313519523,0.8896624627039955,24.97401542533691,24.91054895570932,24.02088649300537,64.05569731468097,42.703798209787294,59.14750117415044,{}
188,48,572,0,19.085733333333085,7.054758754902764,127.7671151645824,12.345827821079752,23.19771600900173,35.44972401189311,35.66841654895796,47.61962159559357,90.01731185552919,67.02020817157609,63.49282879412476,52.91069066177067,67.02020817157609,12.345827821079864,29.982724708336605,1.7636896887256626,1.1368683772161605e-13,26.689467994863865,26.455345330885336,25.57350048652245,65.25651848285042,44.09224221814219,58.86603323125056,{}
189,48,573,0,19.11909999999975,8.779871511910528,132.64290954692538,12.416613368037089,24.833226736074064,37.04231848884079,37.53844306888914,47.44381306300337,93.13287763465615,68.4829977929021,64.09306203694678,52.67922907146317,68.4829977929021,13.169807267865847,32.48552459406892,2.633961453573193,0.8779871511910642,24.83322673607412,24.58364023334952,24.583640233349456,64.97104918813795,42.14338325717057,58.60851957009093,{}
190,48,574,0,19.152466666666417,7.052085783768007,127.71870559840754,14.10417156753624,21.448081582976712,33.91239462165797,34.2316844649371,45.83855759449261,88.22156496913989,66.99481494579686,63.46877205391286,51.12762193231868,65.23179349985492,12.341150121594184,29.971364581014427,3.5260428918840034,1.7630214459420586,26.504023918274005,26.44532168913031,27.32683241210134,65.23179349985486,44.07553614855056,60.356132192959,{}
191,48,575,0,19.185833333333083,7.131895888420783,127.0269130420637,12.108171788945242,20.82881368183571,34.76732013659021,34.98180286274813,46.70294832878915,86.55610324898643,65.75283120807977,62.270597771718826,51.89216480976563,65.73007542570315,12.108171788945242,27.67582123187504,1.7297388269922749,0.0,26.175698229452955,25.946082404882816,25.94608240488276,67.45981425269531,43.243470674804655,59.21671885587931,{}
192,48,576,0,19.21919999999975,8.686051920887166,125.84887275758716,12.283932429995634,21.13407646423909,34.91749657740591,35.432278592547235,45.16746998861345,87.01672768212379,66.03684867406784,61.6709686382992,50.37910114114584,64.2767842145654,12.16047268924217,29.532576531016502,3.4744207683548893,0.0,26.28876340619149,27.79536614683905,26.926760954750364,67.75120498292029,41.69304922025867,59.70041711926086,{}
193,48,577,0,19.25256666666641,8.71966845660529,128.27103544335696,12.331473390728268,22.93786643331042,35.26887622773698,36.99442017218463,45.37580076707916,89.00898154053338,66.26948027020092,61.90964604189833,50.57407704831121,66.26948027020092,13.079502684908109,30.51883959811892,2.615900536981598,0.871966845660495,26.39050550514275,26.159005369816214,26.159005369816214,68.01341396152208,43.598342283026966,61.65736695364096,{}
194,48,578,0,19.28593333333308,6.9789856345362296,131.794776124468,12.337220169960109,21.225756158623057,38.54270793360784,38.73965713590688,47.1404520791032,87.30708239441557,66.30036352809384,62.810870710825725,52.34239225902138,68.04510993672784,13.085598064755343,27.04356933382769,0.8723732043170003,0.8723732043170003,24.48868281465867,27.915942538144748,26.17119612951069,66.30036352809373,40.12916739858304,63.19740279425344,{}
195,48,579,0,19.319299999999743,10.43231779642349,129.4149474574452,10.43231779642349,21.152437265415912,38.40957210250812,38.605840994648936,48.715188387132045,90.56376202938178,69.5705159100231,64.33262641127817,53.900308614854566,67.81006567675263,12.17103742916072,29.558233756533127,3.477439265474459,1.7387196327372294,24.589208857813823,26.13868755783469,26.08079449105867,64.33262641127811,41.729271185693904,54.34715819761711,{}
196,48,580,0,19.35266666666641,10.32929465932466,128.33337462990764,12.173190497470731,19.015131427524125,36.519571492412055,38.49500836312563,46.481825966960855,87.86649039793144,68.88348039802091,63.69731706583525,53.368022406510704,68.86196439549758,14.633167434043344,26.68401120325518,2.5823236648310512,0.8607745549437595,27.75914530053297,27.544785758199,27.54478575819905,63.69731706583519,43.03872774718593,60.646439220724346,{}
197,48,581,0,19.38603333333308,10.423262305064668,125.84887275758716,12.283932429995552,21.13407646423905,36.64649320068431,36.85179728998693,46.90468037279106,90.48515060472228,69.51012710497088,64.2767842145654,53.85352190950084,67.75120498292029,13.897683073419556,29.532576531016502,3.474420768354776,1.7372103841775015,26.288763406191457,26.05815576266167,25.189550570572976,64.2767842145654,41.693049220258615,61.19815192754896,{}
198,48,582,0,19.419399999999744,8.853979028379399,130.042016351095,12.395570639731204,19.79809897881401,35.59255519489053,37.564251668703456,49.61389383568336,90.46669785004984,70.8539637171012,66.40484271284572,54.894669975952525,69.06103642135952,12.395570639731204,28.332732890814214,3.541591611351805,0.0,24.85430352521801,26.56193708513831,26.56193708513831,63.74864900433192,42.49909933622126,56.91393917413792,{}
199,48,583,0,19.45276666666641,10.350887121171468,126.68976550404314,12.076034974700178,20.98732944533619,34.67504271201193,34.88895617043484,48.427207970613125,91.69286615767535,70.81516554637342,65.55561843408634,55.20473131291476,69.00591414114342,13.801182828228775,29.32751350998592,3.45029570705708,1.725147853528597,27.65622398212228,29.327513509985977,28.46493958322168,63.83047058055769,43.12869633821464,62.3205931219949,{}
200,48,584,0,19.48613333333308,10.66750956492092,130.3833662478636,10.814654578849913,23.18121800438498,37.50522679921042,37.71534175863982,51.55962956378448,96.07341234233694,72.91632740003689,67.56089391116598,58.67130260706517,71.11673043280621,13.334386956151208,31.11356956435281,4.444795652050402,2.666877391230173,25.14356117242658,24.95427194700506,24.89085565148224,62.22713912870552,42.67003825968379,58.913247149425,{}
201,48,585,0,19.51949999999974,10.361589402632262,126.64426479034516,12.088520969737717,19.307681882689337,34.710894911193,36.633750652359815,48.38491211534924,89.94976334289429,70.82525126122903,65.62339955000459,56.98874171447767,69.07726268421538,14.678918320395836,26.767439290133325,2.5903973506580087,2.5903973506581224,25.961474073463226,25.961474073463226,25.90397350658077,62.16953641579374,44.9002207447399,58.94379460678452,{}
202,48,586,0,19.552866666666407,10.229450465505693,124.87799477809668,10.22945046550558,17.13411747512471,37.6626577996478,37.6626577996478,47.73743550569293,85.26246792542183,68.1963364367042,63.08161120395141,56.26197756028091,66.4914280257866,13.639267287340886,23.86871775284635,3.409816821835193,3.4098168218353067,23.929529871158472,25.630393439305127,24.721171958305263,59.6717943821161,44.32761868385768,56.493986699471925,{}
203,48,587,0,19.58623333333308,10.503609184253492,129.9696377039427,12.254210714962484,17.593327645768525,36.80428953178736,38.67205180784128,49.0480936394732,89.28067806615502,71.79600838415007,66.52285816693905,59.52045204410331,70.02406122835691,15.755413776380353,24.50842142992485,3.5012030614177547,5.25180459212686,24.57086336916401,24.508421429924965,24.50842142992491,57.76985051339449,45.515639798432005,63.04596432729524,{}
204,48,588,0,19.61959999999974,10.511766624552706,131.68875260599145,12.26372772864488,19.35104288276748,36.83287292529937,38.702085765534974,50.80687201867147,92.87046498110811,73.58236637186906,68.32648305959276,61.318638643224176,70.07844416368482,14.891669384782972,27.155397113427966,2.627941656138318,4.379902760230266,26.337750521198306,26.337750521198288,26.279416561381822,57.81471643504005,47.30294981048735,59.59243610359622,{}
205,48,589,0,19.652966666666405,8.712375283260068,130.03617218331198,11.960461578984903,18.87251658172657,37.62883473534376,37.74503316345295,47.84184631593956,87.14050578974712,68.36684936802196,64.07390131599055,59.80230789492447,66.63685736863016,15.377736315837751,23.92092315796981,1.7086373684263665,5.1259121052792125,25.68645196271738,25.68645196271745,25.629560526396176,56.38503315807168,49.55048368436604,58.093670526498045,{}
206,48,590,0,19.68633333333307,10.29578386390756,130.5937651477067,12.011747841225542,18.95344162196497,37.790186558875256,39.61610473007567,48.04699136490194,89.24662494895652,70.35452307003504,65.20663113808132,61.77470318344536,68.63855909271706,17.159639773179265,24.02349568245097,1.7159639773179831,6.863855909271706,27.455423637086824,27.455423637086824,26.597441648427832,54.910847274173705,48.046991364902,54.93765266863043,{}
207,48,591,0,19.719699999999737,8.508712596230339,131.13358875416907,11.912197634722476,20.4916934942538,37.4769914331157,37.4769914331157,49.350533058135966,90.2084062661899,69.77144328908878,65.51708699097367,62.96447321210451,68.06970076984271,16.1665539328377,24.67526652906793,0.850871259622977,4.254356298115226,25.582799651505105,25.526137788691017,26.37700904831405,56.15750313512029,51.05227557738209,52.75401809662799,{}
208,48,592,0,19.753066666666403,8.50440376370534,127.6680685122308,11.906165269187454,22.11144978563391,39.12025731304448,37.45801299450928,49.32554182949099,91.84756064801768,69.73611086238378,65.48390898053111,64.63346860416056,69.73611086238378,17.859247903781238,24.662770914745465,0.8504403763705568,7.653963387334784,23.87299899476122,25.569844460226488,25.513211291116026,56.129064840455214,51.02642258223205,56.12906484045516,{}
209,48,593,0,19.78643333333307,5.3324328207161,126.51470790526822,11.803843228309232,20.30529923241761,35.45165607704775,35.45165607704775,47.21537291323716,84.31316591649488,64.10018993175031,61.54861111904131,62.39174277820621,65.76426941486602,16.862633183298954,20.235159819958767,1.6862633183299067,5.05878995498972,25.293949774948487,25.29394977494843,24.45081811578353,57.332952823216544,50.58789954989692,59.0192161415464,{}
210,48,594,0,19.81979999999973,5.037572072342073,131.0199229778261,11.75433483546476,16.87565758648993,36.9803389297907,38.6578727982075,48.696530032639885,82.29747666339983,65.48843694044672,62.96965090427568,62.13005555888526,65.48843694044672,15.112716217026104,18.47109759858756,1.6791906907807288,3.358381381561344,25.18786036171025,25.24377133031076,25.18786036171025,55.41329279576257,50.3757207234205,62.15274318263173,{}
211,48,595,0,19.8531666666664,3.330443576974517,128.31935896666275,11.656552519410752,16.652217884872584,34.969657558232484,34.96965755823226,46.65593670487558,78.28313717988338,61.63570506328436,59.94798438554113,58.28276259705382,63.27842796251565,14.154385202141611,17.484828779116242,2.4978326827308592,4.163054471218061,23.372501581045565,26.64354861579608,24.97832682730882,53.2870972315921,49.95665365461758,59.9711080062221,{}
212,48,596,0,19.886533333333063,3.3589437782464984,134.39973136870051,11.756303223862687,16.878483594857595,40.34229916361931,38.66434647020766,47.05519390767458,78.93517878879277,62.16315132059066,60.46098800843709,60.46098800843709,63.81993178668358,15.1152470021093,16.794718891232378,3.358943778246612,5.038415667369804,23.51260644772549,25.247998668335708,23.512606447725545,55.42257234106728,52.06362856282078,58.80550368045081,{}
213,48,597,0,19.91989999999973,3.302966363649489,128.91093084834182,11.560382272773268,19.886490929227488,36.33263000014449,37.984113181969406,47.921477661625744,82.57415909123739,62.77808719038232,61.10487772751577,61.10487772751566,66.05932727298995,15.6890902273351,18.99205659098459,4.128707954561833,5.780191136386634,23.12076454554648,23.12076454554648,22.29502295463413,56.15042818204142,49.544495454742446,61.104877727515486,{}
214,48,598,0,19.9532666666664,5.018110072162244,127.3014074327278,13.381626859099356,23.41784700342396,36.79947386252343,38.50852316776181,46.83569400684786,88.65327794153342,65.23543093810946,62.72637590202834,61.89002422333471,68.58083765288433,18.39973693126172,23.417847003423844,1.6727033573874903,6.690813429549735,25.09055036081133,28.48511174853277,27.59960539689252,55.19921079378497,50.18110072162273,56.871914151172405,{}
215,48,599,0,19.986633333333064,5.240974256643425,126.1322965111473,13.258732647440638,21.54544055209112,34.843611368784444,36.49916219862745,46.43515022012599,86.24548255881338,64.72125772662903,62.150309284878176,62.9789800753432,69.60834639906352,19.88809897116107,19.88809897116096,3.3146831618602164,6.629366323720433,24.91530718632308,26.56920673977896,25.68879450441625,54.692272170692775,48.0629058469724,61.321638494413264,{}
216,48,600,0,20.01999999999973,5.039170822268716,126.08001369201268,13.43778885938292,21.900916363173724,35.31416652876717,36.99207520141099,47.03226100784048,87.36177728153027,65.50922068949211,62.98963527835775,63.82949708206917,68.86866790433777,19.31682148536305,20.996545092785937,4.199309018557187,5.87903262598013,25.25178282413778,25.25178282413772,24.355992307631595,57.11060265237768,48.7119846152633,58.81431741617968,{}
217,48,601,0,20.053366666666395,4.97578469604116,126.15138035081756,13.268759189442903,21.62543170546777,36.5267636589302,36.63955887437961,46.470265490675935,86.31070326854307,64.70646159177029,62.19730870051376,63.02660614985405,68.00239084589509,19.07384133482424,20.732436233504583,2.487892348020523,5.805082145381334,26.537518378885864,26.589298951789484,26.53751837888592,54.73363165645219,49.75784696041109,61.390420604212544,{}
218,48,602,0,20.08673333333306,4.976512034229359,126.1698206013574,13.2706987579449,21.62859281537852,34.993212122637466,36.53210297960528,48.10628299755035,87.93402728775376,66.35349378972461,63.86523777260999,64.69465644498149,69.67116847921085,19.076629464545874,20.735466809288823,2.488256017114736,5.805930706600975,24.937793447036405,24.937793447036423,24.882560171146736,58.05930706600901,53.08279503177965,63.03581910023832,{}
219,48,603,0,20.120099999999727,4.953563009307345,123.9381068960348,13.209501358152693,19.81425203722904,34.714232795677475,34.83184205227858,49.53563009307271,87.51294649776179,67.69869446053275,65.22191295587908,62.74513145122541,67.69869446053275,15.686282862806364,22.29103354188271,0.8255938348845575,4.127969174422788,23.175523338149315,24.767815046536384,24.767815046536384,56.14038077214906,49.535630093072655,56.237425582303,{}
220,48,604,0,20.1534666666664,3.3181027121112265,124.528355000123,10.091615424455432,21.631383181504773,34.84007847716748,36.53681608986375,53.08964339377928,87.99230531080656,66.3827891448523,64.70300288616852,63.04395153011285,68.02110559827963,12.442885170416956,22.39719330675064,2.4885770340833915,4.147628390138948,26.596616520183414,28.2038730529452,27.37434737491742,56.40774610589045,49.77154068166806,58.09049336069293,{}
221,48,605,0,20.18683333333306,2.3266630291580728,121.84474602770484,11.516394438175894,18.17181916942578,36.23175411746392,36.34363833885154,52.67207453922944,83.92128733210387,65.890176830111,64.98536861542135,62.517569807240704,67.45316742360188,12.338994040902776,18.91979086271749,2.467798808180646,2.467798808180646,23.032788876351844,24.732767257049137,23.85538847907867,54.29157377997217,46.06557775270369,51.02770394062165,{}
222,48,606,0,20.220199999999725,3.3314830232639,125.03051791724612,11.66019058142342,18.623556264761145,35.02020979862384,35.13885568271043,51.63798686058965,85.01811519440878,66.62966046527697,64.96391895364502,63.29817744201307,68.29540197690892,14.158802848871346,19.15602738376708,2.4986122674479248,4.164353779079761,23.379796242996665,26.70386787299677,26.6518641861108,56.635211395485385,49.9722453489577,58.3247443600183,{}
223,48,607,0,20.25356666666639,5.265893660958963,119.94221601244398,11.774896188189263,21.711835777403817,35.00928324523225,35.00928324523201,53.31310997282004,91.58719836679887,69.95913637663774,67.44148243373371,66.60887153949017,69.93931511646468,14.986996096385385,23.31310503882139,1.6652217884873153,4.995665365461832,24.97832682730882,26.64354861579608,25.81093772155242,56.617540808566616,49.95665365461764,58.28276259705399,{}
224,48,608,0,20.286933333333057,3.3314830232639,119.94495592908524,11.66019058142342,20.05818395613621,30.029582159288992,31.69289370905891,56.63521139548544,91.63092499311756,71.62688500017276,69.96114348854081,69.96114348854081,71.62688500017276,14.158802848871346,20.821768895399032,2.4986122674479248,4.164353779079875,26.70386787299677,26.70386787299677,26.651864186110856,56.635211395485385,49.9722453489577,56.65970229885514,{}
225,48,609,0,20.32029999999972,3.373605998720336,124.8690029006612,11.807620995521576,16.952160340903923,30.40927352899871,32.049256987844046,59.06219724752586,91.08736196545163,74.23849771315577,72.53252897248916,69.15892297376882,72.53252897248927,11.807620995521576,20.241635992322585,0.0,1.686802999360225,18.55483299296236,20.311797852586498,18.554832992962304,57.35130197824725,52.29089298016663,59.0621972475258,{}
226,48,610,0,20.35366666666639,6.718894429691545,125.99046821644656,11.758065251960032,18.55315365307773,33.636439025717635,33.636439025717635,55.4563235627259,92.384798408258,73.92692403066286,70.54839151176066,68.86866790433783,70.54839151176066,14.277650663094391,22.67626870020877,0.8398618037114147,4.199309018557187,13.437788859383032,15.210544190835654,15.11751246680592,60.47004986722345,57.11060265237768,57.13529913035452,{}
227,48,611,0,20.38703333333305,6.630789392605152,127.68574562196233,11.603881437059044,18.30986566756508,34.851090946281424,34.85109094628165,54.72912335214177,91.17335414832132,72.95751835662588,69.6232886223545,64.65019657790049,67.96559127420312,11.60388143705893,24.865460222269576,1.6576973481513733,1.6576973481512596,16.576973481512994,16.65965216638249,16.57697348151305,59.67710453344671,54.70401248899282,59.70012366816332,{}
228,48,612,0,20.42039999999972,6.772308561174327,128.77407163038228,11.971863269735362,20.31692568352321,37.24769708645931,38.94077422675287,52.51269194462743,91.42616557585438,71.10923989233117,67.72308561174395,62.64385419086318,67.72308561174395,12.698078552201991,26.24269567455076,2.53961571044033,4.232692850733997,20.3873485140366,22.01000282381676,21.163464253669986,60.95077705056963,54.17846848939519,60.97428747653591,{}
229,48,613,0,20.453766666666382,8.424133487518134,126.46305151109728,11.913523829289424,20.288000026864093,35.381360647576,37.21903825064574,52.22962762261221,92.72671454807868,72.46713635261686,68.23548124889663,62.33858780763393,67.39306790014479,12.636200231277144,27.79964050880972,4.21206674375901,2.5272400462554288,21.902747067547068,21.902747067547068,21.06033371879528,57.28410771512307,48.85997422760494,62.429593093760815,{}
230,48,614,0,20.48713333333305,11.603881437059158,114.57315261120344,10.08337931590943,19.961319400777025,31.53984306081051,33.31930433276486,53.04631514084144,94.54689577249322,74.61479725286033,68.79443994827886,62.99249922974923,69.6232886223545,13.261578785210418,28.18085491857209,4.973092044453892,3.315394696302633,23.266891028226446,24.865460222269466,24.036611548193832,59.67710453344671,49.73092044453893,53.072210341378586,"{'happy': (['m1', 'm3', 'm12', 'e1', 'e2'], 4.864817652223616, 71)}"
231,48,615,0,20.52049999999972,5.310956435855201,114.25347401445585,11.875659616112374,23.572511274617792,31.954131957238083,35.4284983131952,53.76933579666105,94.05042579090208,70.557810223369,68.01861150949162,65.49940367580678,68.85834745405327,13.435775112985992,26.8715502259721,0.0,3.3589437782464984,21.83313455860224,23.51260644772549,22.67287050316384,57.10204423019053,47.02521289545104,53.8479651379062,"{'happy': (['m1', 'm3', 'm12', 'e1', 'e2'], 4.864817652223616, 71)}"
232,48,616,0,20.553866666666384,4.934095405350831,113.5914066231457,9.868190810701437,26.315175495204016,29.65022330337237,31.42192011995376,51.01217301921133,92.11779787049092,65.80849425756753,63.3208910353348,62.49854180110964,67.43263720646036,13.979936981827109,27.13752472942917,2.4670477026753588,4.111746171125674,23.0257785583035,23.084443057352583,23.0257785583035,54.27504945885835,46.05155711660706,52.656043133012666,"{'happy': (['m1', 'm3', 'm12', 'e1', 'e2'], 4.864817652223616, 71)}"
233,48,617,0,20.58723333333305,3.3284540214431217,115.0244557558916,11.649589075050926,21.69886546219832,30.00227910584373,30.14043307874976,53.28126154470822,89.92987549301083,68.2535998734719,66.56908042886243,63.24062640741931,69.89753445030556,13.313816085772489,23.29917815010174,1.6642270107215609,3.3284540214431217,21.698865462198427,25.01881789307081,24.13129165546264,58.24794537525463,46.5983563002037,55.14596444392204,"{'happy': (['m1', 'm3', 'm12', 'e1', 'e2'], 4.864817652223616, 71)}"
234,48,618,0,20.620599999999715,3.316049712849008,114.70368864060065,11.606173994971414,26.58016047923761,31.67652040471521,33.325887167586174,51.4255059322675,92.9085882628591,66.34171633036713,64.66296940055554,63.00494454413104,71.29506882625356,15.751236136032617,25.699385274579868,4.145062141061203,4.145062141061203,23.27148782589404,24.87037284636756,23.21234798994305,56.37284511843313,46.42469597988611,56.470291768725055,"{'happy': (['m1', 'm3', 'm12', 'e1', 'e2'], 4.864817652223616, 71)}"
235,48,619,0,20.65396666666638,6.655352939475051,113.3365766079244,11.64686764408134,26.67335602535756,30.13339204859077,29.9952703494841,49.94286998463236,94.89714171882017,68.23765532304314,64.88969115988175,63.22585292501299,69.88120586448804,16.638382348687628,28.285249992768968,1.6638382348687628,4.991514704606288,25.012973310450946,25.012973310450946,24.95757352303144,54.90666175066917,44.9236323414566,55.00740800373725,"{'happy': (['m1', 'm3', 'm12', 'e1', 'e2'], 4.864817652223616, 71)}"
236,48,620,0,20.687333333333047,3.385456845327667,120.4813650002394,11.969397463727988,25.44728806600104,28.826126322127536,30.516095616748547,54.16730952524267,94.85322699037236,69.42250528962263,67.70913690655323,62.63095163856178,71.094593751881,12.69546316997878,27.93001897395311,0.846364211332002,2.5390926339957787,22.26436627731993,23.69819791729367,23.69819791729367,55.86003794790645,45.70366741192345,57.65225264425506,"{'happy': (['m1', 'm3', 'm12', 'e1', 'e2'], 4.864817652223616, 71)}"
237,48,621,0,20.72069999999972,4.991514704606288,121.74476159111369,10.12073287153724,23.35308248062343,31.65668139896623,33.44273462819278,54.90666175066917,93.23434501023294,69.90101065611833,67.3854485121849,59.89817645527546,68.21736762961928,9.151110291778195,29.11716911020324,2.495757352303144,0.8319191174343814,23.353082480623545,25.012973310450946,24.12565440559706,54.90666175066917,44.9236323414566,55.13308193497506,"{'happy': (['m1', 'm3', 'm12', 'e1', 'e2'], 4.864817652223616, 71)}"
238,48,622,0,20.75406666666638,6.705604704744474,120.9915765102106,10.058407057116597,17.096004619965715,30.22175199493572,32.02759950080756,55.34663300359665,88.99148445842563,72.10474097802879,68.73244822363051,60.35044234270004,68.73244822363051,9.220206469023651,24.30781705469849,4.191002940465182,0.8382005880931729,23.52941176470584,25.20183573065873,25.146017642791605,55.32123881414162,43.58643058083885,53.7495105914155,"{'happy': (['m1', 'm3', 'm12', 'e1', 'e2'], 4.864817652223616, 71)}"
239,48,623,0,20.787433333333045,6.794683117369345,129.37806420969298,10.192024676054077,17.32311090207294,34.01585584772489,35.83349934604807,52.65879415961263,86.69879869537358,69.64550195303605,66.24816039435143,59.45347727698197,67.94683117369368,11.041360065725144,22.932055521121697,2.548006169013661,2.548006169013433,23.841980539974674,22.082720131450458,22.082720131450515,57.75480649763966,44.16544026290092,66.4438717820163,"{'happy': (['m1', 'm3', 'm12', 'e1', 'e2'], 4.864817652223616, 71)}"
240,48,624,0,20.82079999999971,11.843585678351817,122.11312483921442,10.291674169807816,18.688097079340785,32.1913693791715,32.32448381075873,49.09544625140976,89.68882327866807,71.061514070111,65.13972123093504,59.21792839175919,67.67763244772482,14.38149689514148,26.22508257349341,4.229852027982815,4.229852027982815,22.060209211581387,23.747520935677155,23.68717135670363,55.834046769373,42.29852027982804,55.93649464775964,"{'happy': (['m1', 'm3', 'm12', 'e1', 'e2'], 4.864817652223616, 71)}"
241,48,625,0,20.854166666666377,8.488456650913918,122.52815935970548,13.581530641462107,22.135186806038284,32.30078046476808,34.12317342278427,45.8690938692028,90.04168153306082,67.92887103417036,63.66342488185376,59.41919655639674,67.90765320731066,17.825758966919125,26.31421561783281,0.8488456650912894,4.244228325457016,23.82823331591775,25.52189692563164,24.616524287650066,57.72150522621399,44.13997458475188,54.564338131354496,"{'happy': (['m1', 'm3', 'm12', 'e1', 'e2'], 4.864817652223616, 71)}"
242,48,626,0,20.88753333333304,6.935315575687696,123.29705769845476,10.546469429896533,20.878064609603445,34.71989654352074,34.84952946444154,46.81338013589152,85.02835487837751,64.17509491816821,60.6840112872668,60.6840112872668,67.61932686295438,17.33828893921907,20.80594672706286,3.467657787843791,6.935315575687696,22.539775620984813,24.273604514906708,24.273604514906708,57.21635349942295,41.61189345412578,57.321337722566646,"{'happy': (['m1', 'm3', 'm12', 'e1', 'e2'], 4.864817652223616, 71)}"
243,48,627,0,20.92089999999971,5.075822433579333,123.69695842002176,10.29167416980793,23.927656419218422,35.5710185290319,37.261131204805096,44.02298639017144,83.18087630964139,59.31453192806836,56.68001717496952,54.142105958179854,60.909869202952336,13.535526489544964,25.37911216789678,1.6919408111931489,5.075822433579333,22.060209211581387,21.995230545510594,22.84120095110717,57.525987580566095,45.68240190221428,56.064291238022186,"{'happy': (['m1', 'm3', 'm12', 'e1', 'e2'], 4.864817652223616, 71)}"
244,48,628,0,20.95426666666637,3.763116594172464,126.4989428671647,10.236783875314002,23.800039076721283,38.85315375928264,38.85315375928287,43.75583946150152,81.0600121923265,57.31808430425826,55.53625777805962,52.17042397332864,60.58500848515587,12.621876767740789,24.402295084298885,2.52437535354818,4.207292255913671,21.94255183531397,21.94255183531393,21.87791973075076,57.21917468042494,43.75583946150141,55.7652742456583,"{'happy': (['m1', 'm3', 'm12', 'e1', 'e2'], 4.864817652223616, 71)}"
245,48,629,0,20.98763333333304,7.00184208717154,129.34191417279416,10.189176882107176,25.698370866806155,37.39889068631539,40.79207127263365,42.48885402367554,85.18108538182507,59.53382583837729,56.040472851589584,50.945884410536,59.43686514562535,12.736471102633914,29.71843257281273,0.8490980735089124,4.245490367544676,22.14176881228946,22.07654991123229,22.925647984741204,57.738668998607466,44.153099822464526,54.44831051604106,"{'happy': (['m1', 'm3', 'm12', 'e1', 'e2'], 4.864817652223616, 71)}"
246,48,630,0,21.020999999999702,7.031625539346405,126.4888070492114,10.232518171240711,29.192082945246923,35.97586788217427,37.67395243876093,42.66958714162028,88.94380943097691,59.78706246276256,56.278849941824205,54.57343024661748,63.10052872265146,16.201487104464604,29.844844666118888,0.852709847603478,5.968968933223891,24.11827662499641,23.875875732895167,23.023165885291803,56.27884994182432,44.34091207537671,56.51092865814163,"{'happy': (['m1', 'm3', 'm12', 'e1', 'e2'], 4.864817652223616, 71)}"
247,48,631,0,21.05436666666637,7.592306438201387,122.6574643079488,10.18614798109661,27.37445016197061,34.12317342278405,35.69191626740386,44.17261042993865,88.68710910659243,61.32873215397441,57.72150522621405,56.02381389603124,66.20996187712785,16.976913301827608,27.16306128292433,3.395382660365499,6.790765320730998,23.82823331591775,25.46536995274147,24.616524287650066,56.0238138960313,44.13997458475194,56.25484091285249,"{'happy': (['m1', 'm3', 'm12', 'e1', 'e2'], 4.864817652223616, 71)}"
248,48,632,0,21.08773333333304,8.69336125615729,126.57725050407804,10.229450465505693,22.229286026208555,35.96508232827802,37.6626577996478,46.03252709477522,87.01716242474133,64.80894873778936,60.5242485875749,57.96688597119851,68.19633643670409,17.04908410917608,23.868717752846464,1.7049084109175965,6.819633643670386,20.45890093101121,22.2292860262085,22.16380934192881,56.26197756028091,40.917801862022486,59.89059574748026,"{'happy': (['m1', 'm3', 'm12', 'e1', 'e2'], 4.864817652223616, 71)}"
249,48,633,0,21.121099999999704,8.450033747389739,125.61878260585618,10.279909731675367,20.559819463350923,33.968715262216136,33.96871526221592,45.66146793189105,84.77030729102572,64.30914269084026,59.99523960646661,54.0802159832939,65.91026322963944,14.36505737056234,24.50509786743009,0.8450033747388943,4.225016873694813,20.35037611263583,21.970087743213128,21.97008774321307,54.08021598329384,40.5601619874704,54.18573845628413,"{'happy': (['m1', 'm3', 'm12', 'e1', 'e2'], 4.864817652223616, 71)}"
250,48,634,0,21.15446666666637,8.349511690478607,113.99453493700211,11.807992671867554,20.31523874285204,31.9034393734249,33.56462159456194,43.4174607904888,83.64527309605063,63.47825744405382,59.28153300239808,55.10677715715883,65.1261911857332,16.699023380957215,23.37863273334005,0.0,5.009707014287187,21.772862677934327,23.378632733340112,23.378632733340112,56.77667949525454,43.41746079048875,55.334022563137054,"{'happy': (['m1', 'm3', 'm12', 'e1', 'e2'], 4.864817652223616, 71)}"
251,48,635,0,21.187833333333035,10.090716178170169,116.34750852062102,10.229905045408051,18.575933851643647,31.998161484423,32.13047698264443,43.75876685912869,82.56182072678924,63.99632296884599,58.86251103932614,55.49893897993604,63.90786912841122,15.97696728210292,22.70411140088288,0.8408930148474383,5.886251103932636,23.604991785350087,23.54500441573049,23.54500441573049,55.4989389799361,38.68107868298574,57.402882774945546,"{'happy': (['m1', 'm3', 'm12', 'e1', 'e2'], 4.864817652223616, 71)}"
252,48,636,0,21.2211999999997,8.47998304005091,122.53502136399278,11.871976256071209,20.42250356066545,33.962305608530166,34.089109928690284,45.82330499755419,86.56231112825701,66.16560768593784,61.9038761923714,57.66388467234594,67.83986432040706,16.95996608010182,23.74395251214241,1.1368683772161605e-13,6.783986432040706,20.42250356066545,22.047955904132323,22.047955904132323,57.66388467234594,42.399915200254384,61.267510681996505,"{'happy': (['m1', 'm3', 'm12', 'e1', 'e2'], 4.864817652223616, 71)}"
253,48,637,0,21.254566666666367,6.786365889813851,119.19687107490452,11.876140307174296,20.639926075726795,33.9742177597237,35.78963631917498,45.93347127843205,85.1005953151621,64.55970848860649,61.07729300832489,57.68411006341796,67.86365889813874,16.96591472453474,22.05568914189496,1.6965914724535196,6.786365889813965,22.120846415729897,23.75228061434853,23.75228061434848,57.684110063417904,44.11137828379015,57.90822357341095,"{'happy': (['m1', 'm3', 'm12', 'e1', 'e2'], 4.864817652223616, 71)}"
254,48,638,0,21.28793333333304,10.013482077142385,117.4066243112052,10.013482077142498,18.659022179971817,31.75324831937556,33.54474980320148,46.75937555951365,85.26172757996873,66.77740534336473,61.74980614237836,56.74306510380711,68.42546086047321,15.85467995547549,22.53033467357045,0.8344568397618559,5.841197878332991,23.424319741055168,23.364791513332307,22.53033467357045,56.743065103807,41.72284198809342,56.84115171997901,"{'happy': (['m1', 'm3', 'm12', 'e1', 'e2'], 4.864817652223616, 71)}"
255,48,639,0,21.3212999999997,6.968076336104294,120.4181694057316,11.950152328068835,20.559819463350923,32.15457134542008,32.28753361357217,45.661467931891046,84.65230143665299,64.24248956252404,60.84024298120573,57.460229482249815,67.60026997911734,16.90006749477925,21.970087743213185,0.0,5.070020248433707,23.720375085911893,23.66009449269103,22.81509111795208,59.15023623172766,43.940175486426256,57.68347317449179,"{'happy': (['m1', 'm3', 'm12', 'e1', 'e2'], 4.864817652223616, 71)}"
256,48,640,0,21.354666666666365,6.727144118780075,116.48113660890496,11.892023061021632,21.927807059648146,32.13047698264443,31.998161484423,45.43935631437232,85.91935225348224,63.996322968846,60.54429706902124,55.49893897993604,65.58965515810621,15.136074267255252,25.226790445425536,0.0,3.3635720593899805,23.604991785350045,25.226790445425536,24.385897430577984,57.180725009631146,38.68107868298574,57.27956816898831,"{'happy': (['m1', 'm3', 'm12', 'e1', 'e2'], 4.864817652223616, 71)}"
257,48,641,0,21.38803333333303,11.887373029125117,122.6939371059378,13.58556917614294,20.44898951765625,35.82348696619464,35.82348696619464,44.18574537207965,90.06845586823619,69.64674865778963,63.68235551316991,57.73866899860741,67.9278458807147,18.680157617196528,27.17113835228588,3.396392294035764,5.094588441053588,23.835318757843908,25.472942205268,24.623844131759085,57.738668998607466,44.153099822464526,56.27156856542624,"{'happy': (['m1', 'm3', 'm12', 'e1', 'e2'], 4.864817652223616, 71)}"
258,48,642,0,21.421399999999696,13.756221891013638,127.53518249708333,12.15889722830313,22.419898709599217,36.15100041750684,37.98560925469485,44.70772114579404,92.91816215150182,70.5216039241583,63.622526245937706,58.46394303680768,67.06158171869106,18.05504123195533,30.091735386592177,4.298819340941691,6.018347077318481,22.419898709599217,24.07338830927376,23.21362444108541,56.744415300430944,42.98819340941736,55.26616715642866,"{'happy': (['m1', 'm3', 'm12', 'e1', 'e2'], 4.864817652223616, 71)}"
259,48,643,0,21.45476666666636,8.428022055538918,123.46405091342302,10.253131352791796,21.977592662228066,33.8802293560919,35.55786400617957,47.19692351101787,87.71623635827171,65.76017879534261,61.52456100543407,55.62494556655668,65.73857203320347,13.4848352888622,26.969670577724514,1.6856044111077608,3.3712088222155216,21.97759266222812,23.598461755508936,22.755659549955,57.31054997766455,43.82571468880229,54.04458875046512,"{'happy': (['m1', 'm3', 'm12', 'e1', 'e2'], 4.864817652223616, 71)}"
260,48,644,0,21.488133333333028,5.284702941572011,122.28122016779696,11.816955018248098,18.45867382029513,36.80369724989594,35.13433313704934,45.121584742449954,80.37267012042464,61.92355040939257,59.3265280872954,56.819773379381445,65.17562240576115,15.87611315012134,19.21845276067313,2.506754707913842,5.849094318465745,21.789388428113764,23.396377273862925,24.23196217650093,58.49094318465745,40.10807532662227,55.376021460885525,{}
261,48,645,0,21.52149999999969,6.711088223025172,121.21830534626532,11.863639979105756,20.203050891044168,33.59735923404949,35.27313750456435,45.330904710649605,83.90537883093573,63.755338118739246,60.39979400722666,55.36647783995773,65.43311017449548,15.09994850180658,23.48880878058821,1.1368683772161605e-13,5.033316167268822,25.2224445695364,25.166580836344394,24.32769480846622,58.72202195147037,43.62207344966368,53.92412632970726,{}
262,48,646,0,21.55486666666636,8.622612271184561,120.49132093849808,11.837233753938564,20.362738542760457,35.551941162840926,35.67238851351377,45.65790162233429,86.30899262305472,65.97197869641185,61.72271885982241,55.804101982853126,65.95030234337185,15.21930054077825,25.36550090129674,1.6910333934197297,5.073100180259416,22.24207164846225,23.67446750787707,23.67446750787701,59.18616876969264,43.96686822891456,60.9006842091787,{}
263,48,647,0,21.588233333333022,6.935315575687582,128.59588114059082,10.402973363531489,20.878064609603577,32.9883445066623,34.849529464441545,46.84547707496297,85.02835487837763,64.1750949181682,60.6840112872668,57.21635349942301,65.88549796903249,14.737545598336284,23.40669006794576,0.8669144469610046,4.334572234804796,26.23759217322062,26.007433408828604,26.00743340882866,58.950182393344846,45.079551241969625,64.24532119661407,{}
264,48,648,0,21.62159999999969,6.854668052812932,121.64692941356022,11.755658726789596,21.866789244618733,34.95208616049394,36.612791035063495,44.91830892487906,84.93412583678517,63.19691685289338,59.85004322179975,54.86253961998307,63.17504562301088,14.1312602051471,25.76876860938603,0.8312506003028375,4.156253001513846,21.67636365127996,24.99287327810397,24.10626740878041,59.85004322179975,44.88753241634981,63.26248517437144,{}
265,48,649,0,21.65496666666636,8.560934754434925,121.99857685176856,11.985308656208872,22.324186576757835,32.57657845804446,34.41453179304062,44.64837315351591,87.47247935205534,65.15315691608903,60.782636756487705,54.78998242838327,65.06310413370522,15.40968255798282,27.394991214191577,1.7121869508869167,5.136560852660978,24.0316890478627,27.394991214191634,26.53889773874812,59.92654328104419,44.51686072306137,65.15315691608892,{}
266,48,650,0,21.688333333333023,8.666132753045645,125.0928571194665,8.837756003033205,24.32699390224948,34.707834628082466,36.56245413949583,46.82920265483511,88.54735377001485,64.22300195869202,59.79631599601544,57.19647617010162,65.86260892314738,14.732425680177698,26.86501153444169,0.866613275304644,6.06629292713194,26.05610842617221,27.73162480974628,26.86501153444175,60.66292927132002,46.797116866446856,60.68768459953732,{}
267,48,651,0,21.72169999999969,8.650953024635344,119.19687107490452,10.17954883472089,18.73946531192988,34.1010665560233,34.10106655602331,44.11137828379015,81.50705133373081,62.79680720729768,58.53240579964472,54.29092711851104,64.47047595323181,15.269323252081335,22.05568914189508,1.1368683772161605e-13,5.089774417360445,22.315176764290232,22.05568914189508,22.903984878121832,59.38070153587137,40.71819533888322,61.45315682058328,{}
268,48,652,0,21.755066666666355,7.059527649311326,121.86634206438714,10.273121705321842,25.73981388786644,37.707006180178375,39.52890530361057,44.64837315351591,87.58970106741582,61.85238331703871,58.214356330157216,54.78998242838327,63.35091718281819,14.553589082539249,28.25108468963515,2.568280426330375,5.992654328104322,24.031689047862685,25.68280426330466,25.68280426330466,56.50216937927024,42.8046737721744,55.03023198111787,{}
269,48,653,0,21.78843333333302,3.827339403229444,121.82728537849002,10.26982929430153,25.73156458942169,34.40350235262455,36.10704771604357,44.634063890953854,84.1492596942583,58.42180046395784,56.48406111865813,53.06078468722433,61.61897576580884,12.837286617876885,26.530392343612107,2.567457323575354,4.279095539292257,24.206219785429404,25.73156458942177,25.674573235753712,58.19569933437498,44.5025936086397,56.897490687730354,{}
270,48,654,0,21.821799999999687,3.409816821835193,123.0490406310346,10.370552999519836,24.11104597323638,37.66265779964802,39.3608671597334,44.327618683857736,81.99528310266074,57.991952733871166,56.26197756028091,51.14725232752812,59.6717943821161,11.081904670964375,26.42608036922286,0.8524542054587982,2.5573626163763947,23.92952987115843,25.630393439305127,25.57362616376406,57.96688597119851,42.62271027294008,56.67378161043635,{}
271,48,655,0,21.85516666666636,5.474625745135748,126.67578925034158,10.387372014975313,26.198243632523248,38.24409130840989,39.96851750725644,45.04522595389912,86.83798826322897,60.69185014776996,57.99616041694526,53.66808874403898,62.32423208985165,12.984215018719055,28.56527304118208,0.8656143345812097,4.328071672906276,24.298952299868244,24.237201368275635,24.237201368275635,57.13054608236399,41.54948805990108,55.64223884957386,{}
