,video_id,frame_seq,time_seconds,m1,m3,m4,m5,m6,m7,m8,m9,m10,m11,m12,m13,m14,m15,m16,m17,e1,e2,e3,b1,b2,b3,label_measures
0,23,0,0.0,0.7096661947546181,39.842558807698126,5.677329558036604,7.838519322757823,9.252915127470068,10.668622235457656,7.237203550381469,19.98438149220809,12.147528540299438,12.419158408205078,10.644992921318646,13.483657700336948,4.967663363281986,7.806328142300344,0.0,0.7096661947546181,3.618601775190701,4.316730938472448,3.903164071150144,20.580319647882675,13.48365770033692,14.35211058216779,"{'happy': ['m3', 'm12', 'e1', 'e2']}"
1,23,1,0.0333333333333333,0.0,40.32665346798908,5.645996147791095,7.092694880328455,9.201847916611088,9.880493258634374,7.197261132814105,19.874086886725447,12.78166740167213,12.70349133252995,10.586242777108282,13.4092408510038,4.940246629317187,7.763244703212706,0.0,0.7057495184739082,3.598630566407058,4.234497110843307,4.234497110843336,20.466736035742656,13.4092408510038,14.272900706439524,"{'happy': ['m3', 'm12', 'e1', 'e2']}"
2,23,2,0.0666666666666666,0.7046973120665712,40.96952842689637,4.932881184465771,7.783636219616462,9.188128823528068,10.593923549339053,7.186530690807371,19.14391669971824,11.362902728827237,11.627505649097884,9.86576236893154,12.684551617197712,4.2281838723992,7.7516704327319985,0.0,0.7046973120665712,4.456897134257466,4.286506405040205,3.8758352163659424,19.731524737863168,11.979854305131198,14.25162114877556,"{'happy': ['m3', 'm12', 'e1', 'e2']}"
3,23,3,0.0999999999999999,0.69923231472211,40.70589192863809,4.8946262030546,7.027197793225318,10.511766624552749,11.209546748087538,7.130798434605035,19.085327959297395,12.070621248534652,11.886949350275358,9.090020091387032,12.586181664997412,3.845777730971463,8.041171619303896,0.3496161573610266,1.0488484720831366,3.7654812532525512,3.4961615736103795,3.4961615736103795,19.5785048122182,11.88694935027533,14.141098417386214,"{'happy': ['m3', 'm12', 'e1', 'e2']}"
4,23,4,0.1333333333333332,0.0,41.758329494419776,4.986802437203351,6.501994888577247,11.305863104388097,12.009810638667217,6.386223110589195,17.855259879975904,11.371659177447496,11.283845823309091,8.46288436748182,11.989086187265912,3.878822001762501,7.405023821546536,0.3526201819784091,1.0578605459352275,3.153930788568251,3.596034377589094,3.526201819784092,19.746730190790856,12.6943265512227,14.960407311610052,"{'happy': ['m3', 'm12', 'e1', 'e2']}"
5,23,5,0.1666666666666665,0.6997970882623576,42.08102813028061,4.89857961783639,6.336932152762615,10.52025703257018,11.218600756702925,6.336932152762679,17.62044044981414,11.283888994159687,11.196753412197497,8.397565059148121,11.196753412197497,3.4989854413116745,7.697767970885764,0.6997970882623576,1.3995941765247153,3.129587719622053,3.498985441311703,2.7991883530493453,19.59431847134553,11.896550500459796,14.844937996947076,"{'happy': ['m3', 'm12', 'e1', 'e2']}"
6,23,6,0.1999999999999998,0.0,43.14298770795986,4.9102269667384695,6.978743748488615,11.132254505063788,11.825392484663585,5.598520119134323,17.484821131677364,10.508344598516798,10.416164356037513,7.638520527760846,10.416164356037513,3.472054785345847,8.332931484829942,1.3888219141383047,1.3888219141383047,2.19592025651596,2.863129723582428,2.7776438282766662,19.443506797936635,12.49939722724497,14.730680900215402,"{'happy': ['m3', 'm12', 'e1', 'e2']}"
7,23,7,0.2333333333333331,0.7012926216420396,42.92231685290356,4.909048351494107,7.047903621512008,10.54273982911052,11.242575980644649,5.7830071069926685,18.354584405568183,11.308003745315872,10.870035635451243,7.714218838062152,11.220681946272236,3.857109419031076,8.766157770525183,1.7532315541050707,1.051938932463031,3.5759047624912794,3.5759047624912625,3.506463108210028,19.63619340597637,12.62326718955623,15.57122317599288,"{'happy': ['m3', 'm12', 'e1', 'e2']}"
8,23,8,0.2666666666666664,0.0,44.551748512960565,4.940246629317187,6.3908337008360405,11.314025472231906,12.018481227658295,5.819759619793273,17.06980357102214,10.679928167697652,10.586242777108282,7.763244703212706,10.586242777108282,3.528747592369428,7.763244703212706,0.7057495184738514,1.4114990369477596,2.909879809896602,3.528747592369399,2.822998073895519,19.055236998794868,13.4092408510038,15.59051643850026,"{'happy': ['m3', 'm12', 'e1', 'e2']}"
9,23,9,0.2999999999999997,0.6984643680332283,43.327316068382615,4.8892505762324845,6.324863857806519,10.476965520498254,11.175429888531482,5.6311997630862605,17.517397231785687,11.197235626121932,10.82619770451484,9.080036784431826,10.476965520498226,4.190786208199313,7.683108048365341,0.6984643680331715,0.6984643680331715,2.8798423651312324,2.7938574721328564,2.7938574721328564,18.85853793689685,13.96928736066434,15.429582205136828,"{'happy': ['m3', 'm12', 'e1', 'e2']}"
10,23,10,0.333333333333333,0.6890654994433589,43.416594894313086,4.872428873381027,6.925022564211472,11.02504799109397,11.734362621451227,6.2015894949903725,17.928949348140016,11.02504799109397,11.02504799109397,9.646916992207252,10.335982491650611,3.78986024693856,7.924253243598798,1.0335982491650384,1.0335982491650384,2.841089837174011,2.756261997773493,2.756261997773493,17.91570298552776,13.781309988867491,16.55192129258277,"{'happy': ['m3', 'm12', 'e1', 'e2']}"
11,23,11,0.3666666666666663,0.6941766810087984,43.73313090355646,4.859236767061816,6.247590129079526,11.128498774107188,11.82140290711584,6.286037200448948,18.0619383244714,11.821402907115813,11.453915236645711,9.71847353412366,9.71847353412366,3.4708834050441624,8.330120172105978,2.082530043026452,0.6941766810087984,2.776706724035336,3.4708834050441624,3.1237950645397348,17.354417025220783,14.577710301185476,15.98114733559242,"{'happy': ['m3', 'm12', 'e1', 'e2']}"
12,23,12,0.3999999999999997,0.0,43.46913042728869,4.8274714051366345,6.930783883734385,10.344581582435636,11.055750561128564,5.517110177299003,17.254756566801724,10.344581582435636,10.344581582435636,10.344581582435636,8.9653040381109,4.137832632974266,7.5860264937861075,1.3792775443247365,0.6896387721623682,2.7585550886495014,3.51648155658614,3.103374474730714,16.55133053189698,15.172052987572243,14.482414215409904,"{'happy': ['m3', 'm12', 'e1', 'e2']}"
13,23,13,0.433333333333333,1.5309789330787218,43.2213547374916,4.79272215307779,6.1620713396714,10.292916083773044,11.659588184185084,6.1620713396714,18.498888832994925,12.343146765695757,11.63946808604598,10.95479349274919,8.216095119561885,3.423372966484152,8.900769712858676,2.738698373187276,0.6846745932967906,2.8229856673396188,2.738698373187276,2.738698373187276,15.747515645826924,16.43219023912374,15.062841052530077,"{'happy': ['m3', 'm12', 'e1', 'e2']}"
14,23,14,0.4666666666666663,1.550993535705077,44.52729294686407,4.855377769899008,6.970848954434293,11.184373441795591,11.872954288677043,6.242628561298687,19.47099271668261,12.504509650799148,11.791631726897576,11.79163172689752,8.32350474839825,3.814939676349184,9.363942841948074,3.121314280649358,0.3468126978499413,2.859890771081352,2.859890771081337,3.121314280649358,15.259758705396791,16.6470094967965,15.259758705396791,"{'happy': ['m3', 'm12', 'e1', 'e2']}"
15,23,15,0.4999999999999996,1.5514787986130467,43.800090304118655,5.550739294957509,7.632266530566596,11.123140032151474,11.876669007140856,5.550739294957509,20.133389190414587,12.508421965438847,11.795321001784714,11.795321001784714,9.01995135430596,4.856896883087813,9.713793766175684,2.0815272356090877,0.0,3.537915997481805,2.860785551672027,2.7753696474787546,15.958375473002832,16.652217884872528,15.973451882102612,"{'happy': ['m3', 'm12', 'e1', 'e2']}"
16,23,16,0.533333333333333,4.818313716144331,43.45214258420148,4.867231860814021,6.917636221541663,11.0347778578812,12.46619611887351,5.506644247022109,22.069555715762405,15.158907482835108,12.73411482123862,11.701619024921968,8.948296901410913,4.818313716144331,11.701619024921996,5.506644247022081,0.6883305308777494,3.441652654388804,3.509810808747409,3.0974873889499577,15.83160221018855,16.5199327410663,15.158907482835104,"{'happy': ['m3', 'm12', 'e1', 'e2']}"
17,23,17,0.5666666666666663,4.161752374199125,44.47864399315482,5.549003165598833,7.6613429061942835,11.812014856591372,12.562090199310289,6.242628561298687,23.593461622251745,15.953384101096646,13.872507913997111,13.178882518297227,10.404380935497812,5.549003165598833,11.791631726897547,4.855377769899008,0.6936253956998542,3.536809427797068,3.536809427797079,3.121314280649329,15.953384101096646,17.340634892496354,15.275514784664146,"{'happy': ['m3', 'm12', 'e1', 'e2']}"
18,23,18,0.5999999999999996,6.235609826739293,44.15689828098589,4.820255364218951,6.886079091741351,11.72657013995911,12.414055626086991,6.197471182567199,24.11111207015579,17.228964383076217,14.11646213806975,13.772158183482674,11.01772654678615,6.197471182567227,11.706334455960246,4.820255364218895,2.065823727522428,2.754431636696524,3.511225166093246,3.0987355912835994,15.14937400183095,16.526589820179225,14.477152235129372,"{'happy': ['m3', 'm12', 'e1', 'e2']}"
19,23,19,0.633333333333333,6.199676400645046,44.13499613286604,4.821970533835042,6.922886301964596,11.730742752255631,13.10632090701151,6.199676400645046,24.119691417868424,17.221323335125135,14.121485134802612,13.777058668100125,11.71049986788509,6.544102867347561,11.366073401182604,4.477544067132527,2.410985266917521,3.4442646670250383,4.190128812201993,3.7886911337275535,15.84361746831513,17.221323335125135,15.858585461703791,"{'happy': ['m3', 'm12', 'e1', 'e2']}"
20,23,20,0.6666666666666663,6.193028459221367,43.13487451516152,4.787339086437413,6.873166053546629,11.646492423949075,12.329283249416404,6.155150253990939,23.975743900938017,17.111312239222784,14.020064467423822,14.36201725931221,12.310300507981909,7.181008629656134,10.600536548539935,3.7614807107722186,3.077575126995498,3.4195279188838583,3.487247917132825,3.4195279188838583,16.413734010642543,17.78154517819607,15.061458131525914,"{'happy': ['m3', 'm12', 'e1', 'e2']}"
21,23,21,0.6999999999999996,5.4690707757156645,43.88588532209733,5.469070775715693,6.870435132381214,10.959484286948236,12.324384444365323,6.152704622680147,23.936948849281386,17.090846174111505,14.356310786253689,14.356310786253658,10.938141551431356,6.49452154616236,11.2799584749136,5.12725385223348,1.7090846174111505,2.7345353878578464,3.48586232582428,3.0763523113400595,16.40721232714705,17.774480021075988,15.039944633218113,"{'happy': ['m3', 'm12', 'e1', 'e2']}"
