,frame_seq,video_id,gap,time_seconds,m1,m3,m4,m5,m6,m7,m8,m9,m10,m11,m12,m13,m14,m15,m16,m17,e1,e2,e3,b1,b2,b3,m_0_16,m_1_15,m_2_14,m_3_13,label_measures
0,0,6,0,0.0,25.14700802477373,160.43539844834598,18.86025601858029,22.2270248760876,44.11938464301553,47.25530308321823,53.43739205264426,119.48964117001952,97.44465609599828,84.72639970631394,86.23117873510273,89.31414064774322,34.426408024484545,31.65541249586124,8.404741404698143,17.451766541196548,15.716880015483524,12.57350401238698,12.552059215750432,43.71199568993717,47.84096253722345,63.18107572307599,400.0,397.0744617871375,390.8039429881977,380.9844334308727,{}
1,1,6,0,0.04,37.73799493335342,163.652221790966,22.013830377789507,28.30349620001512,44.02766075557857,50.31732657780464,50.4155068205832,138.40838021301582,110.11406890852342,91.23103192909298,92.66632839995384,95.71633340053302,43.77654236125591,44.135366478971264,14.622082796895029,20.54268073919593,12.579331644451209,15.724164555564029,14.128699635036584,46.91625339126409,47.8133136855522,72.94385534700055,400.0,396.859970982435,384.4936045401196,371.74266266384586,{}
2,2,6,0,0.08,46.75955644614681,162.3693382515657,22.042666298897,24.9384301046116,46.8633513717452,49.97418100461152,49.974181004611744,143.53144405577515,118.621498152185,95.27980479248627,98.11714768256024,98.30020206256518,48.23482913125861,45.305959051182185,18.94612833049439,28.09884733073318,15.895192717723011,12.852972682299647,14.186714450370175,49.97384574130416,53.45187896139464,75.39751925298964,400.0000000000004,396.8904337451598,387.3492967334877,371.796469371495,{}
3,3,6,0,0.12,49.87686020922321,165.48156451138885,22.04266629889698,24.93843010461156,46.75955644614693,49.97418100461173,49.97418100461173,146.6458680925109,121.73460352635232,96.83595168046566,101.015788347411,101.43929602732167,51.25363595789611,45.39818194869508,19.030225529903305,27.99754031757891,15.586518815382233,15.895192717723011,15.65137077931081,56.41858831506869,56.52906857939331,78.4917031559274,400.0000000000005,393.7809898437768,387.562480881082,371.7964693714953,{}
4,4,6,0,0.16,50.20573059537514,166.7794490199098,22.188007849009093,25.102865297687583,47.17235174581383,53.43579900576599,50.205730595375165,147.51271131668622,122.41669066694358,97.27321936300837,100.99395223771536,99.20726367906887,49.99965043758493,47.27356892542343,20.602176833464227,29.590878035726742,15.689290811054793,12.937720641002166,14.293508469171456,54.26375766775652,53.21384789618082,78.69708234255431,399.9999999999998,393.7480647083086,387.4968982506133,374.9970256292302,{}
5,5,6,0,0.2,40.13679320278246,164.09998623121274,21.831537422130424,21.612119416882827,46.41448522268384,49.49551873391529,49.495518733915176,132.90368667379565,111.31943532717422,91.2884686343233,92.93646999173484,92.07194468948614,43.01013378687264,40.36252504873608,17.07437471941182,22.801854846809302,12.72986444989582,12.729864449895707,13.967486914455437,47.81905578063101,52.03361662909339,74.67534738253593,399.9999999999998,393.8520685378836,384.6317908556037,372.0468066427061,{}
6,6,6,0,0.24,31.11356956435268,171.57659676540706,18.66814173861169,22.000616025873303,49.87884644177351,49.87884644177374,52.98449973344915,124.60974899667576,102.7219105171356,87.13709339234106,90.82640231400376,89.45660939754475,37.157915847142704,34.454857825330464,11.113586528870089,20.026372438629664,15.55678478217634,12.828453370382952,14.17279070896177,47.39483490947913,49.65955919802457,72.16738636927853,400.00000000000034,393.52208596138496,387.3233288664917,377.5141599313767,{}
7,7,6,0,0.28,28.220758907784347,166.66154563098752,19.07335276231665,21.94947915049885,47.13900363148098,50.26813129879947,53.398022997812994,122.4506517296455,100.53626259759882,86.45426180221159,91.83560773508282,89.86395493950977,37.45235883700798,31.59166612356148,8.094629596503637,20.213963294062523,15.98868892879882,12.542559514570772,14.181429281919236,50.7745816254436,53.28889115374312,72.73062454916388,399.99999999999966,396.8783742225332,393.75697114583073,380.97701927447616,{}
8,8,6,0,0.32,28.00221260791736,168.4735868543498,18.92564551298726,24.89085565148232,46.77395126500381,52.98449973344917,52.98449973344917,124.60974899667576,99.75769288354758,85.78502711153374,87.98742048434656,86.29049444299892,34.155149683295804,37.45873974251526,14.13503287633216,17.04147003225762,15.864869834616163,12.828453370382936,12.618630881936385,50.61894276530734,53.03796499446253,69.08333562015204,400.00000000000017,394.1120375739581,391.01724014549166,374.92819577155177,{}
9,9,6,0,0.36,18.54900180636848,161.23292958691448,18.549001806368604,24.924472256099733,43.39127446801003,43.39127446801026,52.91796117254166,114.76088848382034,89.86646273324737,80.61464925043038,87.10710422361933,86.0250283947546,33.706662069139725,28.18807534192888,1.7854251176269145,16.772175347405096,15.763620361390268,15.763620361390211,14.09403767096444,50.7493563737608,51.885535994068846,71.37282677188645,400.0000000000003,393.83578361409855,387.6721654990897,372.0219543361573,{}
10,10,6,0,0.3999999999999999,9.274500903184238,154.85300011837114,18.549001806368604,18.804862193702093,43.39127446801003,43.28100421486003,52.91796117254166,99.3618007945768,80.61646479345747,75.98877508203316,81.15568716486268,82.7246971167167,29.0807879007424,17.39436894900234,2.840449050770076,12.146301179007764,15.763620361390268,12.7465822829051,12.552079614832053,47.66544026149603,48.80161988180407,71.37282677188645,400.00000000000006,397.1705675269694,387.67216549908994,378.4279240306665,{}
11,11,6,0,0.4399999999999999,6.1865122532478285,154.78648712371825,15.772573350195934,18.55953675974371,40.33112556118908,46.50183612575539,49.588668065178105,89.91750262233485,71.41336315277316,68.32479539909866,74.56565580250083,80.12110379165688,27.75920277698333,12.571906650784513,7.575610894303509,13.780396960113876,12.753821737159438,12.37302450649577,13.879601388491608,48.30353803558239,48.48390972354184,65.25230947544253,400.00000000000017,394.0594636622829,390.7432678874381,375.1011504931751,{}
12,12,6,0,0.4799999999999999,3.1398876686031945,154.1425830754933,15.699438343015764,19.099191059924703,43.95842736044385,44.07042353523372,50.33622855222337,88.14084707046777,69.14885297061258,67.56303962479217,79.35918603121092,80.6085092883759,29.648794689963097,8.156813439895132,12.158269089655164,12.466073370405866,15.699438343015782,12.559550674412602,12.529444839972257,48.3252720778695,49.86429348162335,63.11096106750614,400.0,397.1306289615853,390.8750301230576,381.2216741971631,{}
13,13,6,0,0.5199999999999999,3.0915003010614552,151.7671624845953,18.549001806368548,24.92447225609974,43.39127446801032,46.372504515921584,46.47544027968547,92.95088055937094,68.08323173924326,66.5290539994221,78.36760229805202,78.78015776906489,32.098609364239906,14.376661305078642,11.883391284609615,15.29145821906377,15.457501505307077,12.366001204245736,13.982043028457724,47.01338650107448,49.61427968789474,62.13838701665029,400.00000000000057,396.9178187652378,393.83578361409855,378.1879209837908,{}
14,14,6,0,0.5599999999999999,22.04266629889707,153.03389961250517,18.70382257845869,21.82112634153512,43.753443315975055,43.75344331597529,46.86335137174547,109.28361817462012,87.50688663195034,76.51673849300448,85.47216405575796,85.83181970084854,38.78886132301068,23.629375882446084,0.4675523386177929,21.849080439247928,15.895192717723075,12.852972682299685,14.197406589947605,47.36664845841926,50.06406579659813,59.55600477047697,400.0,397.3798179430768,391.1688356730661,378.4797053169098,{}
15,15,6,0,0.6,28.228386167222293,153.25598686468777,18.703822578458634,24.938430104611683,43.64225268307021,46.8633513717456,49.974181004611765,121.73460352635236,96.8373241833718,82.73833225891383,91.6343402788367,88.9964646901069,40.34130426212414,31.40891175132265,5.121117091223596,20.27525754233932,15.586518815382307,15.895192717723008,15.754484550619964,44.33450213609785,47.08153119746476,62.65703018434083,399.9999999999999,394.01535761264336,390.907903174194,375.1270662341486,{}
16,16,6,0,0.64,31.4172728595224,154.23289311202444,21.99209100166551,28.449550573292434,44.09624379515205,50.3657198618192,50.36571986181931,132.10206735655805,103.72459144211392,87.97490060298094,91.94246716641852,93.19252238503566,42.20295118505851,39.50355658253693,9.556581562617907,21.87596632580312,15.70863642976103,16.019728737457218,15.888382996049131,45.21938877780889,46.976712780792695,66.27480970162827,399.99999999999983,396.8661941563655,387.707477638941,374.9332657050641,{}
17,17,6,0,0.68,37.80925432826852,151.00868565666994,21.97921368022229,28.258989017428373,44.070423535233935,47.20286191690938,50.3362285522233,138.29770594122513,110.07534432518192,91.16306210741698,98.30664141661772,99.4606042281041,48.54886399753036,39.37211211571082,9.424029627138111,28.217138271343288,16.010348492696828,16.010348492696856,15.880726310454063,45.27930269831921,46.872870390371645,63.50029826482307,399.9999999999999,396.6338118171052,390.6101027721903,374.49002026599015,{}
18,18,6,0,0.7200000000000001,48.39389333291033,145.18167999873123,22.533797299287727,32.191138998982446,45.18241668173662,48.39389333291056,51.60632165959089,154.65153877538958,122.49563807397494,98.28401697153754,107.59052433423426,107.80950097806236,56.094516927312725,46.89749788653012,13.248086951603456,35.29173576363792,16.414324592059003,16.41432459205886,16.277263857892876,46.20407184774104,48.24785385680377,61.92089220280772,400.0,397.25743731564137,390.8407305846433,374.5394408418342,{}
19,19,6,0,0.7600000000000001,70.17579560894323,124.7700587784089,15.949044456578031,28.884948027917883,38.41038545304955,45.11070995476806,54.32048804368068,169.18019856545118,140.38783436664238,105.20261928352784,113.08909569374975,112.97749461247317,58.72076893177109,56.02374280091692,25.705449054072687,41.36680079324003,19.40285000290661,19.40285000290688,19.325587241086623,49.81128260984576,50.23908675473968,60.9412133005028,400.00000000000017,393.91234004219774,387.5584985845608,368.50231839779104,{}
20,20,6,0,0.8000000000000002,86.1838903570425,118.19522531709303,15.949044456577944,25.51847113052484,35.23259078041493,41.59001959280272,57.50509758284665,185.11887642856647,159.61798592527904,116.364102541904,115.29928413688094,120.00690234856188,60.19026142077621,67.13960259040016,39.9400307006888,45.6937862927432,19.40285000290676,15.949044456578058,16.028319149294248,48.570664088770286,48.49593999017213,58.2085500087198,400.0,391.034663563357,387.860299699094,365.6472798030164,{}
21,21,6,0,0.8400000000000002,66.98598671762763,111.82543743652246,16.264897781449974,25.71706144960088,35.08789780447161,38.41038545304965,60.606368934996354,169.18019856545115,143.57683805570147,109.89948786165996,115.66190220253736,119.17763297494857,57.05072207958381,51.54211717949556,24.43150876336108,39.47206821752718,16.264897781449974,19.40285000290664,19.345919597921124,44.82086717341491,46.11811542633683,57.76989605583563,400.00000000000034,397.0895707343741,387.8602996990938,365.6472798030157,{}
22,22,6,0,0.8800000000000002,29.151947886441008,120.24019676477914,16.516261236911426,29.331346182070494,35.77708763999689,35.77708763999644,64.78210641431323,139.43210346046513,110.17720450911172,95.44285949073289,107.18101863438676,108.60609865821698,43.38993651504052,31.389262630154576,3.787712694916991,25.46392989949232,16.51626123691156,16.195526603578365,16.12590553281541,42.45238386778374,42.90240913846685,59.108125429616805,400.0,393.8544292951516,387.7467485145513,368.4331022311543,{}
23,23,6,0,0.9200000000000004,26.561536657950235,119.01502003911996,19.767318897902467,29.65097834685366,33.10984938115841,39.67167334637317,62.683148652771386,138.5280269331105,108.91974081068776,95.59113661736204,106.07752791857229,107.1584036946465,43.98405899305124,31.772058996705027,0.4266614905554888,26.06427638971718,16.47276574825204,19.767318897902424,19.68331676429716,46.40180743953295,43.690136632890585,60.11995335830856,400.0,397.00390715924703,394.0401260293679,374.3778050668428,{}
24,24,6,0,0.9600000000000004,64.86723405473593,133.3333333333335,16.53796461189454,25.94689362189427,42.28826282684762,45.52275081266077,58.47053462046863,165.53858863147653,139.61532575167698,107.21238031216252,111.40848424538537,111.96668155760312,53.23085058407276,53.73130334675068,26.110160483563504,35.310792043565925,10.25641025641038,12.973446810947248,12.934779096907278,44.07833948202011,44.73277771013738,59.18579711283488,400.00000000000006,397.0171491252484,393.7847174304614,374.3940974039791,{}
25,25,6,0,1.0000000000000002,97.35489210325562,143.29640366418877,16.216808513683937,25.946893621894382,42.2882628268476,48.75841773950674,58.47053462046868,197.95137503198745,172.02051771267116,123.23122388029822,120.20796132869089,118.9910506160944,61.14976330798322,78.11045636479935,47.15529011312128,46.35669245797988,12.97344681094725,12.973446810947136,12.929676321339684,47.83980238895708,47.49754625103907,55.989103852127634,399.9999999999997,397.0171491252482,387.6054712138676,367.93218939021966,{}
26,26,6,0,1.0400000000000005,107.88457576100916,144.37301157384775,19.6063774668652,29.40956620029786,42.60598104643292,49.44972153569036,49.1247472276061,205.97067472523835,176.57838274716372,122.60176367938618,119.3026339365748,115.48861111251551,68.27100855066135,88.46625940405556,57.648954985656246,47.23667267597432,13.070918311243434,13.070918311243515,13.043958058282897,46.054325600516,49.56322659865066,53.194783553751314,400.00000000000006,394.0833098454845,384.677148106687,368.44284967374193,{}
27,27,6,0,1.0800000000000003,104.63370630835747,144.01989690656706,16.349016610680835,26.158426577089354,42.63301936441938,49.155922440661385,52.41893491593801,199.48480251642,173.33042052946786,120.91482035934176,112.38840851194846,115.9363114283135,61.74495559286788,85.03522151158631,54.07690735427264,47.32444696506184,13.079213288544734,13.079213288544716,13.161575334902407,43.43319860517767,45.55049550687926,59.21865681580796,400.0,396.9950610732314,387.2198231582536,364.7260046524829,{}
28,28,6,0,1.1200000000000003,94.05466561233791,142.94998062171166,16.206689151752865,22.689364812453764,42.26187475939079,48.727992266092166,51.96259836775508,184.8699524984837,162.19649321078404,115.14130542948658,115.2840072043723,114.78930771810155,63.07418449950399,69.75262756415725,42.41096749604651,48.670818687701626,13.36437824284567,12.9653513214022,12.938294256308495,42.48707510931888,45.68359486675985,58.703124833278046,400.00000000000006,396.7694086267701,387.67538696730975,367.7025980382933,{}
29,29,6,0,1.1600000000000004,75.10516896014431,150.52944439142271,16.65055313475904,26.12353702961545,49.09035932720043,52.34901966652891,52.34901966652914,169.92853820739148,143.82780626168446,106.32713568647262,109.71092171683564,108.70055180354416,56.85713710173104,60.68891733893065,33.08484876447744,39.03268674460833,13.463762810979825,13.06176851480777,14.76474524234402,42.14958260919616,46.62952467756384,59.5887270759755,400.0,397.0568162050637,390.5583456960934,373.9893634655113,{}
30,30,6,0,1.2000000000000004,62.68314865277155,161.735382333768,16.472765748251874,26.356425197203183,49.52799393299663,52.81570483444254,56.10421848847648,161.56751993012296,135.23729355522937,103.8822465225877,103.4521516570511,103.89180418626644,47.56849212833913,57.85253824650147,29.86769899559181,32.73499809916848,13.178212598601664,13.583790625219883,13.256479522203447,46.60316809680177,46.71786006094476,62.942349546176224,400.0,397.0039071592473,390.76233678951,377.3234333296368,{}
31,31,6,0,1.2400000000000004,52.71285039440639,161.73538233376792,16.798990798635987,26.3564251972032,49.52799393299612,49.52799393299657,59.30195669370717,154.8790425056784,128.52980375709066,102.15019275167548,107.04544721525258,106.5482729337956,47.5948764056385,47.97731816060525,23.615778369209806,32.90911301490712,13.583790625219976,13.17821259860157,13.155996370863477,42.68049985431298,43.980801821200544,63.37199514511413,399.9999999999998,397.0039071592475,390.1507712579078,380.3033290341885,{}
32,32,6,0,1.2800000000000005,66.47995399256372,163.18086684471228,16.61998849814083,20.219088658095927,46.65453096222588,49.9706425795403,56.897675586882336,159.86321063834458,139.76609935965143,106.574618679673,111.67824663174054,111.23192175380314,54.655392117862334,48.40684382673783,26.94443882678911,40.023698293304165,16.619988498140945,13.295990798512728,13.370340908648018,42.90540457042209,47.46568049717428,60.65726597428717,400.0,396.685389686834,393.6376823385177,376.8012010154233,{}
33,33,6,0,1.3200000000000005,79.82281262852878,160.19899130194074,19.95570315713205,26.81467040022253,46.68194018914607,53.62934080044454,53.31904307076701,179.72446955201235,153.02987157061966,113.0847235417658,118.2196734328736,114.20437426990212,62.89348400462154,63.47261369158855,35.36551955078767,44.94046370864305,13.303802104754856,16.629752630943408,16.601717693055434,42.70116225237052,44.2068994384847,66.85077822039588,399.9999999999999,400.0000000000001,393.6020406091431,376.7730943177469,{}
34,34,6,0,1.3600000000000003,79.77594479107657,156.54582347805447,20.219088658095625,26.591981597025526,46.53596779479476,49.97064257953994,56.605641106418986,182.94070619167107,156.36927461904523,116.52964991438272,121.66158482783068,120.77410736159538,64.6122181396139,61.67968390335784,33.78202268213306,43.15841504279388,16.61998849814096,16.61998849814096,15.029237960811995,46.18741422103187,47.69226731595256,63.93837237246041,399.99999999999983,400.26232679760847,393.6376823385176,376.8012010154231,{}
35,35,6,0,1.4000000000000006,47.46956944060843,155.7220491496433,16.91033393419788,23.67446750787706,44.09675586264151,47.34893501575436,60.971076084969326,148.96458960520857,125.31915219005197,101.58617523530609,103.8050565557354,105.92746477527636,43.89526090414449,44.088207105921015,19.10167397586952,29.03840336735709,13.528267147358257,13.528267147358342,15.1945133898962,43.31642229881516,45.05293811480328,61.25183463547031,399.9999999999999,400.2429916785064,396.8708027637711,383.1301032391044,{}
36,36,6,0,1.4400000000000006,3.355544111512648,161.2058710598974,20.13326466907545,20.13326466907548,40.26652933815072,43.62207344966336,57.04424989571413,100.6663233453777,80.53305867630222,78.75001362551313,86.31879703339439,87.93655226561327,30.15957968636656,13.404257638385277,11.093178735215249,9.01320772236238,13.835262803185657,13.422176446050432,13.490923097254154,39.05723346357058,45.239369529550174,60.7714885555112,399.9999999999999,396.8631399675256,396.6502952483704,386.4124314850556,{}
37,37,6,0,1.4800000000000006,3.2985834594823014,158.46938743115376,19.79150075689396,23.09008421637623,43.00826644563722,43.00826644563767,56.17285219177859,102.30927636965224,79.234693715577,77.5766458717494,80.96638695228762,83.67817981671851,26.14943119272448,19.95104750259725,4.261388786962471,8.522777573925055,13.194333837929152,13.194333837929266,13.171565341520475,42.42018837930885,43.776084811524015,60.19349961120125,399.9999999999998,396.7086622015705,396.7086622015708,383.3317317846201,{}
38,38,6,0,1.520000000000001,19.79150075689388,141.992428357933,19.791500756893857,29.68725113534097,36.43404515530492,43.00826644563732,56.07591881119942,125.34617146032814,95.65892032498716,85.6418143298248,91.6644180230238,92.61945873812658,36.14536747261275,33.0268671783997,2.5045455487897925,18.623293944503416,13.194333837929156,13.600408018361014,13.263371563824876,41.846375822970856,44.49710107305202,60.19349961120172,400.00000000000006,396.941725904478,390.3633474246532,380.2538567585275,{}
39,39,6,0,1.5600000000000007,39.91140631426427,139.84821101427752,19.955703157132223,26.607604209509542,39.91140631426449,43.36508933982858,53.31904307076706,139.72951113915002,113.13121835449178,93.16195051468968,98.85108171535752,100.3655944581974,46.28972280679864,40.03750353507496,8.795824006493149,25.20304538725861,13.713245325054771,13.303802104754816,13.281111744903685,42.93061121049999,47.68773456942017,63.97593574135727,400.0000000000001,396.68147762438537,393.15211314553096,373.2333014953687,{}
40,40,6,0,1.6000000000000008,33.276764697375285,143.24478023112945,19.966058818425186,26.621411757900184,39.93211763685016,43.38759289049843,53.24282351580037,133.10705878950102,106.48564703160083,89.6619444991286,94.92475302398545,97.46876747696037,43.06375610284124,36.63575011860644,8.787530839474925,21.85716234216364,13.720361572610289,13.720361572610315,13.390060804017594,40.04395268728672,43.83084443026496,60.72439722922338,400.00000000000045,400.0000000000002,393.3561325222623,379.8801767875948,{}
41,41,6,0,1.6400000000000008,20.23096723832632,153.13826247423714,16.95908663428044,26.81467040022237,43.237356840453,43.36508933982884,56.54115894520784,119.7804037927046,93.12661473328356,83.0867151769396,91.4040205756703,94.47384494429048,36.511723584278,26.765031213908514,1.266302552055777,18.43813261402579,13.71324532505473,13.713245325054675,13.382515606954373,39.73503917132933,43.66825164362422,63.5421955826914,399.9999999999997,393.6020406091428,390.0448124923751,379.8724751085982,{}
42,42,6,0,1.6800000000000008,13.52826714735838,162.65596549539214,23.914823594000683,27.056534294716503,44.09675586264122,47.46956944060897,50.73100180259371,115.0399962773574,87.99875216834384,81.22249898278346,92.825713123181,92.825713123181,42.193505965082295,22.15159063166812,6.329025894762367,20.46385039306483,10.146200360518684,13.52826714735838,13.501921908826262,43.88124620368564,47.889629270368346,64.61429523708254,400.00000000000034,396.62574512832487,393.2516244705151,382.9061247508939,{}
43,43,6,0,1.7200000000000009,16.629752630943447,166.59659293863444,20.230967238326336,29.93355473569824,46.68194018914605,46.68194018914605,46.563307366641794,113.13121835449176,83.21525557890189,74.89562081146653,91.07805411699098,91.49298830431223,44.812892230683474,21.78404483436009,6.224012809817168,26.76325508221373,13.303802104754816,13.303802104754816,13.277893994276496,39.626214889169205,43.775556762380575,63.9759357413573,400.0,396.68147762438514,389.8320491553672,379.683146894089,{}
44,44,6,0,1.760000000000001,19.966058818425218,173.55037156199327,19.966058818425072,23.29373528816261,50.02594662090225,53.346712050714906,46.706164961247126,109.8637312724123,86.58355834259028,76.59559096732676,90.95022768707328,88.39829227022949,42.97008900420826,20.13401986965744,4.559708134507673,24.91889877623953,13.310705878950078,10.523036960518994,11.727644378877926,39.61129165409773,43.62683708942541,66.88546925638572,400.00000000000017,396.4965264246516,393.1731074144537,379.7198190490119,{}
45,45,6,0,1.800000000000001,23.304221240483088,176.7286862389971,16.97552555061523,26.63339570340919,50.04846639647968,53.37072670839435,46.60844248096606,113.24087960415063,86.62253496240993,74.96723413715404,87.35993280119192,88.52473190520789,41.42674846167995,25.23413140913124,3.026568163713364,23.133674008446743,16.64587231463077,13.316697851704635,13.290166826148608,43.26942245409862,43.74679913607224,66.91557854683941,399.9999999999998,396.5213100816277,393.0682285661342,379.89075444723767,{}
46,46,6,0,1.840000000000001,19.966058818425164,176.6491655136133,19.966058818425164,26.6214117579002,50.02594662090183,50.02594662090183,46.587470576325366,113.1409999710759,86.5195882131757,76.38231146632177,87.28584323633208,88.51441019633319,41.406545823788974,25.01285545127348,3.033024682502856,23.11241593502177,13.31070587895013,10.523036960518857,11.72897519626099,39.96681891753758,43.690912515041134,66.88546925638555,400.0000000000002,396.4965264246516,393.01817344288,379.7198190490122,{}
47,47,6,0,1.880000000000001,23.34674535129747,171.97536548505863,19.81037034784548,23.11209873915321,49.63586146741523,49.63586146741523,46.22419747830635,112.30730963766956,89.20778872988402,77.55842948504892,90.69674267650532,90.60256121993577,44.50073822912634,21.614644282718587,2.966715881941809,26.512080024336683,13.206913565230336,13.206913565230336,14.833579409708818,42.28747399974128,47.09072828478986,63.51001367412545,400.00000000000017,396.7023570648881,389.95355268373214,376.7588942909446,{}
48,48,6,0,1.920000000000001,19.81779818189705,175.33743354089896,19.817798181896965,26.42373090919596,46.35934209500594,49.6544722725398,46.24152909109289,112.30085636408286,85.87712545488691,75.84307681705513,90.51137803054849,90.66298837900854,44.42183209874497,21.52866948130304,6.178121699740132,23.310091075706623,16.51483181824754,13.618479195189062,13.379613251584487,42.14767687184684,43.58797518221547,66.79836076547507,400.00000000000034,396.6998734324786,393.2749827475601,380.070833938695,{}
49,49,6,0,1.960000000000001,25.976890846148223,174.2582813282382,19.332220569329,25.77629409243868,48.43783357846673,51.65317869649801,48.33055142332267,119.25889326650147,93.49460193907824,80.48951423390167,90.9117425895862,92.36991983038148,43.40881478367646,27.537116355019634,0.1682512200918609,25.68635293401008,12.888147046219451,16.110183807774224,14.469604927892192,45.16610530463515,45.27827278469624,61.556925896895606,399.99999999999983,393.41847311853087,386.97989466998894,373.97840775631255,{}
50,50,6,0,2.000000000000001,41.35920985687349,168.39076382868694,22.430180823173625,28.724646895772885,50.85273719720313,54.019028760331686,47.58159888991962,139.60873208933856,111.02373074314572,90.36344380980688,100.20005485183378,99.53316596762863,52.35077741010946,39.67988861021036,9.669888820975643,31.84394422079913,15.860532963306351,16.174633415176366,16.005333220925195,43.34777747333908,45.51516634700607,63.75855342636777,399.9999999999997,396.6275034805325,387.11399055434936,374.3623385918244,{}
51,51,6,0,2.040000000000001,31.480452526887408,167.11347149995686,22.03631676882134,28.33240727419868,50.4670045736313,50.46700457363084,50.3687240430199,132.21790061292734,103.88549333872864,88.02759181645752,96.37503586801824,95.56197313572328,45.66702346389502,36.07288322281556,6.477399767282464,25.50306770298232,15.740226263443647,15.74022626344376,15.719212824367446,42.92971226516897,48.40433466262118,60.5538594789892,400.00000000000006,393.7070799310826,387.3247213445496,374.7364098895011,{}
52,52,6,0,2.080000000000001,25.37328107180149,160.62894829954774,22.030177283788184,31.628648801902,47.20752275097424,50.45294408328206,50.354690934372655,129.0338955193302,97.6129612641678,84.7788163743761,93.20521838538002,95.21021436227466,43.920249710087546,34.65391695200617,1.923712356209876,20.78151235511234,15.735840916991483,16.047471979706394,17.367600286345464,49.36625229597735,51.53381551424218,66.3895855589909,400.0,393.597390151704,390.3630497820417,377.7781823799946,{}
53,53,6,0,2.120000000000001,12.20805071662082,152.63115103314942,18.56466836676044,30.520126791552183,39.6761648290174,45.78019018732816,55.02094104030155,115.97648180789795,85.45635501634578,79.26461115156792,84.82389383414409,88.94852292121652,32.154173709222164,28.96206945922677,2.5285769620750216,12.858082849700168,15.260063395776095,15.260063395775962,15.243194452224545,44.36666244094556,47.23596963195257,64.38227799796505,399.99999999999983,393.8160867784698,387.6176258644216,372.3455468569356,{}
54,54,6,0,2.160000000000001,18.032374634088324,141.28556997821508,15.026978861740316,27.21501621114156,39.07014504052464,42.07554081287263,51.09172812991685,111.24024961934028,84.15108162574549,75.06975784712176,78.3227806871638,81.20045473797006,28.71418237652415,31.46674016425186,3.565813497738304,12.824416965549972,15.026978861740211,15.026978861740316,15.076509700963696,43.29022702517352,50.171621494493024,63.75407192330047,399.9999999999997,390.8863540835606,387.8008798489914,369.7125449930757,{}
55,55,6,0,2.200000000000001,20.86706978709716,131.29986919722336,14.90504984792661,24.03367072504433,38.86761472730737,41.73413957419432,50.76477053274673,110.45838701713464,86.50067057220903,76.06637801671559,80.31886595615458,81.38198794101436,30.086352171531075,29.607947278344227,1.700995175775688,17.063107856998954,14.905049847926724,15.200228005130162,13.475071158097307,43.96009407395081,48.63783080733373,56.95211550197201,400.00000000000006,393.7755074100542,381.75554376561263,366.71269476234494,{}
56,56,6,0,2.240000000000001,21.343596214341147,146.48307844913342,15.245425867386578,27.44176656129581,39.63810725520516,45.73627760215938,51.92404948176269,115.90534919039396,88.47602484679285,77.44362227052761,80.98309312384242,83.38993330409664,30.616422881173094,33.30642072969215,4.849075069041078,14.157883413259242,12.196340693909235,15.245425867386464,15.219724669253536,45.58838459069455,49.30482898667492,58.25269044618013,400.00000000000034,393.6273304853909,384.48710147778576,369.1408433528608,{}
57,57,6,0,2.280000000000001,18.15630640455409,148.39996319311138,18.15630640455397,27.23445960683118,42.36471494395965,45.49152255270209,51.44286814623664,114.98994056217587,87.75548095534471,78.54313928087095,80.34507365033778,82.95964508838745,30.297229839562192,33.14145957960284,4.71682820242745,13.956158351751697,15.429893441931954,15.130255337128355,15.19277997785639,45.27801753865776,48.8995523008212,61.19809548205934,400.0,393.6774976877112,384.6062099113075,369.2898299957853,{}
58,58,6,0,2.320000000000001,24.39680366509975,148.3073771615183,15.130255337128425,27.23445960683115,39.454878794055176,45.39076601138529,54.55291142887911,121.0420426970272,93.80758309019603,81.47134838993816,80.29164040535375,86.02931105765072,28.965405894228752,37.6702208713898,9.23210869754348,15.631130795743957,15.130255337128425,18.156306404554137,16.703592599911758,45.347259952890056,48.8327608164351,61.198095482059465,399.9999999999996,393.8054075572693,384.60620991130736,369.3766065058192,{}
59,59,6,0,2.360000000000001,21.1823574719798,148.3073771615181,18.156306404554023,27.402057863211315,42.36471494395961,45.3907660113854,51.44286814623664,118.05478078155431,90.78153202277043,80.02300605838832,80.05853236518453,86.61313596907917,32.00032084665634,34.62926754957323,5.888485351466215,15.533877646628524,18.156306404554137,15.42989344193167,16.706245770902115,45.899988380660375,48.29801408940239,55.22025014311763,399.99999999999983,396.97822727262775,387.62993678677736,369.3766065058194,{}
60,60,6,0,2.400000000000001,21.173271140661644,142.1955665271662,15.12376510047254,27.390303544700224,36.29703624113407,39.32178926122867,54.44555436170135,118.004140296741,90.74259060283552,79.9867004253432,79.99563050242557,86.21096415164266,28.772708358876343,34.80944046644959,6.268914111710615,12.50210791509221,15.423274673260725,18.14851812056705,16.60101329582585,45.91845635671706,51.4551041476866,58.18228603321843,400.00000000000006,393.7875296162189,387.74691097626754,369.4658739612603,{}
61,61,6,0,2.4400000000000013,15.116419586083918,142.1265030649272,18.1397035033008,24.186271337734265,39.30269092381829,42.43381189438496,54.5030259190537,111.90235266704312,87.72734369815157,80.1551086003683,80.37067590274489,85.79578634588961,28.580631506765258,28.76027092541221,0.3413148954296048,12.413083828519577,12.465318926915938,12.465318926915854,12.251408351737156,45.34098926654639,48.93377763948968,51.75028476947541,399.99999999999983,393.5962695731243,387.5585848223761,372.3060907275115,{}
62,62,6,0,2.4800000000000013,9.143271813113614,146.41928382676417,18.286543626226983,27.429815439340484,39.62084452349196,39.73789306364756,57.98753682219463,112.80819741904708,85.39161048243419,80.76142384406,79.70953843943414,84.85208930649435,24.31024046246671,30.38780057808333,1.6362661849736924,7.713826300590426,12.566225149733173,9.1432718131135,10.635730202329114,47.451719364237874,47.685471676377006,55.61635118913871,400.00000000000017,399.8257966092894,393.73910010946,375.3198925858874,{}
63,63,6,0,2.5200000000000014,12.471376193255685,139.43422470546167,15.123765100472488,24.198024160756248,39.4379543274885,39.43795432748827,57.47030738179596,108.9331110812708,84.74708079673397,78.52585950589093,82.08909715863285,83.77647418310517,25.633770116450364,25.867130768771062,0.34106556877623,11.937294907170552,9.074259060283554,12.471376193255834,12.17963096919584,44.12311410800777,47.28245832404082,52.82504050101734,400.00000000000017,393.9617436296738,387.92383780083225,372.6466258759917,{}
64,64,6,0,2.5600000000000014,21.48703050284981,147.6271299832662,18.671500575729898,27.7961909540303,40.02237169566884,46.14584254864006,55.252364150185294,122.93641442963715,95.206345783706,84.37666444904391,85.90615081367912,88.96512354294975,32.37412805144584,35.43310078071636,5.863031064435063,15.294863646352384,12.656185192016856,12.65618519201704,12.363348114134851,48.43373488011605,47.414077303692295,52.54267392772893,399.9999999999999,396.7359908555548,390.60879552397006,378.1687469917928,{}
65,65,6,0,2.6000000000000014,33.12562942422758,137.98905891821414,17.994321438302645,26.991482157453976,39.10287453352444,45.08566121828553,54.31517030775787,132.2647229599859,105.3517620174854,88.78765341363464,87.97225659657067,95.81818596965309,37.60791319591817,40.36214244466749,8.815345588925084,21.010057986348897,12.365414658573023,11.996214292201802,12.076932857181191,46.87625701654537,46.984976592154,54.31517030775798,399.99999999999983,393.6079295486932,387.4470799411252,369.48047903219015,{}
66,66,6,0,2.640000000000001,46.060478798108605,144.1335009211001,18.38338484340871,27.57507726511297,42.89456463461997,45.95846210852179,55.23519722458126,147.19468578103587,119.64902126275004,96.59294519047626,95.98544239053616,100.25637116587268,42.8933795109225,49.00522586183479,19.95554651924453,23.011469694700963,12.63277291095888,12.255589895605732,13.751654289553244,47.45885509835102,48.60022399520818,55.48954329988795,400.00000000000034,396.67711567467126,390.3193741022566,368.4838303848686,{}
67,67,6,0,2.680000000000001,57.376876989856726,145.07788220995636,18.1190137862705,27.34577469298361,42.38541289158704,45.29753446567619,51.42594772265807,154.12999661444675,126.8690418345018,98.0717274859469,93.77946355088557,99.35383229771868,45.1523868493465,57.434579321535125,25.400540256402,25.40054025640188,15.398200810541717,12.4511012788028,13.787272033833574,44.33481276647768,47.17774082736247,61.07239606040167,400.0000000000002,396.74940244978,390.3071840481993,369.0258910875506,{}
68,68,6,0,2.720000000000001,51.30358942409393,148.1519428779332,15.388117858282603,27.32786830612022,42.35765834416157,45.36835676980939,54.40521243644783,148.1519428779332,120.86512677639466,95.24953061182612,91.24868327591504,93.0105243045732,37.73276203042656,56.01186270275412,24.1519041011876,23.93167397260516,12.071432805669076,15.388117858282827,13.654267972100117,43.82579558786921,47.78993790234972,51.657411474941696,400.0,396.9946295397762,387.7096354030105,366.1695587012798,{}
69,69,6,0,2.7600000000000016,42.95003937545269,141.4213562373096,18.66106358484561,27.780653445920805,40.00000000000008,46.12004795671204,52.24377249688117,141.42135623730948,113.67652766150306,92.22415572558737,92.07504633880376,94.90812468769012,41.26602279233032,47.90139050419555,18.30317722767313,24.15572065892502,15.643077777500832,15.643077777500883,15.544653572178618,48.60966009141714,50.51080477290657,58.611382150970186,400.0000000000001,397.1901307938051,391.0769444375212,372.4766080298356,{}
70,70,6,0,2.8000000000000016,51.75781529678772,146.26651615771,18.51944114925868,30.44577370399261,39.69643223186496,45.77003395609962,51.75781529678772,152.25931124969915,121.82114608851852,95.84487831841534,88.3127552298663,93.79066293062932,39.45574060144065,60.94172317098696,28.90706698848533,22.596369265646786,12.178309481597072,12.17830948159709,13.778048254114765,50.67064623205664,50.44856889283642,58.16656898929823,399.9999999999997,399.9999999999997,390.66803902287575,372.0493478341273,{}
71,71,6,0,2.8400000000000016,51.87584332121895,146.50551969389082,18.27752646155804,27.41628969233712,42.75621812800134,48.83517323129732,48.740070564154585,146.25194006686195,118.84297012673584,92.80049580498724,89.26407743659763,90.05203272292306,41.02995740938195,56.43260717303178,27.42834830019024,24.389092195791704,12.560028696004236,12.185017641038623,12.157024417594585,52.60539578230754,54.59404483827211,58.19860879084343,399.99999999999983,396.7622119997026,387.64111035506056,369.2130720078429,{}
72,72,6,0,2.8800000000000017,52.555505118044174,142.24261314376523,21.860208269207963,30.91500301061422,40.30823239672887,43.28100421486016,46.372504515921264,151.5150573894681,120.6081398482146,94.28217989731912,90.76683294798296,97.37606835681665,47.80680279056389,57.27046160785039,24.95225831885773,27.825838931394173,12.746582282904969,12.366001204245704,12.337239429822944,56.51375204654914,58.659358903909606,62.13838701665012,400.0000000000003,399.77294792404655,396.68900255141466,374.8882317558952,{}
73,73,6,0,2.9200000000000017,37.86880293366342,138.5155212794119,18.86899746667677,28.303496200014983,34.59316202224025,37.86880293366342,56.60699240003026,141.5524192751419,113.25765461260072,94.26578769435946,96.2372346248202,98.38094390842788,40.807037434390736,44.137442928567,14.738001324803465,23.96360734890117,12.9664782674367,12.579331644451123,12.556011518274032,56.92313758437041,60.17698203270379,66.34032293616049,399.9999999999999,400.1853940495359,393.72001864832254,374.8820228973456,{}
74,74,6,0,2.9600000000000017,6.392639915786504,131.20494367738834,22.374239705252467,28.76687962103897,35.304507861371135,35.30450786137159,54.43136751208517,111.91685092503133,83.16576388138533,79.96861638453277,92.64059649738908,92.6797679969652,38.2313835862376,19.233206291846955,10.28251863871651,18.293090302021483,16.298097836983636,15.981599789465962,15.962386077245585,56.25027339122653,59.1489643598552,64.00625727664332,400.0,393.6148310321648,384.0375436598581,371.1173863137729,{}
75,75,6,0,3.0000000000000018,3.2220367615549166,122.60686054536248,19.332220569328943,28.99833085399353,32.22036761554831,35.58855924202206,51.55258818487748,103.10517636975489,74.10684551576135,72.38690886193297,89.94416724443442,90.2188059230433,38.60635139303088,12.868783797676995,16.968746928339215,18.42040851527236,16.110183807774213,16.110183807774167,16.085979747096133,60.34204110008295,62.44106528659432,67.9689399453954,399.9999999999998,393.5635802773638,383.76067462080334,367.8205816360884,{}
76,76,6,0,3.040000000000002,3.222036761554953,129.04247173728697,19.33222056932896,28.99833085399342,32.220367615547815,35.58855924202218,51.552588184877465,103.1051763697548,74.10684551576138,72.361431136541,86.12775218202933,87.53968254566905,35.376699666753325,16.08031803034237,13.844761621245992,15.099810833370384,12.888147046219316,16.110183807774256,16.080318030342482,60.94832736378561,61.850393985000096,64.76213740061073,400.0,396.7817590810792,386.97989466998894,370.88428361113296,{}
77,77,6,0,3.080000000000002,16.24085123780316,133.2145860929135,19.757848273891373,25.98536198048514,35.72987272316688,35.72987272316688,48.72255371340961,110.4855453007716,84.51486816520827,76.40107372904765,84.83256681680041,87.30129206563481,37.38924207508831,24.408525444120528,5.63426810822682,17.08198599596676,12.992680990242514,12.992680990242524,12.980716630967777,56.38249923144315,64.10722017134412,68.52022643662598,399.9999999999999,396.6094348990864,389.99691427254106,373.666659166651,{}
78,78,6,0,3.120000000000002,28.76687962103902,143.86990838794924,19.44245527471712,25.570559663145623,41.55215945261195,41.55215945261195,51.141119326291474,124.69745008559998,99.13745883793818,84.74987410168353,91.86702305304355,96.60526251997362,43.17280175446729,30.40696649645713,3.641787358880378,22.790540245895613,13.17876479966352,12.785279831572913,12.765835258010384,56.87845310509192,61.73416958359911,73.7927764664654,400.0,399.8594989818228,393.26427596986576,377.2876288985162,{}
79,79,6,0,3.160000000000002,43.70201387868043,149.9654852698745,15.607862099528724,25.16692142926009,40.7003248557275,46.92752335499768,46.92752335499779,131.254603770543,106.17935783019529,84.32474476304719,86.35056445705425,88.53221643521579,40.5163938801428,43.80835088290428,17.472694860811544,23.88129754666113,9.36471725971728,9.871278728065722,9.43759270910067,55.47629315896478,60.014908434961455,65.8496423366043,400.0,399.865994605568,390.508584967102,374.91371317468673,{}
80,80,6,0,3.200000000000002,40.26654610547228,148.80548140373233,18.584559740987352,28.04839101289391,43.47445436721228,46.5645324413064,46.56453244130651,133.33333333333337,105.35804574384512,85.22688607282316,86.10793589438913,87.43930006920016,40.215029633259405,46.558588348535295,17.464365351931747,23.65129298781756,12.77101713628204,12.38970649399153,12.373855271772186,54.50761562755338,57.17034397717515,68.42439056156266,400.00000000000034,396.9059444203322,390.582918072652,374.9933540615541,{}
81,81,6,0,3.240000000000002,37.444049418468055,153.02384283699746,18.980271732107475,24.96269961231197,46.90895770952282,46.9089577095226,49.92539922462404,131.09131457597297,106.13735074835228,87.41737091058769,89.82651105379284,91.08844160499552,40.59209939702032,40.59209939702055,14.58868197829804,23.785478874184264,12.865480900265943,12.481349806155974,12.542824872560344,54.91309913718459,57.58992151852368,65.82359065036754,400.0,393.7687837396074,390.6532888497023,374.9082526358691,{}
82,82,6,0,3.280000000000002,34.85046025053016,152.37146711232506,22.177565613973595,28.6894854372634,41.30858259775903,44.35513122794698,51.08607148847394,136.5647731471874,107.9058095702976,90.49471724381168,94.5933825497774,92.42013675963756,42.56892850335612,43.026453932859226,13.477936610780487,22.66657231996885,16.15483426137642,15.841118295695402,15.899008675234654,58.98265328678201,65.04486522769866,66.83375130632916,400.0000000000004,400.00000000000017,393.6764908180773,374.5076232193888,{}
83,83,6,0,3.320000000000002,21.82112634153504,137.4798110678808,18.70382257845885,28.2283861672224,37.537308093910006,40.64466837999053,53.08577020138523,121.73460352635236,93.57105353106186,82.6620470165808,90.04480407536948,87.42788889541077,35.65308163060615,32.99796330933407,3.906271199281491,19.16842615393159,18.961818525599085,18.96181852559906,17.200964376298202,64.35319154219769,67.3330365646325,71.76572202788758,400.0,400.0,396.8904337451596,378.0172672745633,{}
84,84,6,0,3.360000000000002,9.356742923277045,140.66268950186756,18.97161508644757,28.07022876983122,34.4495345108692,37.5567016200288,53.113196789044274,109.34007919462978,81.33133462705432,76.65815983788536,82.63091788530062,82.51910338207279,29.4631216005098,26.76093777250594,2.4785548215483004,12.672310365810633,18.71348584655413,18.97161508644762,18.87801529495028,69.21317749797151,68.74728373452274,66.16216370868462,400.0000000000002,397.0954858755308,387.7627137554469,372.2107682901295,{}
85,85,6,0,3.400000000000002,9.138763230779032,137.38573618007726,18.27752646155795,27.41628969233697,36.5550529231159,39.718298156448064,45.79524539335901,100.57254031746844,73.17354195868374,68.59215335089084,77.63767490864325,77.58274259149084,31.81496701739809,22.89762086633448,5.6671840528833854,12.368926745469023,15.532910681282091,15.532910681282264,15.29865032692726,61.7622352516164,66.9075622915525,64.26080718254137,400.00000000000017,393.7217537735271,387.64111035506096,369.4015261615048,{}
86,86,6,0,3.440000000000002,9.58039939255537,134.46731330182948,22.58121792317121,28.74119817766591,35.272989993205215,38.454428462686415,44.708530498591415,105.43276807085962,76.70969684071137,71.89872739520524,84.44260027015844,84.3860538860489,39.818078810426414,20.9315865178595,9.094543444274905,19.348287762794143,19.160798785110767,19.160798785110657,19.225770597223573,64.80215618946534,66.70588445448459,64.18788153056235,400.00000000000006,396.8131061514845,387.253074346804,374.50798453431423,{}
87,87,6,0,3.480000000000002,9.434498733338383,135.3740074531669,18.86899746667673,28.477673205216124,37.8688029336632,41.00360455617362,47.172493666691885,103.8271241165418,75.475989866707,70.57676965493249,79.73343637663027,83.15192528606406,34.391501061392205,22.295309535703154,7.513162438316158,17.355405232510293,16.035564380752955,15.724164555563826,15.796424026559748,57.85135077503435,59.10980548345242,69.47162968394537,400.00000000000006,393.90836839932456,387.4403514880479,371.94214181104576,{}
88,88,6,0,3.5200000000000022,18.72202470923407,137.33030167020965,18.72202470923397,28.083037063850885,37.573838540454766,37.44404941846815,46.80506177308495,112.33214825540388,84.249111191553,74.7181521637873,79.22568895076415,85.3567029703388,35.59235085818443,29.78603228512941,0.5061429019275465,18.76548683561361,15.910661554391798,15.910661554391828,15.67133022760413,53.842144925796674,53.269152961350414,62.71800656778441,400.00000000000006,397.0683047099651,390.65328884970273,371.9620243802944,{}
89,89,6,0,3.5600000000000023,18.57732048571579,136.37434821845065,18.57732048571604,27.86598072857387,37.1546409714316,37.1546409714316,46.44330121428966,111.46392291429537,83.59794218572148,74.17152408099798,82.19923476659392,84.30980659003683,36.89731812769162,28.002765443181715,0.942219564037032,17.22377363059752,15.787686611155353,12.384880323810554,13.907160765187086,52.5758516732684,53.442693672182656,58.90960466570279,400.0000000000002,393.9993278439975,381.45129816266456,365.996264227383,{}
90,90,6,0,3.6000000000000023,15.735840916991547,132.3308439929371,18.88300910038976,28.324513650584656,34.61885001738108,37.89692333575641,44.06035456757617,107.00371823554214,78.67920458495747,70.65632602743972,80.00150007230047,82.46075639989556,37.26719204124663,25.53843109425532,3.9726448368841134,17.38505050045967,18.88300910038976,15.735840916991434,15.805451243889138,54.17930863255344,50.69851506118829,59.87895842450163,400.00000000000017,396.9925319788118,387.7280547589968,372.0187092335671,{}
91,91,6,0,3.6400000000000015,15.730486023486607,135.3187573826995,18.876583228183883,28.48912187055186,34.749779421045446,37.75316645636754,47.1914580704597,110.15833724163434,81.7985273221302,73.84859855764341,81.53547650662995,84.86614332907936,36.063406583188566,26.93700314314367,2.248670538320312,19.44770712430227,15.730486023486607,15.730486023486607,15.787737084943956,49.11322263611919,52.34980282516619,59.85858166502378,400.0,393.71492793493655,387.4300870848774,374.8611455473568,{}
92,92,6,0,3.6800000000000015,22.19706972720968,130.1659999055929,15.855049805149871,28.7147164739964,38.05211953235977,41.22312949338933,50.73615937647938,117.37021222159905,88.78827890883892,77.57302239256,84.83222010774227,85.6237815607276,34.56806784317541,32.096851599709,2.384337547406972,17.69429443075694,15.855049805149758,15.855049805149758,15.83122905970606,53.22768111903628,52.127217635617626,57.16619504750301,400.00000000000006,396.99727657357727,390.6653385406154,371.8744388776919,{}
93,93,6,0,3.7200000000000015,15.974970853193046,134.53164044746222,19.169965023831704,32.10929402512433,38.47282448443504,38.47282448443458,47.924912559579056,115.06415650535077,83.0698484366038,74.8915561881812,84.2245464730305,84.2245464730305,36.421425501851104,30.730577767186787,2.503973003252213,19.121248388471827,13.17329843877567,12.779976682554569,12.74749892564796,52.12816524952427,53.94923652461682,61.04027792287148,400.00000000000017,393.6201698030656,387.4383304086576,368.1043729691415,{}
94,94,6,0,3.7600000000000025,9.66611028466448,138.8843613184814,19.332220569329184,29.176783805116013,35.5885592420219,38.79846040060869,51.55258818487743,109.59662254368108,80.55091903887109,75.55607768970788,85.3929125257032,84.79964038578908,33.653840581902614,24.429415696786123,5.77005000593897,16.31498384763836,12.888147046219188,16.42922832068139,14.678701010133182,51.74864084928311,51.978294580862666,58.086093776079935,400.0000000000002,393.7350016093867,383.9094321780005,367.8205816360884,{}
95,95,6,0,3.8000000000000025,6.493557832134718,139.95086011455734,19.48067349640395,29.22101024460617,35.86184527095556,39.09639539425364,52.04982560742753,107.192886562044,77.99030588031975,74.72848767381049,82.80880672808826,82.21097882669778,30.46029581439564,24.61701019757913,5.81435846029774,13.200425758122035,12.98711566426952,12.987115664269403,13.065432361034029,52.35815329919888,52.37743807021138,58.801667086748566,399.99999999999983,396.75850908858143,387.03456824518224,373.887421460974,{}
96,96,6,0,3.8400000000000025,6.386932928370187,131.5537647283944,19.425098150109072,28.741198177666025,35.27298999320484,35.27298999320484,51.09546342696184,105.43276807085974,76.70969684071137,73.5001489679297,84.78719195386407,80.69851821916336,31.7592051364428,22.62207510021028,7.323140984921679,14.559901538828626,16.283547816883885,15.967332320925625,14.339151548457494,48.181084854923824,51.44434558214971,57.8361375178438,400.00000000000006,396.8131061514841,390.439640673324,377.6940747133253,{}
97,97,6,0,3.8800000000000026,13.17876479966351,137.7758507346439,19.177919747359308,25.57055966314577,38.48878907705252,38.3558394947193,47.944799368398215,105.52697658805964,79.97189979636461,73.4588421366326,81.43194367099943,81.00671158916646,33.380718423882286,24.23822866447506,2.551392490997386,16.158819109649926,19.177919747359308,16.29809783698369,16.052511089191967,51.45308190178025,48.26384128803363,57.62247750486453,400.0000000000002,393.7835055014769,387.59910090555655,374.6381520501957,{}
98,98,6,0,3.9200000000000026,9.657341699694877,135.5472500452102,16.414324592058875,28.97202509908417,35.41025289888075,38.629366798779046,51.505822398372096,106.27952195773544,77.32576938769495,72.48311799204521,82.19714839573453,81.60960623422113,30.51302292126627,24.30466074794049,5.895006353851841,13.16094441790176,19.31468339938941,19.58110541106324,19.48681502352997,48.64849097331535,48.570152018446834,58.03340113821011,400.0000000000001,396.7876188942544,390.36318946478434,377.5157410162203,{}
99,99,6,0,3.960000000000002,9.580399392555396,134.46731330182936,15.967332320925516,28.91806875892205,35.272989993204874,38.454428462686806,51.09546342696171,105.43276807085964,76.64319514044263,71.71979115578768,81.78777267847022,80.38836211933267,30.08732702145244,24.29532220724513,5.558769721017711,16.36532903880027,19.1607987851106,16.283547816883896,17.628685793577006,51.03961289298053,52.12804332786527,54.3827742652371,399.99999999999983,397.0314988644765,387.4768553965967,371.55539724172064,{}
100,100,6,0,4.000000000000003,6.490351506166616,130.17160043748183,19.73963347508752,29.38631628511472,35.84413775702813,35.84413775702813,51.92281204933318,107.28729689744785,77.9517965839579,74.69094366243041,86.40260772580223,85.21980721609077,34.0006671111297,21.47461581156336,8.948564511996665,16.530121877523698,19.471054518499976,19.73963347508752,19.53559858252811,48.92140468855439,49.07652606687731,58.50323787817212,400.00000000000006,396.9872721229292,390.5148013124461,374.0971271840596,{}
101,101,6,0,4.040000000000003,10.267216433785588,139.76242477917816,19.48067349640403,29.221010244606,39.09639539425336,42.208125908875694,48.70168374101025,107.19288656204388,77.99030588031978,72.98100656785914,79.07972493257068,82.6090309496692,32.26794072775817,26.25648542390877,4.518287373538215,14.679586016173744,19.749385134816684,16.555389049349174,18.044061807198887,49.546026778498685,51.77608277831376,58.53213930988089,400.0,396.95772839704415,390.4783177623424,374.0706408955715,{}
102,102,6,0,4.080000000000003,12.987115664269524,146.24928131858886,16.233894580336713,26.176368473076234,39.09639539425364,42.33281783757489,48.8097897202928,104.0996512148548,77.99030588031984,71.48808358207975,79.53898037626243,82.66234033737896,32.290886057631496,22.998405179526458,4.413443423317062,18.05146859514946,16.55538904934898,19.480673496404133,17.925370211626046,48.9455725583681,49.10077056885848,58.53213930988071,400.00000000000006,396.758509088582,390.27579100241593,374.07064089557167,{}
103,103,6,0,4.120000000000003,13.201068504724809,148.54868578689198,23.101869883268566,29.885189886304925,39.60320551417501,43.03021877362388,49.50400689271841,115.55648647172916,85.80694528071179,79.0371708499091,80.66417610301971,87.0741847508175,34.47094864572546,31.60898759808481,0.4606581138324372,13.41789271993116,19.8016027570874,16.82812647646688,16.573890861507607,49.49624414583843,53.24031647528591,59.49641173087283,400.00000000000006,400.0000000000002,393.41066801753976,376.7511868240301,{}
104,104,6,0,4.160000000000003,25.765429831311124,145.07361346064388,19.324072373483315,32.20678728913911,41.86882347588101,41.992513031840666,48.417417871283966,125.64775439602964,93.45519558509108,80.56433627854165,82.31785266670829,84.655874517597,35.070327763331306,42.08439331599766,8.76758194083277,14.612636568054768,19.32407237348333,16.422303685745167,17.77870782446655,51.24164556531196,52.41065649075631,61.277591939517386,400.00000000000017,396.7844823650549,390.5529471634896,370.8818174679949,{}
105,105,6,0,4.200000000000003,31.94994170638608,143.9166673654981,19.169965023831782,25.758866507999823,41.65762736367149,41.65762736367149,48.03129429438389,124.76851092876927,99.09633805493996,83.0964583830305,84.30897436790872,87.6140582621739,37.93023794631392,38.79073316138886,11.782917433696412,20.700776935381896,19.16996502383165,16.29133762190148,17.747713810920345,48.53975281399903,51.5710427761947,61.040277922871184,400.0000000000002,397.00293558915007,390.6264211407095,371.499655969702,{}
106,106,6,0,4.240000000000003,25.54773171348076,147.03823816509365,16.28354781688404,22.35426524929573,38.32159757022103,41.51506403440638,47.90199696277664,111.81693788936748,89.4740690112606,76.67188845102316,77.215660709541,81.56583877768423,31.61647274525467,32.31560850620633,8.622674385069558,14.293442223898865,15.967332320925502,16.28354781688404,17.750280153048493,48.86182151539367,47.61891349592406,57.83613751784395,400.0,396.8131061514842,390.6615963799084,374.50798453431423,{}
107,107,6,0,4.280000000000003,9.814986384101513,134.49675276830305,16.682269032726857,26.17329702427037,36.13668933039235,39.39602894457188,52.346594048540965,104.74429534352208,78.58802114295916,73.66825995482122,83.6281852425966,82.65076372269709,30.90606845922048,21.542370298583705,5.864529119396707,16.557520547096715,16.68226903272674,16.682269032727028,16.53797211669871,45.8410692832839,46.21248946084575,59.25232122240888,399.9999999999997,400.0,393.4709313650437,380.4142637201512,{}
108,108,6,0,4.320000000000003,6.543324256067511,144.10176881364328,19.629972768202872,26.37698334155553,39.259945536405766,39.39602894457156,45.803269792473294,98.20437640497305,71.97656681674367,68.52821571034849,76.42254110156068,80.21338052209319,32.63248367159463,19.813975115566905,7.698921297370362,14.909332360135863,16.68226903272689,13.489408525216476,14.919102564827767,53.188994343760726,51.93840814317275,62.247617263344885,399.9999999999999,396.735406967361,390.2065761403211,377.1504215300071,{}
109,109,6,0,4.360000000000003,9.900801378543823,138.96436947528068,19.80160275708737,26.60760420950956,39.7404787351906,39.74047873519015,46.32145649176015,102.5209802699289,75.97785496577818,71.02679167010785,81.75829950993068,80.0623118949178,34.5922991131074,21.609221508526048,9.21096721946651,16.95012909487002,16.501335630906123,13.201068504725043,13.178018709755406,52.36118084970764,56.94229682129418,72.90528372365299,399.99999999999983,393.41066801753954,383.527392400568,370.159938202716,{}
110,110,6,0,4.400000000000003,9.824191839958678,131.35711510614155,19.91940867152081,29.47257551987621,36.17058185814974,39.2967673598351,45.84622858647387,104.8425348060493,75.3899602904825,70.48074186577765,84.74235648590718,82.02398242847914,37.60417446108716,21.431818655664188,9.06124685809334,20.190821803359995,16.373653066597885,13.098922453278211,13.168355488337625,57.99197989179686,60.43457687093502,72.1184607854253,400.0,396.9049156464844,386.91742508419065,370.5658306597453,{}
111,111,6,0,4.440000000000003,21.03241160119489,137.11454829772208,21.032411601194863,31.548617401792328,35.22885343403791,38.71842986621246,49.0756270694547,122.68906767363676,91.14045027184444,80.49587818732346,87.04074079602015,84.2527479627081,36.64925330881943,36.84698329699768,4.359946239328224,18.16149941416268,17.87411286206796,17.527009667662483,17.499103953766053,69.12640386707989,67.76206694865095,73.69685529451719,399.99999999999983,396.4979945769661,382.4905951420124,364.9828802559962,{}
112,112,6,0,4.480000000000003,20.84986765262741,142.6435060257587,21.137465619846346,31.274801478941,38.38238589730721,41.84427554906917,52.12466913156829,125.1474601917787,93.8887338269222,83.46230018070366,86.2614609331032,87.40478011366099,34.792385408347286,38.261767749349474,6.05170669708923,16.262729723448388,17.71898033609569,21.137465619846388,20.914856044337853,65.28746768977118,67.14043325826083,69.58637906187859,400.0000000000001,396.528330616025,386.1136796137965,365.1373481566467,{}
113,113,6,0,4.520000000000003,21.03241160119488,143.76422172314497,21.032411601194788,31.74276457210812,38.71842986621269,38.559421268857584,52.58102900298717,126.2431463571403,94.64585220537684,83.99719623541512,87.0645095810903,91.62615506953044,36.84708467817586,36.84708467817609,4.1684001877126775,18.16793289361499,17.874112862068067,17.87411286206784,17.597727207559956,62.0934329848879,64.29560666896236,70.19561901544049,400.0000000000001,396.4979945769662,385.8490667895544,368.2174038853629,{}
114,114,6,0,4.560000000000003,26.64354861579596,156.67250502291682,19.98266146184708,26.643548615796096,39.965322923694366,43.29576650066848,49.95665365461762,123.22641234805674,96.58286373226063,83.11571096204341,88.56495402393364,91.16170523032169,39.99390304990163,33.1479225966965,5.370553631393477,18.865790961562084,13.321774307898048,13.321774307898163,13.298513753927068,55.57441028823007,60.59086148238896,67.35405301493752,400.0000000000002,403.1075132571553,396.44870679956864,379.68517470278096,{}
115,115,6,0,4.600000000000003,26.886959245695746,164.81974665708125,20.443373531671647,26.88695924569583,43.691308774255965,47.05217867996772,50.41304858567958,124.39759538140169,97.52315608340078,84.07465085756951,89.62730574501245,92.53116766494712,40.75217032232717,33.25706725871191,5.042516982589291,19.24789556389169,13.443479622847802,13.443479622847915,13.420551035374046,52.465721445307054,50.95492841939506,70.89762832978663,400.00000000000034,403.3043886854362,400.0000000000004,386.6315290906512,{}
116,116,6,0,4.640000000000003,39.34294066514847,164.2237264052018,23.18305011345525,29.50720549886142,46.017040555626174,46.01704055562618,49.28784061799291,140.9788707167819,111.47166521792047,91.60169710429534,99.73144567107964,100.69134369462756,51.35454425981834,40.46264015588588,9.510826335358388,30.00171067477084,13.11431355504952,16.392891943811883,14.721701320333182,54.67500783107107,55.26270049854952,66.30514449697839,400.00000000000017,410.0320739234338,413.4260048319164,397.3712749193183,{}
117,117,6,0,4.680000000000003,41.58802437322248,159.98592748654974,22.39355158558142,31.99078797940189,44.901210625324886,47.98618196910278,48.09269970720384,143.99408684005786,112.01344973063618,91.00009482490486,96.58051507134644,99.12664163318756,50.01320032188164,45.89728144371702,13.23794374070087,26.7151850905974,9.597236393820578,12.79631519176074,11.189556205986491,50.826812193146566,53.75581492970093,67.86270934720845,400.00000000000045,406.7361673585637,410.2810763324581,394.7849888382926,{}
118,118,6,0,4.720000000000003,32.41473761369009,161.3983110953996,22.577708605564105,25.80309554921607,42.053900641530845,45.27046304653099,45.1554172111281,125.8314351226254,100.03900409691316,83.76877112482464,88.1511421938925,86.7407239187902,42.312548253068485,38.182037590268806,11.787067013354772,22.264459914114585,9.676160830956126,10.19956907730948,9.621067519447706,47.55124470344822,51.48026704123322,61.6209310359924,400.0000000000001,410.081028499223,413.8688031440215,401.5185738537446,{}
119,119,6,0,4.760000000000003,16.664352333993353,156.68036399655753,23.330093267590648,29.99583420118796,43.32731606838254,43.45531432676509,49.99305700197995,119.98333680475191,89.98750260356395,81.60391339537603,84.23502616878079,86.46211038896627,35.38698864905143,34.55922283269945,3.87276149793297,14.574590980770497,16.66435233399337,16.664352333993243,16.653859876607385,56.36691035159413,59.500595227784174,66.98986730526698,400.00000000000017,403.6214844302716,403.9516002033652,387.5312960460906,{}
120,120,6,0,4.800000000000003,15.68929081105483,135.52440335720138,18.46153846153852,30.76923076923068,36.92307692307703,39.99999999999988,43.07692307692306,107.73625476930218,76.98459078890356,69.18908706428601,72.72301679614691,81.4458846742391,34.015290587113554,30.530037573322147,3.6604891988422414,15.20660672497752,15.38461538461545,15.384615384615334,15.381842910028354,53.81697949787156,56.58181708423092,61.84538843766696,400.00000000000017,403.3704157566492,397.6856122037187,379.710260141604,{}
121,121,6,0,4.840000000000003,13.114313555049542,144.29470086836136,19.67147033257409,29.507205498861367,39.34294066514818,39.47931175226621,45.90009744267319,108.1930868291582,78.68588133029682,72.11762697219206,77.52357349163879,83.33209049657614,34.534796648167,27.74860846418073,5.377191484768787,14.521292512343392,16.392891943811822,16.71753518114298,16.361614731729446,57.39504921710346,57.22251900903598,65.65348107111394,400.00000000000017,400.1074763235623,397.0465366943451,380.8234982009322,{}
122,122,6,0,4.8800000000000034,15.871016626723788,139.70101215084205,19.045219952068592,28.743633617753208,38.09043990413719,41.26464322948176,44.43884655482656,107.96958243171346,79.35508313361895,71.41830962614858,75.76386814837463,79.76933948190447,33.328544492202695,30.135503665001806,1.700435943479647,14.170299528997704,12.696813301378985,15.871016626723788,14.283661925229694,54.52731258758325,56.567835719759046,60.39333708057512,400.00000000000017,396.826199671332,393.6524058413529,374.6770229631433,{}
123,123,6,0,4.920000000000004,19.047019188735703,133.32913432114992,19.047019188735703,31.74503198122621,38.094038377471406,41.26854157559395,47.61754797183925,117.45661833053688,85.71158634931066,76.1826136775835,81.77085929165776,83.36750089567897,34.955046545178675,34.87901599260624,2.9461839121819366,18.855577037964736,15.87251599061316,15.872515990613048,15.871377849496524,51.9668826832617,52.7842111234155,63.56937700269827,400.0,396.8255975749581,387.30240021144783,365.12307236142914,{}
124,124,6,0,4.960000000000004,31.48045252688744,135.3659458656163,18.88827151613248,28.33240727419873,34.62849777957626,37.77654303226542,50.36872404301992,129.06985536023856,100.73744808603983,84.99127046970943,87.3195432745996,88.92139496436414,37.75527180409847,40.94034900118811,12.386411322015531,21.829885818649927,15.740226263443772,18.888271516132487,18.88694899326879,54.70509782369868,58.653848500792265,63.0395570582748,400.0,396.76611609690895,387.26075042543135,368.33474750373966,{}
125,125,6,0,5.000000000000004,34.3708046011926,128.1474620439806,18.74771160065051,28.121567400975827,31.24618600108415,34.3708046011927,56.243134801951655,137.48321840477058,109.36165100379476,92.1613793011618,92.488756574636,91.6656365727581,35.84313462722537,45.38384373990027,16.986203675115235,16.817838220185536,15.62309300054219,18.7477116006504,18.7727482246454,51.78173102722337,51.4262928445944,59.44992334228836,400.00000000000017,400.0610156050954,390.6273157119551,371.8821243033511,{}
126,126,6,0,5.040000000000004,25.389789644877325,135.45289409354243,15.746079099390949,28.3429423789037,34.64137401866023,34.784225651592,56.773295580366,125.96863279512762,97.62569041622392,84.96674263882403,86.34295125045799,86.4372121142685,29.79585905051283,39.54243236852301,10.830573251831538,13.601842647861416,15.746079099390954,18.89529491926916,18.92758145315713,52.86149242495276,54.48277928249422,63.0629976479761,399.9999999999997,400.0619799498584,387.5583187640166,368.6735190378401,{}
127,127,6,0,5.080000000000004,6.248284093129965,143.74448819660188,18.744852279389903,24.99313637251976,37.61965193129389,37.489704558779806,56.23455683816972,106.22082958320934,81.22769321068958,78.09095189783761,82.93539657844588,82.39296840957479,26.43869712756725,23.539512087048703,1.7301588145029427,10.483827194907237,15.620710232824807,15.62071023282492,15.64624700899185,51.88606001547328,54.598200859829376,65.68132519205864,400.00000000000006,400.1951576624007,397.0734151476517,381.4652919018466,{}
128,128,6,0,5.120000000000004,18.876583228183765,144.72047141607666,18.876583228183865,25.168777637578646,37.753166456367744,37.8840270444364,56.62974968455174,119.551693778498,94.38291614091936,84.8885184278879,82.03031915422184,87.2894058177676,28.06751686740268,34.81286715325507,5.830726518279107,8.51743383552548,15.73048602348648,15.730486023486602,15.720096005164464,50.93311105673274,53.39116243208588,63.00054742764602,400.00000000000017,400.0,396.8574357521658,378.0032845658778,{}
129,129,6,0,5.160000000000004,24.746049012991566,151.6011107567538,15.77257335019592,24.746049012991453,40.21232964611081,40.212329646111264,52.58535415260704,117.58442650613011,92.84922375481555,80.48390757270022,77.35542620476554,79.73903105652528,25.99619041450478,39.03152944756573,13.519508768574724,9.757882361891577,12.373024506495783,12.373024506495783,12.364950168503697,53.37040238393303,52.625525867758085,61.94240566383858,399.9999999999999,400.2271810307653,400.478125917753,385.0700118231775,{}
130,130,6,0,5.200000000000004,28.25585738463993,159.16779863233316,15.601687257694934,24.962699612311955,43.68472432154588,43.684724321545424,50.02281473037644,118.7369378711551,93.81791541904524,79.70191278575385,73.98800625235174,78.57802042629123,26.26508110643215,42.45290887213696,13.345041209417104,9.623918607498922,9.36101235461702,9.36101235461702,9.350028872839973,55.00461429840391,51.86904906023949,59.36846893557795,399.9999999999998,400.1825178430115,397.2766784044092,381.7156133415972,{}
131,131,6,0,5.240000000000004,24.951314462072137,156.07042209751472,15.594571538795304,25.145491044009493,43.66480030862644,43.66480030862644,49.99999999999984,115.56829638099136,90.50227333387382,78.0181332737327,72.89285444553127,76.1578468842373,24.525408318652808,41.04019565396845,11.503403592185464,7.630970699766522,9.356742923277045,12.859613128140634,12.547441872004129,53.340864841651694,50.91110302680079,59.34139177850584,400.0000000000001,403.5470165328061,394.7614163966458,382.3437856537168,{}
132,132,6,0,5.280000000000004,19.27155216141556,155.37222073511288,15.841118295695608,25.34578927311277,44.468138114865816,44.468138114865816,50.79048903744161,111.06872187375706,85.77640098606932,76.17798401227549,71.98400090849645,73.1278144822544,21.77058502052512,38.50839031651572,12.124423881833764,8.044822135430422,12.672894636556444,13.062920792211392,11.15218234413942,52.80605998848933,52.84418710761452,63.6805074284808,400.00000000000017,403.3734784435743,400.4514391053628,388.0912335014828,{}
133,133,6,0,5.320000000000004,15.716880015483486,154.1536718210453,16.02813557834963,25.147008024773783,40.86388804025725,44.11938464301512,50.29401604954746,106.92100023030488,81.78820327995709,73.93145522830628,74.07242025035077,76.08352123151997,24.856832220525007,31.81110664139021,5.516431196010672,7.978620247722233,12.573504012386891,12.960471281799803,12.724442656556109,52.83369026230315,51.7623560947643,63.1810757230758,400.0000000000001,397.0744617871374,393.9391377061141,381.6452016784467,{}
134,134,6,0,5.360000000000004,9.50467097741728,152.20668771177773,19.00934195483456,22.177565613973684,41.18690756880846,44.35513122794736,47.62884526081118,98.26602052827944,76.10334385588897,71.35264662907264,68.55395302523004,70.31366672931836,21.809217715563364,28.81063181480852,2.321324460712276,4.979615375399135,13.0629207922114,12.672894636556316,14.236832680417136,53.18453865228798,52.22980036602735,60.279566171854896,399.9999999999999,400.0000000000001,393.6764908180773,381.030762086489,{}
135,135,6,0,5.400000000000004,9.504670977417245,155.53364646253286,19.009341954834685,22.17756561397371,41.30858259775911,44.35513122794724,44.46813811486554,95.09949884226626,72.93798606894923,68.17082168403317,67.11117160604306,68.56121908118746,23.36807277251978,27.197685335080564,3.5135765743883667,6.227768002222888,15.84111829569555,15.841118295695404,14.221619467762594,48.44645795161989,47.47975963485703,63.68050742848105,399.9999999999996,397.05313494529554,390.5148935158762,374.7085860595543,{}
136,136,6,0,5.440000000000004,9.56942667394683,156.59330330224736,19.138853347893622,22.55535497738388,41.5900195928027,41.59001959280361,44.77110128569387,95.9066849070329,73.43491543163586,68.63527216860291,67.56840265302878,69.02832935855122,23.52728036976646,27.60758834161152,3.7621188180772833,6.270198030128654,15.94904445657799,13.151918984428695,14.543116028089573,52.18302121790703,50.9851326390168,67.28909227792208,400.0,396.8204312910111,393.6410282751207,380.9251561170493,{}
137,137,6,0,5.480000000000004,10.093160857266904,153.50234384455172,15.958688549710716,25.53390167953702,38.433611504966166,41.61516831086114,47.98233895558917,99.1495737396247,73.68698705763791,68.78853994373026,68.039705073184,68.494693348959,20.2848939616348,30.882329218226914,3.943231723383178,6.294004481553998,12.766950839768525,15.958688549710605,16.02885779865619,48.49416705968372,48.51312490450766,60.72695149998943,399.99999999999983,396.8165694465672,393.8790557474148,381.1554945358899,{}
138,138,6,0,5.520000000000004,9.652029544210585,154.5664705396998,16.086715907017627,22.521402269824705,41.94902281313591,41.94902281313591,48.68723699950049,96.73454719395272,74.27813527082077,69.44253228354239,68.91984655667704,72.35463847607798,22.064804612673925,26.09695164849268,2.389420465670355,7.989624682084923,16.086715907017627,16.405295663901192,16.259259574990665,51.93256043355228,52.24990533914911,61.46725517401267,400.00000000000006,403.2089693813669,393.8322440449804,384.213285314653,{}
139,139,6,0,5.560000000000004,6.342019922059892,152.3405462481063,19.02605976617988,25.36807968823973,38.18401635603504,41.344911529736144,47.67073256293608,98.35244081556442,73.00213155562074,69.82087287404067,67.63019383776748,71.1877068026555,21.73827659071105,28.89075002538073,2.340469055847393,4.6809381116949,16.169041669088756,15.855049805149886,15.92455145598592,48.138767540669846,48.02642502598928,60.33257918080699,400.0000000000004,400.35178095875017,394.2395675237424,385.0003101472442,{}
140,140,6,0,5.600000000000004,9.513029883089766,146.17633655117143,19.02605976617976,25.56549962824572,38.18401635603504,38.18401635603504,50.73615937647939,104.69136329476672,79.27524902574892,74.36138284238461,73.9588221647789,73.94009841233196,23.320433672463764,30.678868384048087,3.922626137600332,6.263095193447612,16.169041669088898,15.855049805149855,15.924551455986148,48.34472881758438,48.23238630290388,60.58206024168479,400.0,400.56521152963694,394.4817960066008,382.11656846494463,{}
141,141,6,0,5.640000000000004,15.855049805149658,143.01219768880813,15.855049805149855,25.565499628245828,38.18401635603504,38.18401635603459,53.907169337509295,111.03063953719358,85.61726894780881,77.52569700589027,77.12313632828466,76.89845129892319,23.217453034006667,33.94616318601106,7.189920939563194,9.324428718496392,16.169041669088898,19.02605976617988,17.50670853773886,51.50904298109015,51.60266174332424,60.58206024168525,400.00000000000017,400.56521152963694,394.7493492942394,379.2639268294144,{}
142,142,6,0,5.680000000000004,12.684039844119894,139.84837008842868,15.855049805149914,28.71471647399632,38.18401635603491,41.34491152973596,54.00035379658026,111.1664015274266,82.5072174121027,76.14809763091046,77.26597216692028,76.94387272434108,23.10589824854333,34.05727929623322,4.120978162409415,9.198781139538935,15.855049805149914,19.28850057415556,17.611260698664296,51.38433460438637,51.327493526284286,60.33257918080645,400.00000000000006,400.565211529637,391.3211305946492,375.8014730001731,{}
143,143,6,0,5.720000000000004,9.504670977417318,139.54577685977353,19.009341954834603,28.68948543726348,38.15046483829081,38.1504648382908,53.95290478514885,111.06872187375716,82.43472000001314,77.64788908013361,76.67705251649375,80.40811068263895,24.59452627887537,32.51350687640786,2.474681436728929,7.4240443101869,15.841118295695583,16.15483426137669,15.914105239272317,49.07483649144001,47.78038773992023,60.279566171854654,400.0,397.05313494529565,391.2467605022605,375.77857277803474,{}
144,144,6,0,5.760000000000004,12.779976682554496,140.72489557929913,15.974970853192936,25.559953365108807,38.47282448443504,38.47282448443504,54.40879016868756,108.67677685333604,83.13126792627884,76.6965427630073,76.8682087378561,81.40782007274686,24.73897437543394,29.41210369076282,2.441471642294232,10.509772460188174,15.974970853192971,16.29133762190137,16.174749630198903,49.84035469777126,47.45610504709333,61.04027792287113,399.99999999999983,397.2214327779407,387.912293474779,378.6438801229655,{}
145,145,6,0,5.800000000000004,22.533797299287794,145.00312664129427,16.41432459205881,25.75291119918593,38.76326448552977,41.8484806986769,54.72493629827037,119.15070789428752,93.40978857184228,82.08664810673997,77.37014244014028,82.32976695553373,25.29408502850731,39.14213465580235,11.951722606703356,10.687504592975642,16.41432459205887,16.09556949949117,16.045844020390973,50.31587694636551,47.72909239519959,58.03340113820962,399.99999999999983,400.4660497405728,394.627127739828,378.6121369674609,{}
146,146,6,0,5.840000000000004,22.3542652492958,147.2115301971428,19.160798785110707,28.91806875892205,38.45442846268628,41.63770850849893,51.19516198698717,121.51968658535502,92.6655708703654,81.45052468097958,80.2054580043773,81.30574948602577,29.56309480955565,40.73973985998521,10.452769075660854,12.247981493087082,15.967332320925568,16.28354781688394,14.448564456384249,49.281476362256285,51.0766887796828,60.7598432926774,400.00000000000006,400.4586573044509,394.6612941851837,379.1089922695473,{}
147,147,6,0,5.880000000000004,26.621411757900304,143.2447802311295,16.638382348687617,26.82858540197212,36.75538795665017,43.38759289049825,53.34671205071509,123.30377258456906,96.55997430954577,83.21973473374976,80.91566887298427,84.35224168226148,29.28897280634089,40.65309425520104,12.457576433630264,14.839746221879407,16.638382348687617,16.967887254115297,15.171687913684536,54.43843745605216,53.65739818121642,60.26678409718152,400.0000000000004,397.1244135629796,391.0550828091236,374.4929901265914,{}
148,148,6,0,5.920000000000004,27.990829122977352,142.51449468851834,17.3591753060018,27.774680489602947,34.891510542110666,41.80643025141182,55.657750079304456,128.645427141284,100.92236964564532,86.9515218253863,85.48789263629533,87.53896483325286,30.855692904714488,42.126633326830415,13.09300941261688,15.900787856995407,17.359175306001912,17.70295472503631,17.54363694679148,55.73738911926182,56.67331526738792,59.42824359518624,400.0000000000002,396.7625502991347,390.0989470490464,369.338637403946,{}
149,149,6,0,5.960000000000004,32.595381706811736,155.81644319862923,16.21680851368403,22.703531919157573,42.16370213557883,45.40706383831559,51.99504351030383,123.41832989941598,100.75324463788976,84.46493612471329,83.2778395950902,84.52529696520253,31.91076433868397,39.51623024033756,12.474573701124882,14.748165359555628,10.256410256410351,9.730085108210304,9.718095318779431,50.66286545069738,47.80578566753667,58.47053462046881,399.99999999999983,400.52562440546944,400.52562440546967,387.60547121386776,{}
150,150,6,0,6.000000000000004,29.962570166335382,153.14202529460272,19.97504677755684,29.962570166335382,39.95009355511369,46.72719029757861,50.04846639647924,129.88047876490376,99.93070472454524,84.94932516745848,84.54077122823674,88.20779195100795,36.37126532096465,43.50601216200869,13.073726055097382,15.9236388994251,13.316697851704678,13.316697851704564,13.31287958049552,49.14604946931445,51.099136593399066,60.01754615522756,400.0,403.5036359954744,400.180064763176,386.88674334373087,{}
151,151,6,0,6.0400000000000045,26.00852528502253,149.54902038887894,19.506393963766754,29.25959094565019,39.01278792753328,45.51491924878883,48.76598490941706,123.54049510385651,94.28090415820634,81.27664151569502,84.5277071763229,84.5277071763229,35.76172226690585,39.01278792753362,9.753196981883434,19.506393963766868,13.004262642511208,13.004262642511208,13.004262642511208,48.76598490941706,52.01705057004483,61.855742745166346,400.0000000000002,400.0,396.8431379685534,383.8460959032977,{}
152,152,6,0,6.0800000000000045,16.260162601626078,143.23717427996888,19.512195121951144,26.01626016260161,39.02439024390252,42.27642276422724,48.78048780487815,110.569105691057,84.55284552845538,76.40004302475347,79.92863868080076,82.94182148821187,32.669245175089145,29.10100237683912,3.5682427982500258,13.638616917755712,13.00813008130068,13.008130081300918,13.04390978471406,46.22856780843927,50.98622487277265,58.53658536585355,399.9999999999998,396.74796747967486,393.54968389211786,380.6128625001202,{}
153,153,6,0,6.1200000000000045,6.444073523109797,142.09876191057052,19.332220569329007,22.783240433277705,38.7984604006081,42.01021961115947,48.437833578466766,96.87566715693352,74.17685672222662,70.9578738550241,77.68039920951242,80.63221629151155,30.72746362455223,17.701380501407584,4.065889980689121,12.330977810286754,12.888147046219435,16.11018380777424,14.482947682969892,49.99045058224323,49.4762630905401,54.77462494643202,400.0000000000003,396.6378292720636,390.0794172036357,377.033374630494,{}
154,154,6,0,6.160000000000005,6.392639915786457,141.5432109173628,19.442455274717258,25.76955534656581,38.488789077052935,38.48878907705248,44.74847941050499,96.10245049423422,70.39164522523144,67.17623444528544,69.15143085837826,74.76411769558263,27.330069181160525,24.142375960030563,3.3734790223614937,9.377293862158467,16.29809783698345,13.178764799663467,14.579296296640564,44.19746429296799,48.480315921357374,57.62247750486438,400.00000000000034,393.6148310321648,387.5991009055561,374.84262283081387,{}
155,155,6,0,6.200000000000005,15.926777725448304,135.1431903853841,16.242190082143214,25.681157424484816,35.183401963614486,38.3567600632771,47.8863939798262,105.55020589084356,79.88831064486472,71.94963707690772,73.76941304866523,79.63965811885078,28.84247077817849,28.84247077817849,1.8784784224593525,11.38827543616003,12.74142218035873,16.2421900821431,16.006201558039265,45.12261710615985,48.05773964125251,57.42481374202181,399.99999999999966,396.5351872582961,393.362392351708,374.0453848154068,{}
156,156,6,0,6.240000000000005,22.59850939498459,136.0798098561822,15.97955923790128,26.354164235472577,35.73138070643228,35.73138070643229,54.70519896215232,119.32355357296623,93.17604121703393,81.8505312489757,82.65270318115938,87.79433532479572,30.52119231128404,34.09713947885064,4.020524382993699,13.530610904305831,13.177082117736258,16.296016874534292,16.25606252931584,45.69480596825565,47.85970371294445,54.70519896215244,400.00000000000006,396.8339431339472,390.07148223267626,373.812408255253,{}
157,157,6,0,6.280000000000005,22.074194649771,139.60946521435935,18.98894023853446,25.74271342405349,34.90236630358973,37.977880477068695,53.161700525177984,119.6494656905297,94.11997589431373,82.97327281745333,82.52259168692979,86.97186923082188,31.79699210247032,34.884637294567824,5.849265736582197,15.112201312874843,18.98894023853434,15.91792813486458,17.442318647283855,46.23796619967186,51.780385209089104,50.33690853704822,400.0,396.5007127393673,387.2118288036309,370.9515704357132,{}
158,158,6,0,6.320000000000005,25.308346645483137,153.30322379460088,19.09448537680814,25.88579767276628,41.88100523501016,44.94527339489615,56.85177359473628,126.96930596026954,101.23338658193288,88.42052058312288,87.65381327262526,87.82632241748729,31.04206223376707,39.149992042278086,10.590144726246647,12.890266657738948,16.006403842561866,16.006403842561873,16.005015106635028,45.61908497460047,48.11088373371729,54.18951050335052,399.99999999999983,399.5439908548177,389.3640461206016,373.3962648255862,{}
159,159,6,0,6.360000000000005,8.753500176484629,148.71292570310166,18.82511393580916,24.95131446207221,41.29017775220576,41.29017775220576,52.974950736807685,103.80374271141632,78.9029843152471,75.2279925184165,79.815065232954,79.90680668724485,27.109599742917112,23.898648842740727,0.137612181436225,9.128274701929968,15.780596863049372,19.57342143567641,17.614359223824408,47.98078059406316,50.182575497041285,56.4753418074271,400.00000000000034,398.3804387264668,388.23771634643407,371.5987124746808,{}
160,160,6,0,6.400000000000005,6.697058418975613,144.56962206391626,18.217968516195523,24.697531130734205,39.95849166612015,37.04629669610118,45.814928578617206,92.99029000315764,68.29686312405714,66.11006954055927,70.82237545612224,71.86955454846964,25.54565838436769,21.57740077126232,4.987879360917418,8.404990083314033,18.217968516195736,16.12865247035887,17.388684401872865,48.66627044961558,47.45374729005528,52.30569834633359,400.0,391.9352953933524,382.09638227016507,365.5514358025435,{}
161,161,6,0,6.440000000000005,4.253875117737401,142.9960225829841,15.337564856421809,22.907818577983363,37.20621176730761,40.13097759885744,48.96577979612658,90.48863307940924,67.86230853834716,66.01883692934143,69.42516802518253,70.66725560709142,21.171947418902164,20.419167066230106,3.632165201642806,7.339608438552773,15.337564856421828,18.296608704077453,18.23610404348119,45.80668446009611,49.00600095895243,55.46374579796834,400.0,394.6830520857331,384.2287827856248,367.96634485129925,{}
162,162,6,0,6.480000000000005,8.371343190036312,137.10869961654274,15.091653558090869,24.40644971817081,36.60967457725621,39.48754685238588,51.09263311378528,97.6257988726837,73.2193491545129,69.64468954288873,73.34879425129827,73.68724036678748,22.5254692420034,24.10488444761961,1.880256197162339,8.743191316804428,15.938562581658656,18.0032542606835,17.95644668289924,45.99106658258802,47.457666416374536,54.57448065926109,399.9999999999998,397.62778644890375,384.39873449208073,364.9944031310613,{}
163,163,6,0,6.520000000000005,15.006449469682568,126.41233734990524,15.006449469682584,24.268656381508723,32.90381712177718,35.803223856534494,53.300121382836544,107.40967156960208,83.24080465476916,75.40036484774384,76.94529985961651,74.23224325340095,22.684167735303163,31.576964389010183,4.973937111395344,8.21453250215302,17.901611928267027,17.901611928267,17.860955990919706,48.382842810846,48.985744278894,57.14285714285721,400.0,394.84580546132463,381.2755986420458,365.039639190111,{}
164,164,6,0,6.560000000000005,18.217968516195626,128.6462912461435,15.271642859539083,24.69753113073409,33.485292094879064,39.95849166612074,54.65390554858676,112.78132708959768,88.1369527616805,78.96989248134241,83.1560432973331,83.32613520407767,28.6415871857065,29.510945820178563,2.712020957538016,14.183775112420108,18.217968516195608,18.21796851619574,18.19983402166622,48.66518442968936,45.698025612034485,55.22535848473818,400.00000000000017,395.3987755877328,384.6001178610628,367.7898637333552,{}
165,165,6,0,6.600000000000005,18.379421600631268,126.83348626538287,15.40698472500998,24.91640803654597,33.782048766027,36.7588432012625,51.720746933296326,110.27652960378762,85.4625745020213,76.08522831819766,80.30847805444148,81.10927484415811,29.21001623442657,29.457881907433944,2.421456959381203,16.950198715669217,18.379421600631247,19.11001261186601,18.99032387042348,49.096469845723504,48.429139187626106,58.66804995559335,400.0,398.3876204757868,387.1605549283653,371.0493274804312,{}
166,166,6,0,6.640000000000005,6.634858729085431,139.07904711333327,18.048767066656435,21.60153498624982,36.09753413331263,39.58737264122482,51.22179693405294,97.19558521952668,75.64902871907786,72.44479932483353,77.70408434739318,76.61148640256567,25.953830841961803,20.027875886965035,3.768536979193186,11.47227842068878,18.04876706665642,21.60153498624964,19.78713396691841,42.09279878971029,46.85208136294193,54.14630119996939,400.00000000000006,392.355275472578,385.34765993479584,366.4220498039285,{}
167,167,6,0,6.680000000000005,4.247514852349282,140.77804725662807,15.3146325934403,21.237574261746367,37.15058216503462,39.50417167098089,49.534109553379615,89.60142396922573,68.48911905873291,66.59112856385218,73.29330006395321,71.3275793725827,22.811720594617327,17.251539210455235,6.112455292689901,8.265387478476441,21.237574261746367,21.237574261746595,19.72273093674972,45.51111429258492,48.543940502127725,51.84752627385705,400.00000000000006,394.5961872393332,387.4329641913825,371.1778776508871,{}
168,168,6,0,6.720000000000005,9.440423469133004,137.61663778870653,15.22222545224731,21.73348694907786,36.31803422671788,36.92641883166163,48.59755420624281,94.87508167549623,73.18611805609713,68.4967388444586,72.23698456783154,73.81868052050174,24.44185451567409,21.836708240687926,2.0003801754357937,9.983292689500672,18.15901711335871,18.1590171133586,18.14298298651101,45.236504246367645,48.86510084366978,57.96450760531072,400.00000000000034,398.1240475019735,388.0576755313516,371.9095533449149,{}
169,169,6,0,6.760000000000005,24.33559943154271,132.0209504127016,18.360573054833576,27.82882262742448,33.74740444983799,36.721146109667856,52.106691893927525,122.57324893824044,94.78155452624932,82.60168233972252,85.09793858857108,84.60994864518727,32.751632738653825,37.706607548398665,7.338617994735614,17.774095245561625,21.34373263607805,18.360573054833576,18.35592940882725,47.2224114443859,49.5122104094952,55.65764525484874,400.0000000000004,395.7406617648329,385.6665428934508,369.48707592662345,{}
170,170,6,0,6.800000000000005,24.181861802984525,128.83422277528135,15.29395227217139,24.73361024927199,36.48916407295152,39.45082667842923,54.32127793965706,118.35248003528793,93.75195621611932,81.54322796115741,83.63793362125864,87.30132020170458,31.28907871657828,32.82957974015028,5.513866468517335,19.265656093576126,21.20889581608199,18.244582036475645,19.71653444193862,44.50545030295632,45.83929875019567,60.65892515543019,399.9999999999998,389.88619548727735,382.91309018617926,364.1635966230367,{}
171,171,6,0,6.840000000000005,21.41150910288752,126.4911064067354,18.418876576128355,27.42011057934264,36.83775315225671,39.827709177632855,51.8317754981382,119.06031314501531,91.64526102420598,80.91912078426117,81.82978613070782,86.7176429902072,32.47729985541946,34.74467071800086,7.145935218545787,16.847308909263347,18.41887657612824,18.418876576128355,18.417742006707044,47.96790324854794,49.38036378589379,57.85071193218122,400.0000000000002,398.6222691559629,392.0353179809347,370.02903936224607,{}
172,172,6,0,6.880000000000005,15.251135972392948,126.8971217481607,15.251135972392971,24.11416328884442,33.03660680023536,36.01633524955729,53.920908334386034,108.33840479014884,84.22715136864612,76.55200137117674,83.09915039337818,82.76195816905897,29.22332610768035,25.34561552800733,0.8617134621495097,16.14776096462856,15.2511359723931,15.251135972392996,16.70974800516069,44.54683941286157,48.44328289388551,57.14285714285739,399.9999999999999,395.9425186238976,383.5942316121807,365.3422765472252,{}
173,173,6,0,6.920000000000005,9.681796546577832,132.92651824830764,15.30826446476907,24.68383475881751,36.867182877936415,40.26975651266491,49.36766951763502,98.73533903527016,74.05150427645266,69.30829489871326,76.74414666230871,79.26444829498928,28.63716778812909,20.729961902390983,5.165656399806949,15.631641805747336,18.623307498038628,18.62330749803876,18.42128865108066,46.05803136364193,47.44323531442814,61.309551402778006,400.0000000000001,398.96755855276007,392.4771522956604,370.77615160100464,{}
174,174,6,0,6.960000000000005,6.139151572242757,132.5616125432824,15.651826831884906,24.556606288971253,36.96258714535151,39.90448521957798,49.113212577942505,95.206345783706,70.66694148308451,67.5075277323615,78.05909300535404,77.38439256161041,28.84344397004554,17.27982803143732,5.36012019196437,15.068309910277208,15.651826831884971,15.65182683188486,15.424401811141934,45.09247965687428,45.35486316277468,58.64416305107546,400.00000000000006,396.2726042958005,390.02943601267225,374.5385634409188,{}
175,175,6,0,7.000000000000005,15.601687257695048,134.50066095645855,18.722024709234084,28.255857384639786,37.57383854045461,40.68422283823328,50.02281473037634,112.50536678274491,84.30687541581733,76.48729078292365,83.20196711943333,83.6708690982399,33.41395500975443,29.06254464642973,1.0409623929505187,15.970801398150911,18.98027173210773,18.722024709234084,18.681054835652844,43.00768949613632,43.75793266222678,68.64742393385824,400.00000000000006,396.589857256332,390.1544974194579,374.4534953650173,{}
176,176,6,0,7.040000000000005,34.212195280781394,130.4233631016369,15.487133117489453,24.7794129879831,37.16911948197461,43.47445436721261,49.65552621616282,124.0518395973126,99.31105243232577,82.21088078470814,87.47776741007033,90.38167246837816,39.27863737364737,35.12206738822647,8.189771455292998,24.721152538862384,15.487133117489464,18.584559740987206,17.015365259954024,47.58228745867802,47.866984033021936,61.94853246995739,399.9999999999999,393.4829172152121,387.1907174454998,371.70410053995647,{}
177,177,6,0,7.080000000000005,28.557042151296105,142.9261636148477,15.865023417386874,25.581581594752965,38.076056201727845,41.37091952848965,57.2021554178249,127.07873854062392,101.58571597130894,87.31360285881624,88.11604734898492,90.16037021679529,31.95448594778361,37.91550216046403,9.84905082575915,16.669828992192038,19.03802810086415,19.03802810086415,19.02939790971141,44.421034277187744,47.26780163516662,66.63309835302407,399.9999999999997,396.6763502608643,390.27957606771486,374.4145526503282,{}
178,178,6,0,7.120000000000005,7.098628499999241,146.06624851209347,19.047619047618973,22.22222222222217,38.09523809523841,38.22728437711844,57.14285714285716,104.80999377282008,82.6007100397313,79.37826038625008,80.33057543675557,81.78705727870522,23.919913327402128,23.733184886126423,1.4378089978220032,5.060340758568373,19.047619047618976,19.047619047619087,19.046301010109342,43.20896131116996,45.56173967124221,60.40094473155717,400.0000000000001,396.8380950349272,393.7659841704784,381.1639624077112,{}
179,179,6,0,7.1600000000000055,12.698412698412652,149.24011775927792,19.04761904761904,22.222222222222285,38.09523809523808,41.26984126984144,57.14285714285711,111.11111111111109,88.8888888888888,82.53968253968253,82.53968253968253,85.71428571428567,26.984126984126988,26.984126984126988,1.5873015873015677,7.936507936507951,19.310357239041952,15.873015873015902,15.873015873015902,44.44444444444446,44.44444444444434,69.91338268427064,400.0,396.8761872258129,397.0285194424865,381.1639624077116,{}
180,180,6,0,7.2000000000000055,12.696813301379027,155.53596294189313,19.04521995206853,28.5678299281028,41.26464322948193,44.55206672954724,53.96145653086096,114.27131971241133,85.70348978430852,79.34258309856841,87.39890692088454,90.15946543342648,34.826229670128896,25.47413348478301,3.4835619324932168,15.445982153508226,19.04521995206853,19.04521995206853,19.04221994365639,43.17363279138664,45.97174992314683,69.90457691779154,400.00000000000006,396.9785127013796,390.63340671054624,377.9435272943265,{}
181,181,6,0,7.240000000000005,9.66203618674164,164.28618742193052,22.544751102397303,28.98610856022504,41.86882347588092,45.20438010360306,48.41741787128402,109.55042946713785,80.58135605258765,75.75427921280948,83.5017702606018,86.92443137175167,36.81220836394096,24.33065615969417,5.543222886535773,13.50463025377519,16.422303685745135,13.279198585491994,14.611414689174126,46.26172925776723,47.8428498797656,67.9402922154514,400.0000000000002,400.1944422054398,400.00000000000006,386.9642477172085,{}
182,182,6,0,7.280000000000006,10.023520220651758,158.77078845085475,19.01829244200773,25.357723256010523,41.20630029101709,44.48907579386332,47.651271148545725,101.62880714984396,76.3368557225228,71.47610400384713,79.9448367057247,81.7514996821252,33.19743219136012,20.776624228606465,6.097487545351896,12.64664083480386,15.84857703500647,13.069071426214052,14.453303811204478,45.39240728206397,43.81157717771339,70.37910350637563,399.9999999999998,393.8618521204229,393.8618521204232,377.8481583509844,{}
183,183,6,0,7.320000000000006,10.018802899712554,158.91729026223416,19.0093419548346,25.345789273112725,44.46813811486559,44.46813811486559,47.62884526081114,101.5809780748834,76.30092967658176,71.43457556549879,82.17019300617937,82.54166765810635,34.732879955143744,19.20523950460881,7.875262620845433,13.967446912442824,15.841118295695429,15.841118295695544,14.338921564369455,46.21144669967782,45.87711951294364,66.83375130632922,399.99999999999966,396.8381938148892,393.67649081807735,377.6703334960417,{}
184,184,6,0,7.360000000000006,9.556066635269024,156.60161622999564,19.37576135534905,19.37576135534891,41.53195506194826,45.04773012846117,51.065134062281466,99.20733465915907,79.88831064486477,75.09896845562514,80.44645704374841,85.22267277044364,31.83207304909206,16.360880146150066,2.3131868323405342,13.513880967884576,13.133557367551434,13.13355736755172,14.422298468844474,43.75388210807836,46.3011971623157,64.4198291599028,400.00000000000006,399.99999999999983,393.3623923517082,380.3933400540296,{}
185,185,6,0,7.400000000000006,4.577336213279785,159.4201501059541,19.419992857085145,19.419992857085145,42.57168764582057,42.57168764582011,45.42876479419315,87.62939287502738,68.27753301849732,66.47020210740891,78.26255307543647,80.39985860943682,33.945987459578305,8.223979989522832,13.669462784845225,15.26779561896717,16.503820422018322,13.345113633083866,14.84033451216726,44.41878457617975,46.72335749979743,68.6600431991963,400.0,396.77875342040215,393.2515254391239,383.2955409961462,{}
186,186,6,0,7.440000000000006,6.360232939846824,156.9895666522825,19.343893305234268,19.34389330523416,44.97363841691695,44.973638416917176,50.98114529809463,95.87932495022416,76.58734648831513,73.342923895784,82.19874029661662,83.82048445232442,32.15244452524496,12.819067567871798,9.028923923071034,16.19010879041093,16.215475935637176,16.215475935637144,16.180997868187887,42.6208941595624,44.16975093748584,64.86190374254868,400.0000000000003,393.3329726597159,390.1706138275542,380.0472028141429,{}
187,187,6,0,7.480000000000006,19.06323529894881,153.69271649658944,19.32618889711756,22.46623825206928,44.93247650413834,44.59420963671232,50.93448504266551,111.60995625115568,89.18841927342429,79.5683233976248,88.72024580646973,90.15656360906542,38.63326602365578,22.0419539705988,2.9647072592032373,19.50077631985289,15.886029415790846,13.0999554505949,13.018931877371188,42.31613218415691,47.12227252361061,67.92090408229578,400.00000000000017,393.3196098053252,389.813511993225,376.5357616624556,{}
188,188,6,0,7.520000000000006,16.088357324899263,145.9934471483353,18.931118755687933,25.43792647866758,41.49999850072268,44.28515229496183,50.58148682431048,110.83645052759049,85.4234321924965,77.20464619451548,84.46383097119553,89.13176244784574,36.36943461531678,23.872610189639545,1.525347687251724,17.660953342758717,16.08835732489914,13.009167040135493,14.499991870381336,46.23825037500626,46.12798427713256,64.35342929959704,399.9999999999998,396.52547705941015,386.7903431280096,376.79056505621367,{}
189,189,6,0,7.560000000000006,9.908155973338292,145.34964255627952,19.05871854901042,25.26094032588643,38.11743709802106,43.97703525025703,53.35705285122085,107.264655043599,82.00458220887371,77.09233775373866,84.44922994888532,86.59146675666739,32.35905072807759,21.704241342003115,3.607977781527893,13.699040639238431,15.97642145347942,15.666170143975782,15.728528141347851,42.788361502806254,44.93059831058855,70.0612427780148,400.0,396.5738654737376,389.7823728647787,376.82268622144704,{}
190,190,6,0,7.600000000000006,12.425896146929746,147.1891851064609,18.89594387198026,25.61664115337328,37.40690091987607,40.85928661607308,52.9013466072355,109.4343389784385,84.1045933922418,77.72583008822232,83.42879040238779,86.6114101906154,32.33210565208299,24.347961212251448,0.8370474009500413,13.751493015608505,15.839971731768046,12.808320576686608,14.284995754675606,42.82739229476476,44.57507368136385,60.31681535622162,399.99999999999983,393.4935237035324,389.8098884011224,376.9216945359095,{}
191,191,6,0,7.640000000000006,27.654059869738667,135.6142816510712,15.269400167902042,21.59419280674892,36.773585256643614,43.18838561349807,52.71814309449177,117.04769629602724,95.455125815917,81.61283728565547,86.1684891967675,88.42779624211585,34.593324268119886,29.72285088347553,4.888992294852073,19.741158281485923,15.571793883397762,18.57602704028868,18.574466938396256,45.00095180488836,48.57510147498829,62.28717553359169,400.0,395.651344002172,385.7692396651893,367.0885750286038,{}
192,192,6,0,7.680000000000006,49.376523057923954,139.82761150490836,15.400114423275305,24.83193836674697,40.15858519544511,46.60920383496937,52.721499449557065,142.21570007575625,117.4050426063901,92.54681142725089,99.14146445709696,100.80398202764638,47.27091625595517,42.00627728254858,14.519320116131553,28.92780572755987,15.705096791168344,15.705096791168456,15.683082415516084,44.66630539542757,47.2154990036035,68.87140542343681,400.00000000000017,396.2710091293462,386.2329048038649,367.156298030802,{}
193,193,6,0,7.720000000000006,49.04325633606439,138.88384538235215,18.6085956358758,24.6643352593514,36.83805889376338,39.88753492268875,55.405089224964,147.63777144843138,122.97969594753684,98.37914331690943,101.3176557568554,104.30310929009111,47.45744531605851,44.64097971866624,19.724647400403228,29.05653674642963,15.599095278710005,18.608595635875908,16.8612407097213,44.78180299853591,45.90838923749288,63.06773030260216,400.00000000000006,393.0252938549034,380.1337104362282,364.51132664590665,{}
194,194,6,0,7.760000000000006,9.831541885793342,146.94784388129565,18.654039162272703,18.91134840916471,37.43739614150027,40.536485657810665,59.80293459796203,106.84312515147788,87.93598392108261,83.10247543386788,85.13388989084035,89.79037417120674,27.66990559428814,19.377282194592112,2.0870696475744808,9.711830760046835,15.852884949292015,15.545032635227232,15.611280963857553,44.44994556078757,47.93767083851208,63.41153979716808,400.0000000000002,395.8340421139555,386.13060025318106,373.287992805024,{}
195,195,6,0,7.800000000000006,9.91576393856496,151.32508390097294,15.678199393213529,19.073352762316592,38.14670552463342,40.88374207739349,63.025581545971455,107.3470180754096,88.30042070504415,83.42868546866907,89.16755390408923,92.05987037233922,27.6051470513994,16.73150159481372,1.5193814358528923,12.85067190323764,15.988688928798751,15.98868892879877,15.94435217623925,43.42135862461498,46.44181569588875,70.11503921604282,400.0,396.0972266581316,389.43839390029706,373.470374253312,{}
196,196,6,0,7.840000000000006,38.25217322596957,153.836578466829,19.126086612984853,25.69990666502768,41.927398798081526,44.74123634178645,57.73136015531727,140.58360332445793,114.93347663680358,95.70182223090468,100.29302203594229,102.90872551052551,43.87248100550937,38.78740711785792,10.782917470397138,25.361348723843548,16.254048143045946,15.938405510820646,17.59655064719618,43.93650171992232,47.83261948276288,70.77800667498008,400.00000000000006,399.2753502082011,392.5509883058708,376.36242198016464,{}
197,197,6,0,7.880000000000006,47.12590928928344,151.32562501826442,19.11038101540569,25.3294151542094,44.09624379515176,44.09624379515176,56.63829411512527,147.96168035190794,122.68837258447728,99.0984950653326,106.60122024378065,109.10212863659648,51.26862205272732,40.01453428505556,12.817155513181888,33.137036204811466,16.019728737457303,15.708636429761125,15.630677455099883,44.3911239724834,45.95419171799341,67.16245830118633,400.0000000000002,396.4680588058772,386.7516056097284,370.7770655336233,{}
198,198,6,0,7.920000000000006,53.529764450115415,151.17645242497582,18.8602560185804,25.147008024773843,44.11938464301528,50.39215080832543,56.6680167861414,154.1536718210455,129.0316604333319,102.20024186427202,107.32554645762856,110.38404648621383,52.207668669760096,45.163850422109135,18.026613804843464,34.727877597299994,15.71688001548358,15.71688001548358,15.663227419118584,42.76339130876494,44.95068223829867,69.79427383062482,399.9999999999998,396.6761175029896,390.09536826793953,371.0382235095624,{}
199,199,6,0,7.960000000000006,56.71707394565034,151.30732496580612,18.87658322818388,25.168777637578653,47.29621171338519,47.29621171338542,56.71707394565056,157.43065382572826,132.2858119173886,103.87734284345277,107.85870441584984,110.03035618261195,52.240289722665466,48.37957547064411,18.459040017477605,34.62578094781759,19.1369621934089,16.042011038411342,15.804798969212923,45.122097820500926,45.36339246125232,66.73880003140495,400.0,396.7202378351139,387.0850401821515,371.29279000664496,{}
200,200,6,0,8.000000000000005,53.48365247985439,148.00038454736392,18.876583228183865,28.48912187055183,44.045360865762575,50.33755527515719,56.71707394565051,157.43065382572829,129.0283467273838,102.25443898720698,105.99317533043212,108.49812868039294,50.52902167868751,50.15514804436498,20.39480675229288,30.37723278870408,16.042011038411285,16.042011038411175,15.889629458706622,40.71483877772158,47.59411364925569,66.36699323854388,400.0000000000003,399.8638803345016,390.3189746203155,374.50451852454137,{}
201,201,6,0,8.040000000000004,22.5777086055642,151.73037478365902,19.619262846559486,25.80309554921605,38.83880193518786,42.05390064153066,61.28235192938831,129.0557887852602,103.26276656998844,91.96599646430276,96.1192995304326,97.6450026975823,35.684501853890765,32.124527797207975,5.339961085024015,18.39319929286057,19.619262846559486,19.352321661912008,17.7151089963495,40.85494036478696,46.2796627368748,65.22941409317481,399.9999999999997,396.8405784863992,393.6161583370669,380.6503230006776,{}
202,202,6,0,8.080000000000004,3.19836285721846,150.3570755761765,15.991814286091993,22.615840650343323,38.38035428662113,41.70154966297817,57.57053142993168,92.80765066382054,70.36398285880522,71.90077748393423,83.21849245825717,86.28093298072099,27.229090732341547,8.055550069959395,15.24562781835266,10.452242652757036,12.793451428873752,15.991814286092088,15.977950551985373,42.741017726560926,47.00180454042368,64.28629781251608,400.0000000000002,399.8465276833136,393.4116326980588,383.81686914676,{}
203,203,6,0,8.120000000000003,0.0,156.08501330361378,19.506393963766843,22.75745962439473,42.38871014847289,42.26385358816157,55.26811623067258,97.53196981883416,74.77451019443943,74.72905609603424,85.00524581197021,87.19649214845663,30.866349257057664,11.371812884179237,12.051854850674886,13.8275199854138,16.577247243512673,16.255328303138988,17.869991675138635,42.61596323373442,45.22279077196811,68.3497413669815,400.00000000000006,396.7499088307647,396.6433344123947,386.8904733133135,{}
204,204,6,0,8.160000000000002,26.00852528502236,152.8346679411009,19.50639396376696,22.75745962439472,42.38871014847289,45.63088101443509,55.36365323582662,123.58326488014367,100.8354583883279,87.83875400570275,91.6167649306791,93.69467093941614,37.30785788414255,30.923019420932405,7.386011358329027,20.382368940247943,16.255328303139102,16.255328303138988,16.24544697739873,42.72930356148379,45.33613109971748,68.58130524218994,400.00000000000006,396.8431379685533,393.4998337614639,380.49970273472354,{}
205,205,6,0,8.200000000000001,29.499279313640457,154.0866571503536,19.66618620909349,22.94388391060918,42.735949478495534,46.00467952107241,52.44316322424975,124.55251265759289,101.6086287469837,86.84562514068978,93.6587377386187,93.083791527823,40.93617020865327,31.162084625126795,7.819268466821541,24.147740853419123,16.3884885075779,16.713044539686464,16.414714318217193,44.50083671558673,47.43306239064469,65.88090844773117,400.0000000000002,396.7233010045259,393.3783486837928,376.9922348029538,{}
206,206,6,0,8.24,32.51065660627808,149.5490203888792,16.25532830313898,22.75745962439464,42.2638535881614,45.51491924878952,52.01705057004495,123.54049510385664,100.783035479462,84.49073707020773,88.7787285054959,93.20132056879775,38.99572480163431,32.496437334695315,5.922427632595372,22.07450299421908,13.404487114586864,16.25532830313898,16.2482186673476,42.07231058480079,42.61071309685485,65.34561105081305,399.99999999999983,393.499833761464,390.2497751943478,373.9290869699459,{}
207,207,6,0,8.28,29.499279313640336,154.0866571503541,16.388488507577957,22.94388391060925,42.61007011970247,46.00467952107234,52.4431632242497,121.27481495607724,98.33093104546798,83.52803793221335,88.90939611832232,91.13213102128044,37.61101427900076,31.17678166517487,7.428614017780887,20.41406529295693,9.833093104546892,9.833093104546778,9.826827992025072,46.44346086707094,45.85853062945034,59.81237029327099,400.0000000000002,396.81806999617,390.2663136996012,373.7868983844686,{}
208,208,6,0,8.319999999999999,32.940454223865494,154.05179197123306,16.38848850757805,19.6661862090936,45.88776782121879,49.16546552273367,49.274600985595725,117.99711725456162,98.33093104546802,81.93963059993348,88.55756912465745,94.97082913830764,42.50490413302123,26.1306232471062,5.662772139712274,25.1754568620944,9.833093104546808,10.36499021828796,9.892794701907178,43.66474902910693,45.165724776982415,62.62032666171575,399.99999999999966,396.8180699961698,393.5421766975648,377.063471597075,{}
209,209,6,0,8.359999999999998,29.91881398334303,155.4276047838774,16.84705995354247,20.09732748774892,43.078632461377126,43.07863246137713,49.5597042979505,115.68650011826423,95.81542830937092,80.92165235504456,88.36462001979089,89.97548394723265,39.67965421270867,26.482214807161085,5.463351753914026,25.25951086223552,13.215921146120197,13.622659706321862,13.37211139767976,41.882462113487406,44.25023800683579,66.81886608672473,400.00000000000006,396.6015142911367,393.2291792568051,376.66824352728014,{}
210,210,6,0,8.399999999999997,13.846961167285242,151.27634992837645,16.7919069078068,16.791906907807025,40.30057657873695,43.65895796029784,50.37572072342062,97.45094599019149,80.67108909527873,73.84313382681216,85.83409529992832,88.66569584056788,36.97453903236362,10.161015545491978,8.080655964614152,18.944755998087885,10.075144144684124,13.433525526245576,11.73091652550636,43.2252490693536,43.70681378714926,70.84513285532043,399.9999999999999,399.7743618492007,399.661495002838,382.85547749799633,{}
211,211,6,0,8.439999999999996,3.3878845665755923,145.83652725886907,20.327307399454263,17.27488951476933,40.79553243045255,40.79553243045255,47.551225870413234,88.3452208598772,71.22619414026911,69.51023916408894,83.01391394480743,87.1733972829029,37.54275454219999,3.251427116398532,15.16356249779892,19.12776492800253,13.968605915391423,13.968605915391612,13.767304006372456,44.27018181907261,46.18393471641252,65.16726079469274,400.00000000000006,403.172497980319,399.7703788559341,389.6214548106668,{}
212,212,6,0,8.479999999999995,4.671099827535186,145.6679316968323,19.81779818189712,16.51483181824749,39.772981858455736,39.77298185845528,43.06541252441446,82.83797496814248,66.38880227084684,64.5874440581697,79.85356719919162,83.76795774817163,38.75246643490186,1.017741542734825,14.013518165348271,20.43311866567558,13.61847919518912,16.51483181824749,14.796396275144389,44.93720350229012,46.189808477963766,59.819265042319046,400.00000000000017,399.7817487219866,399.65893000158894,386.5035213865245,{}
213,213,6,0,8.519999999999994,3.2241294010958743,139.57166431711522,16.43989873053574,16.43989873053565,35.611673201230765,36.0468625455294,48.36194101643705,84.07500858523336,67.78343894045658,66.07481975353744,80.93627669721559,79.19592187091632,31.96190970321311,3.9793506421558495,14.049943176358852,17.13956185675511,13.293426071377471,13.293426071377183,13.16021121459903,41.04499753260575,43.8804070810707,53.17370428550969,400.00000000000006,399.79204573587975,396.620337738362,380.6657916157492,{}
214,214,6,0,8.559999999999993,51.53085966262227,138.825823967748,16.422303685745153,19.32407237348347,38.78210752212158,41.992513031841206,45.20438010360338,132.20484081594807,112.90764430553664,87.12607816951243,93.68855703982422,99.86380889604924,51.61328490392748,35.14594662066065,13.746559000078603,36.24648655543331,13.279198585492034,13.279198585492148,12.982295156486543,41.90203899801577,46.2226772604572,55.59753501292853,400.00000000000006,396.26129584746207,392.9228049274955,373.6542573715224,{}
215,215,6,0,8.599999999999993,79.16600302757567,149.0215167173748,20.06449987040049,26.594030054620752,46.297825103524985,49.47875189223496,46.29782510352476,171.81155709866894,145.28753046283947,105.6004160542508,108.46932909156271,112.76252519704384,64.36742123075567,60.88810116422837,31.588563761892942,44.89543699878698,10.43103678412177,7.375856844858673,6.744997672829413,42.80987964896781,46.98099434860586,53.69704835817456,400.00000000000017,402.76500987448094,402.4407006144517,382.649899067954,{}
216,216,6,0,8.639999999999992,78.31345187664074,157.0335515265942,19.83121498102745,29.52265332008614,49.012028805668265,52.265489497502,49.01202880566815,176.53484618216729,147.03608641700447,107.80777704647689,110.16200566160762,115.32740177919436,63.79264205219511,63.63370678703871,31.46918250098952,44.20387062165503,7.29009961396857,10.309757745125204,9.903653710065214,39.336478126236784,46.21042834425589,60.115701459334325,400.00000000000006,398.8290840423803,398.0821624883614,378.2009250118224,{}
217,217,6,0,8.67999999999999,80.26972862911066,157.72587789292015,22.68556657537848,29.05170023574051,51.43173674442709,54.91594208203273,48.230176108154616,180.11825571142833,151.0933669368894,110.84841300316896,107.75916348031808,113.82253521460927,62.62925740736432,69.11476261682776,36.99424273327145,40.0643043708875,10.14529379412866,10.14529379412866,9.7474456994305,42.98086292662248,48.238343481039806,55.382526015357456,400.00000000000017,395.6664579710192,391.7318517553047,372.2092467735384,{}
218,218,6,0,8.71999999999999,70.81112595896307,158.37113495414263,22.736082317135484,25.92312232102877,51.54626385235096,57.96586369886281,48.657340979779526,167.97026161734837,142.0595836390353,106.69249113786192,108.0498046785873,110.8217830364066,60.78279440473614,58.48874334998891,29.507231691684296,38.18639151547734,13.257300226845896,10.167885120629128,11.556282188288378,40.585586576900255,45.61338180522097,56.15398096931762,399.9999999999999,402.5506683374915,395.6992887445579,376.211749463279,{}
219,219,6,0,8.75999999999999,66.33399659323908,158.54615738611108,18.93111875568798,25.4379264786675,47.43285317140523,50.58148682431012,50.87585295733522,161.40868182486963,136.00281085140242,102.78745644599314,102.78745644599292,104.52961672473872,52.78745644599292,57.66550522648083,29.79094076655053,34.32055749128915,12.6207458371252,13.009167040135305,12.71777003484317,42.50871080139382,48.78048780487802,63.80969715857006,400.0000000000002,392.7795298690114,385.9787453173226,366.6674208478302,{}
220,220,6,0,8.799999999999988,53.30587793692573,154.79393612825504,15.988688928798792,22.17232221547227,44.34464443094432,47.1390036314808,53.3980229978131,144.54585631603413,122.45065172964544,95.76571217784476,99.08568802618606,96.55443572192588,44.48033940457253,46.60805873279139,22.139286458275933,32.48440457133938,12.54255951457078,15.988688928798926,14.362105465476589,42.07748395632564,46.22286816475173,63.41439202933785,400.0,393.4697076836065,380.4605100629018,364.3958928726517,{}
221,221,6,0,8.839999999999987,48.23017610815466,164.40385204741526,19.2493415526109,25.665788736814367,48.23017610815442,51.43173674442717,48.23017610815453,141.3075911507308,115.6741466447633,91.38207947378488,93.5098146172628,96.36521675786082,46.76411828327855,46.02724031151115,17.583750601295833,27.88162025674308,16.041117960509027,16.358794700095814,16.30342512535003,47.21545604098594,49.4997777534644,61.71141294979323,400.0000000000003,396.18638783785696,386.3212781420664,373.2723686227357,{}
222,222,6,0,8.879999999999987,47.17235174581362,151.4321376316543,15.689290811054704,25.102865297687657,44.37601569801828,47.17235174581362,50.30369308968815,138.20831545727805,113.13708498984757,89.42448069646764,92.53545932707664,92.88625216969729,42.45516534768808,45.24304530746247,17.95505470781768,27.64801483286056,12.937720641002326,12.937720641002212,14.373275156849331,42.16899223923457,46.19387853877629,63.4592540381378,399.99999999999966,396.8739385206885,387.2300051946865,371.34267814969047,{}
223,223,6,0,8.919999999999986,25.260940325886388,147.79435354985603,18.799404172770902,22.15531028805496,40.85237363316825,43.97703525025737,50.22956259170865,116.31010381878892,94.20567155536185,81.52941876739112,87.02670597713484,89.12351536061897,37.8793173407704,28.21576105166901,4.2209684545792925,20.120253518912136,15.66617014397574,15.976421453479444,15.899285064333071,41.71739016880037,47.13262831571205,60.268959898972334,400.0,393.4548573235605,386.92585989798914,370.5703318441024,{}
224,224,6,0,8.959999999999985,3.182833529567726,127.9483243795557,19.36042053383146,25.66082428530191,35.15554539168389,38.32639097484125,51.02470307776164,99.12878693211364,73.48141809062572,71.89534243762284,90.02901754400602,89.21360445797563,38.6209288929,9.506975298492309,17.624041927614144,20.99688696528574,16.229330275783195,16.22933027578322,16.141472680285915,41.77138854347271,44.977444540819874,58.08126160149443,400.0,396.22122924541634,386.7109993085243,370.3182700353106,{}
225,225,6,0,8.999999999999984,0.0,131.115744603645,19.360420533831427,25.660824285301945,38.19400235481256,38.326390974840926,54.20170191343421,99.12878693211373,73.48141809062578,73.47581321989173,86.1817390754112,86.42252192690057,32.144510673839704,12.82631728126421,14.715536577566011,14.104318569938982,16.229330275783333,16.229330275783358,16.150972807599146,42.37778186214075,44.39665346309073,61.79944852024644,399.99999999999966,396.5151477284549,389.8808680872836,376.9206019572495,{}
226,226,6,0,9.039999999999983,41.53195506194825,124.88056314354732,15.92677772544821,25.48284436071715,38.35676006327772,41.53195506194826,54.24465029017778,137.11836446959862,111.66931604908514,90.7868707193718,95.41002035430029,95.66788527417668,41.35048179447949,41.350481794479606,14.016800287571982,23.520964477305256,16.242190082143107,19.37576135534905,17.590071320146194,42.95292808228328,47.07876680030711,55.62984301913106,400.0,396.829338636636,390.1898021210242,370.8716998419727,{}
227,227,6,0,9.079999999999982,57.83707332238156,113.01875500816674,16.04111796050913,29.05170023574055,35.43598779862171,38.63212781420706,57.83707332238159,160.69966032897767,131.6935730000058,102.57083524303027,112.350521748353,111.9241088770309,54.38618078362936,48.36078151494701,17.547816639408552,36.328522667639845,19.514862254855487,19.514862254855576,19.30908719486956,47.05373336589457,47.18351119629688,59.15672007263697,399.99999999999966,396.8094044268875,386.6009268176624,367.1419086500016,{}
228,228,6,0,9.11999999999998,48.9681323320063,111.51239062364084,16.28655854961135,26.261286571944584,29.496212048310664,39.22322702763682,61.974581937807805,153.40520362319444,127.2020886337372,102.48757241427768,110.87623492505486,110.6517891053686,48.910484873316136,42.43896373902669,14.308421005004677,34.097060774017336,19.81345361861692,19.54387025953377,19.60160158594089,47.93788632134215,47.39547559043342,53.025192951400015,400.00000000000034,396.4029244526192,386.688313062195,360.4300408173653,{}
229,229,6,0,9.15999999999998,28.87401232891637,109.83188416406516,19.51486225485561,25.86552551369696,32.24224806536934,32.24224806536911,57.74802465783246,131.69357300000587,105.91997683365166,91.21095279270196,102.940393096378,102.5204619545051,45.352563322268566,28.688932101586488,1.0116522963301122,27.23826088420753,19.514862254855736,19.51486225485561,19.307288636563385,40.65696964496283,40.122511828033794,55.38252601535724,400.0000000000001,393.2920985921952,390.0994091909675,367.1419086500017,{}
230,230,6,0,9.19999999999998,22.85809490091345,114.70954874439346,19.59265277221154,29.56983612169532,32.81728724142287,36.06798719224548,58.86859516047532,130.78085533680297,101.281360716852,89.71877356662765,105.74166127282854,106.5122634968219,47.298060894609534,24.53710252251653,6.531323727747576,29.536619390374995,16.650553134758965,19.86290902532528,18.184332968621,42.13878502909392,46.55565143490878,60.21177775656876,400.00000000000006,393.49593854166255,386.99278054756377,370.1634679467067,{}
231,231,6,0,9.23999999999998,29.833447628148026,119.01502003911982,19.76731889790244,29.650978346853627,29.65097834685396,33.1098493811584,56.00740354405689,135.11685063964327,105.47716562018608,90.37387991661672,106.45013798704474,107.40627695100034,51.153434571618845,27.88738644870181,3.140260322795029,29.96839478201673,16.79899079863603,20.039984452769573,19.83519654637098,39.42667139604697,43.794914113725895,60.11995335830831,400.0,396.7167334637336,390.1507712579077,373.2163105897136,{}
232,232,6,0,9.279999999999978,32.94553149650393,112.20843697695231,23.061872047552747,36.38952892820016,29.833447628148143,32.945531496504586,52.71285039440651,144.9977718553733,108.7202539384632,91.8904765761332,113.51176518228216,116.79356791714416,62.64382279192273,29.5362246137571,8.011459617457149,38.223349500156246,16.79899079863602,16.79899079863602,16.55379908908276,42.084293894111454,44.40086053048458,56.8728052398476,400.0000000000001,399.99999999999983,393.1714814842502,373.21631058971366,{}
233,233,6,0,9.319999999999975,57.07039252511141,114.14078505022214,21.35971965551927,28.47962620735906,28.70126088236564,35.59953275919867,57.07039252511152,163.9125581908637,135.46546087142994,106.89592156171692,116.63828582604948,118.18163066000318,60.34478300758883,46.41609588115705,16.668124206699872,41.51597603335392,18.152271221394045,21.654350396378053,21.43320138153183,47.959440715110645,48.9626148571806,61.45432176313003,400.00000000000006,392.9033841886968,375.1657059629692,350.03592460610594,{}
234,234,6,0,9.359999999999976,84.9098564201939,130.9801455038305,17.674217871028812,28.27874859364608,38.88327931626369,42.56515322003516,56.667853384301615,187.48005230347616,159.22498749234296,116.76537525064305,120.25637837591,120.33352761624737,63.62883596826407,67.15841371369982,34.23497539971777,44.823708636024776,18.02423636237328,18.02423636237328,17.744325277600183,41.27484358050481,43.6278954107953,61.02086110538732,400.0000000000001,392.9404365114915,378.82244230745147,350.5916235860462,{}
235,235,6,0,9.399999999999975,55.65006998041459,142.60330432481248,20.868776242655468,27.82503499020728,38.25942311153492,45.21568185908696,55.758655586068166,160.03175248215655,132.21467314312918,104.40057459300532,108.69283034305433,114.14361529997495,55.67587491711754,48.591753701328685,19.989376889055507,34.1576193206331,13.912517495103655,17.39064686887956,15.64014429276699,42.352789038093874,41.06131385666311,62.99160207961954,400.00000000000017,393.0440088883563,379.13205612776727,358.2642092242384,{}
236,236,6,0,9.439999999999976,51.72221606513276,148.27035272004727,17.240738688377466,24.137034163728487,37.92962511443062,44.82592058978152,55.17036380280821,148.27035272004693,124.13331855631844,98.23473608675316,104.85227428393203,108.94657849225848,51.7501008657074,41.3143859533219,13.168424930501146,33.944638378334275,13.792590950702142,13.792590950702026,13.787331380596925,44.31370182686328,45.30395214701679,58.71984007167154,399.9999999999999,393.1039652590844,386.2541157785367,362.12118550425686,{}
237,237,6,0,9.479999999999974,78.68588133029694,170.4860762156434,19.942813775809253,26.22862711009894,49.178675831435726,55.83217811321143,49.28784061799296,173.76465460440556,147.53602749430664,108.17604422364138,109.99934495109744,113.02524828602452,62.39955787474537,62.22498652849947,32.25690542297218,42.26566260773086,10.367775195894156,13.114313555049533,11.473216811598377,41.08245681650931,44.03077288643817,69.16168687800031,400.0,400.0403070051241,396.9246913643858,377.2645207847261,{}
