,frame_seq,video_id,gap,time_seconds,m1,m3,m4,m5,m6,m7,m8,m9,m10,m11,m12,m13,m14,m15,m16,m17,e1,e2,e3,b1,b2,b3,m_0_16,m_1_15,m_2_14,m_3_13,label_measures
0,0,24,0,0.0,35.27886192227132,162.282764842448,14.111544768908509,33.01082821745649,42.33463430672552,47.03848256302842,28.32091683127895,110.64047063546576,77.64912326609422,60.01614068201445,44.85136538794416,40.37012557941796,14.33347283683645,68.01742683289012,33.27158194069477,0.8118188058924716,18.961818525599124,21.167317153362816,21.15924535677982,74.5314609313707,78.15542008087448,89.40405788396451,400.0,392.8839802706742,376.37400255757575,350.4445873685356,{}
1,1,24,0,0.0333333333333333,35.27886192227132,164.63468897059937,14.111544768908509,33.01082821745649,42.33463430672552,47.03848256302842,28.32091683127895,110.64047063546576,77.64912326609422,60.01614068201445,44.85136538794416,40.30518007494664,14.301000084600789,68.04989958512579,33.30405469293044,0.7793460536568091,18.961818525599124,21.167317153362816,21.15924535677982,74.5314609313707,78.15542008087448,89.40405788396451,400.0,392.8839802706742,376.37400255757575,350.4445873685356,{}
2,2,24,0,0.0666666666666666,35.27886192227132,164.63468897059937,14.111544768908509,33.01082821745649,42.33463430672552,47.03848256302842,28.32091683127895,110.64047063546576,77.64912326609422,60.01614068201445,44.85136538794416,40.30518007494664,14.301000084600789,68.04989958512579,33.30405469293044,0.7793460536568091,18.961818525599124,21.167317153362816,21.15924535677982,74.5314609313707,78.15542008087448,89.40405788396451,400.0,392.8839802706742,376.37400255757575,350.4445873685356,{}
3,3,24,0,0.0999999999999999,35.69847887559984,164.21300282775914,14.476357979542794,35.7777208795985,42.83817465071975,47.59797183413306,31.030081246384785,116.83338867552226,81.05642525979351,63.20464032815096,48.88318754476552,42.50194981932725,14.684773771893788,71.11182620532463,33.80206360359,3.534122342763453,14.476357979542671,14.4763579795428,14.314846947230649,74.22317503418742,77.79032655772437,85.70939707481953,399.99999999999983,395.1276762796347,378.4113599651876,352.2330316787656,{}
4,4,24,0,0.1333333333333332,38.1364801102337,164.16052799516075,14.273329615604991,33.304435769744984,40.4411005775476,45.19887711608259,28.645608086764145,114.28571428571422,81.0220149174526,61.94553419573788,46.6985857609219,42.32234104739848,15.890102609966448,69.77523719756903,35.002966901936475,4.788702282370082,4.757776538534997,7.1366648078024975,7.130622376667702,71.75363536678185,68.18832417844794,76.27296022046723,400.0,392.6967418838554,373.5157613548271,352.0754638515907,{}
5,5,24,0,0.1666666666666665,40.99823066410776,166.1348757999746,14.444994006175284,31.38994655606492,40.92748301749624,45.742481019554496,28.9901269192408,115.78543509707708,84.39992428732722,63.89844203951134,47.89323227569912,42.34936744522872,16.149206252915405,70.65187737844792,37.90707575639749,5.04707694306444,5.383331422064055,7.613180307832185,6.069452015696584,67.18876181551775,64.72642185185441,72.3852920262169,400.00000000000006,392.5404788442134,375.5775604242379,349.087355149232,{}
6,6,24,0,0.1999999999999998,43.30988665602767,158.8029177387686,17.01373030383233,33.77129038510478,40.97448851833203,48.18221135636412,26.57629631829377,120.52159560000128,86.75334281824541,65.10884513297924,51.98690865233266,45.375856684984,22.137007345212965,71.82006455437863,36.5611207285192,6.110214697094875,4.812209628447596,7.608771502043392,7.2621404186784275,72.62140418678473,66.51118948968963,77.03294026880042,400.0000000000001,392.4606996004877,375.3600628140911,351.32426167046384,{}
7,7,24,0,0.2333333333333331,38.58466339227104,149.22440080563274,19.40460615532925,33.78168183374377,40.987096395854486,45.73005831140357,24.068451742844047,115.753990176813,81.97419279170897,62.65555655930143,52.99773352410466,48.73591837690037,26.808192054994493,64.82083360989725,26.87693100898184,8.042457616498382,9.923676878082816,9.923676878082706,9.65782303519677,73.89437553620292,70.25121097488329,84.27395758826503,400.00000000000006,394.90601453840856,377.9053515669498,351.39939544552243,{}
8,8,24,0,0.2666666666666664,48.65042554105194,143.51875534610338,14.7964492782088,31.716197120135927,41.35286170989417,46.21790426399928,29.190255324631188,124.15394147360756,92.4678098474716,68.13535574389641,60.73558598259172,52.25817984828154,27.35759538936702,67.63245876982728,34.78610212061858,13.937430424204765,14.796449278208684,14.595127662315647,14.569643763034946,73.8109073083923,78.88298250400487,80.31005006854276,400.0,396.97823111139394,379.66818275183766,355.2230735082713,{}
9,9,24,0,0.2999999999999997,39.251986577164416,142.3095984704265,19.778727057365977,34.34548825501898,34.34548825501898,39.25198657716453,29.438989932873422,122.6869880924912,88.35103613346413,68.73465750821242,61.58691803335592,54.314508683938016,28.528622962144937,64.72444320981913,28.52862296214505,9.495688779097009,19.77872705736598,19.625993288582205,19.614726931001314,77.2537656032448,79.58093659505857,85.89875990472203,400.00000000000006,392.5505301883765,380.324836660029,358.3087769125444,{}
10,10,24,0,0.333333333333333,46.59421085147011,152.12335373921383,19.77129144542756,34.42004809091249,41.76162205290149,44.14188396455073,27.086835798180672,127.73304242018276,93.317402279137,70.04282542271699,55.49925986258302,53.415573799756544,27.39765593419247,73.26690723614468,34.97213635176456,8.70079720828926,17.340569714268472,19.618615095355985,18.37304264857209,75.9982254536335,80.78507181418092,83.37911415526251,400.0,394.89316614344176,385.0153212463591,363.0189355995551,{}
11,11,24,0,0.3666666666666663,39.45808984850792,145.5226042276216,19.882580663387103,34.613792654576635,36.99195923297625,41.924220464039706,29.59356738638103,123.40513657465394,88.81494736857815,69.09274792565316,60.31774748798,56.248583247166266,28.71944149553883,65.12046854771609,28.940892610685296,12.249014806531022,17.438176815342604,19.72904492425401,19.709149248022868,73.9646724588722,76.20686499972874,86.31457154361118,400.00000000000006,394.7041857552297,379.79212162507,355.1313714868628,{}
12,12,24,0,0.3999999999999997,29.962570166335333,139.91447334130254,22.61021771538605,37.53634979735943,37.53634979735937,42.44697440230835,27.465689319140687,117.45960201166248,79.93919135326837,64.95710594119089,61.79560014173762,58.98227780037382,32.96600981192091,57.060305111719344,18.008048452392813,11.503981455279586,20.13049695687285,19.97504677755685,19.94394847937076,76.28003199826378,80.77856227678114,87.3908296518114,399.99999999999983,397.2866199032063,379.59980239070495,354.5922458936183,{}
13,13,24,0,0.433333333333333,17.4781659303623,135.03947884926214,25.093341955064684,37.45321270791915,32.55534324907107,37.53634979735949,30.066426873469016,109.97619329777385,72.58153897857738,63.85761062566587,62.118791330710565,61.23178229765642,31.615536249571733,48.28567426760458,9.341753863990562,7.62405383172711,20.13049695687304,22.471927624751487,21.182620479839898,75.42392682652235,81.42179743098359,87.42649210163367,399.9999999999999,394.791526159291,379.599802390705,352.0956144227879,{}
14,14,24,0,0.4666666666666663,15.064574765584815,133.44885530417412,22.596862148377053,37.745036210865614,35.2402304566555,40.25058422869597,30.233583638179542,105.57151577517332,67.83706611219314,60.289514148004855,60.23258353974438,61.20040388017503,30.486340723566173,44.832854005244485,3.2735099749861547,9.13736262583086,20.242414104776444,20.08609968744637,21.29204748947484,75.31919472881054,79.98750460618203,85.36592367164698,400.00000000000006,392.1936339352666,376.8235412574615,351.58743834715494,{}
15,15,24,0,0.4999999999999996,9.971993098884589,135.19775815382346,27.42298102193249,37.47798193465528,34.9908982216695,39.96580265958624,27.87256805033082,102.48618576285666,65.0094413949124,60.03918124611823,61.24564233498825,62.16823022647725,33.958331236722984,40.771287973871154,0.1774207483632608,8.125870275036164,17.628159855416804,19.943986197769178,19.871123816682143,75.2973656053565,78.49093907589463,82.30670709948987,400.0,394.53223792481646,384.21301322008463,364.0545789882159,{}
16,16,24,0,0.533333333333333,9.900527584553336,139.4006940772124,24.75131896138345,34.74013164837515,32.27177162099781,37.20939137021191,27.672815865216496,96.81531486299338,62.075992148043845,57.14284132552496,58.58841915667654,61.47957481898004,32.48298420587878,36.77720070429984,1.6156458112872087,6.845236200453542,19.955151307702337,19.801055169106785,19.727885695716964,74.91494524968368,78.1887538672919,79.20422067642691,400.0,392.01745012666674,379.3497962937106,359.31209349777254,{}
17,17,24,0,0.5666666666666663,15.051533894137672,143.7795756416099,27.70827095386324,35.209724231135944,32.70799865488361,37.712361663282586,25.211007257194662,103.12711366684653,67.91746972759393,60.414716149701576,61.80649851516239,64.6610725504446,38.02548248491439,39.88592625915294,1.171653521944222,11.8088473151098,20.224890960298303,20.2248909602982,20.10273406438705,73.32420768239513,76.64744312645496,80.31403457341182,400.0,394.6465752679202,384.3384283830552,364.0566802985626,{}
18,18,24,0,0.5999999999999996,17.575337226515597,146.16433371468582,27.73227780938201,37.745036210865656,35.24023045665556,40.48482820955288,27.73227780938224,110.73003306692128,72.9850619939469,64.22102402411156,66.63855592935931,67.60556869145842,39.39154927962545,43.60089894993939,2.2468825942891044,13.054672288337995,20.24241410477638,22.59686214837712,22.52570904654408,71.53050284350775,75.93894337660663,85.40283866739257,400.00000000000006,394.8368559088327,379.5322883362627,356.7492188105555,{}
19,19,24,0,0.633333333333333,27.60696855894759,141.10366149724842,25.09724414449787,35.22566077999962,35.2256607799998,37.97902196943912,25.594267526039424,113.18829285138608,77.96320641307884,64.19447256453213,66.41199641751416,67.77662648088778,41.67807651886801,46.08469443184515,7.249597211672153,15.551096763861324,20.234045106491827,22.58751973004816,22.516396045664123,76.70358147878994,76.10655582606398,82.85892307874268,400.0,394.8251993431716,379.4998760121493,356.6988590632208,{}
20,20,24,0,0.6666666666666663,27.94397192408184,145.60059109084452,25.53031292701072,38.105416260111824,33.413233271042984,40.96209166603038,25.906701477851453,117.10485975791718,79.1190963296808,65.21033673370823,68.66264867843392,70.06914613739639,43.59431770531228,47.6859466768392,8.673400996934447,17.22604211102862,20.481045833015138,23.00394800562371,23.001205919798167,73.30835240652164,75.89403460380595,81.45017250675052,400.0000000000001,397.2803116555376,384.1325011050159,363.7066112850931,{}
21,21,24,0,0.6999999999999996,32.57835865183056,143.63276956473635,22.693044981592084,32.674602166241314,35.17377335661778,40.40848068731852,25.18526556855118,113.021566415515,80.34935690179188,64.0811448521722,68.0341331141434,68.37601318004363,43.01990829244414,44.743553624691,8.88888171340568,22.122489264293336,20.204240343659205,20.204240343659315,20.19941389360463,71.23925873195799,73.09110908891762,80.349356901792,399.9999999999999,392.2953869278344,379.23906848849606,358.7910426496054,{}
22,22,24,0,0.733333333333333,30.261184191641384,149.827669953266,25.217653493034355,35.39466335422141,35.394663354221464,40.662244453625,25.71706144960088,116.24763874381924,80.85394789558556,65.74775114350791,68.44233110840571,71.7892830648052,44.53147941989096,46.0773173997535,10.111765868274688,21.116997724910107,20.3311222268125,20.331122226812614,20.322805735256,72.71111305279646,73.1223910474389,78.33725142136649,400.0,394.7589874690624,381.7956070105984,361.1763152306983,{}
23,23,24,0,0.7666666666666663,40.34824558885512,147.04292441876157,22.83555646595235,33.168644568506586,40.6622444536251,43.16566968953012,27.85380868368991,123.97753527467054,90.92354271601934,70.76723322055125,73.26305462595155,74.26138318811172,45.90885202276388,50.201664840052445,14.00512354344653,22.50517815840988,20.331122226812465,22.83555646595235,22.833200400262623,72.64979565205329,75.68756684834057,80.7358841462161,400.0,392.0432797885267,381.620675832135,361.325945361986,{}
24,24,24,0,0.7999999999999996,47.97985798910839,144.8204853360635,22.83555646595227,35.39466335422137,38.1612343775851,43.16566968953023,27.853808683689984,134.0336668429868,98.63939238321436,74.64819700682517,76.15774471046632,79.17684011774895,49.81507422016261,56.32101221050402,17.965743796857623,26.25762554925348,22.83555646595227,22.835556465952383,22.83456667198232,72.07558754005606,76.20026718099155,80.85394789558556,400.0,392.2459888122103,381.7956070105985,361.325945361986,{}
25,25,24,0,0.8333333333333329,57.89370422073036,147.05224058818192,22.793469077918463,35.597418123901505,38.09090078700698,43.08611260526677,28.142230023221725,144.02664343422168,108.49915522780032,79.64635158201315,78.7762475546051,81.53511398297223,52.10013139724015,63.85714679197372,25.31790499263036,26.33656336618128,20.293650670925583,22.793469077918463,22.79248110820197,69.43854579705499,71.05142155517728,83.10300936265118,400.00000000000006,392.2263680317184,379.2085871600637,358.9254324280161,{}
26,26,24,0,0.8666666666666663,62.969096054259424,149.96695380101332,22.808376662867538,35.62069986012334,38.115813332672,45.61675332573508,28.16063585180764,149.13974839707524,113.59597003942974,82.19944114587577,81.72104658939509,85.98438631332533,55.76814190032144,65.2516104611434,27.05039808335277,30.089610559817743,20.30692330267246,22.808376662867648,22.80816400162007,68.91695698947262,74.37628310460445,83.1573611231209,399.9999999999999,391.9976694811688,381.74024492001615,361.2472885563215,{}
27,27,24,0,0.8999999999999996,60.42138227168954,146.95044110763092,25.153750562333787,38.06453169600695,38.064531696007,43.05628549168703,28.12274807322587,151.44563320384572,113.44313616936816,83.21767324241989,81.22418157962989,83.98113813455211,54.56653242934408,68.81787708248021,27.802846488484303,28.82079967799405,20.279602036994383,22.7776899010572,22.90394676396864,69.64496404895681,74.01367982060265,83.1596840972746,400.0,391.9548424815853,379.1880968342302,356.1721340224369,{}
28,28,24,0,0.9333333333333328,57.54870245001976,151.00263747404003,25.12223582924002,35.3518868951773,40.30735266876528,45.27250476349885,27.94812054335452,145.75956373370448,110.44282526629858,81.7117855134511,81.51297338324798,82.72004703090954,54.24020937932346,63.64118296463869,27.9828073260785,28.792256713333813,20.15367633438267,22.636252381749483,22.636181110260964,68.46237712206266,74.27053149727999,82.64330603276339,400.0,389.785614947494,376.8335374385997,356.4497640484247,{}
29,29,24,0,0.9666666666666662,50.64951974559899,150.2763015690588,22.903933372554768,38.02396180478126,35.769934368378564,43.6627693238757,30.770461021756017,142.20517246418922,104.19432526310256,78.90695585079925,79.98013563688755,80.91210755638508,49.719289826532645,61.72195848672925,23.482868214008363,23.765283947189573,20.39200006211717,22.903933372554768,22.90391596098721,71.36645577486377,75.54620862594413,83.50575259054739,400.00000000000006,392.4680719816456,379.3131274034049,361.1612175054071,{}
30,30,24,0,0.9999999999999996,37.93974473171735,147.76490183231803,25.419314376722465,33.26796202175854,35.500646214503426,40.784000124234375,30.77046102175606,127.0965718836122,93.89181929490884,74.98321613893177,75.4530445763495,75.13047579842089,44.549553177839016,51.77228885754539,15.658610459013744,18.786125131974018,22.90393337255473,23.319144216827542,21.801441969132952,70.19377102316514,76.9536906301912,83.62058980170184,400.00000000000006,392.4680719816456,382.11934512980497,358.64599429006853,{}
31,31,24,0,1.0333333333333328,7.4938552161816,143.45291216268734,25.10410428177089,32.56930596638098,32.56930596638093,32.855425424102684,35.060423402107055,100.19869504348569,67.62947728353728,63.83927786053903,66.56745212808357,66.96427747608993,31.74602784051672,33.333329232542496,0.0992063370016467,8.730157656142183,22.619915050654782,22.619915050654782,22.61904483636806,69.34522956412866,75.09919711022224,75.3123128453129,400.0,392.5600897568236,379.5736096032573,359.43607306022665,{}
32,32,24,0,1.066666666666666,2.5293163154478675,147.76490183231806,22.903933372554768,32.97825001437151,32.9782500143714,35.76993436837862,38.02396180478126,96.41307902601748,63.43493047082553,62.145582086500895,66.84780404396633,68.06219169664496,29.47008175744781,28.90525029108551,4.87167139737403,8.543075928728285,23.319144216827613,23.31914421682739,24.30187384023361,73.87995580017537,72.75029286745121,73.52440183322817,400.00000000000017,397.1912582645084,381.8262477706389,363.9491947970797,{}
33,33,24,0,1.0999999999999992,2.529316315447754,147.76490183231817,25.29316315447831,33.26796202175851,32.97825001437149,35.769934368378564,35.769934368378514,96.64504071312815,63.434930470825385,62.13265216431762,65.09134988642802,65.38934821815121,29.48054924548819,31.396252806566736,2.277558678171204,6.151536990574755,20.857276658378936,20.392000062117106,21.64745024018885,73.17987603320444,75.90443220896077,78.57181802507115,400.00000000000006,397.1912582645084,384.6307627719496,366.4629339608756,{}
34,34,24,0,1.1333333333333324,10.061500224933493,144.168518919758,25.27920645561532,32.79647823316669,35.30497131685059,37.814378723122765,30.289126640769165,98.38943469950009,65.59295646633338,60.52853330785808,67.34010870107693,64.63240171246821,35.72198855284353,32.29504689538567,3.28591525180127,10.12569592615148,20.27960203699454,22.77768990105724,21.52768082349609,69.65294175384702,71.06320581041416,70.83360471627977,399.9999999999999,395.0019922342529,382.2211513529841,361.6720983686383,{}
35,35,24,0,1.1666666666666656,15.092250337400191,144.4535022049393,22.777689901057247,32.796478233166816,33.084593386032985,38.06453169600698,30.28912664076912,100.89758511825428,68.10119570676358,60.54125711749248,64.43621911386265,65.02893072200595,34.46194635918812,36.07073500986269,0.3810288909492101,11.261520554722438,20.279602036994376,22.777689901057247,22.777060370077493,70.27866210841785,70.19398902154023,70.83360471627984,400.0,394.7215790407912,381.691070624524,361.18193266642896,{}
36,36,24,0,1.1999999999999988,19.998047161055645,143.55652164650922,22.636252381749472,32.5928292879276,35.08574594395372,37.828170899100805,27.610706316574746,102.7639888996504,70.17149188790744,60.15097244415768,64.49176427002465,64.18170771103416,36.74170224037459,38.291985035327,2.9455373104096907,16.27796934700143,15.205421493800811,17.675943447588676,16.43299762649667,71.62306512680618,70.38283889084414,72.87978186685228,400.0,392.27056485984,382.0621545552115,356.6863486841476,{}
37,37,24,0,1.233333333333332,24.96719032052172,142.99462161720928,19.874626323175992,32.391677932138364,34.86920919278183,37.59470887602298,24.96719032052183,102.12976609220776,69.73841838556353,57.13228067304351,61.86542713468225,62.90458410219992,37.43100337106466,39.56625741390917,4.26339057221287,17.558905745658308,10.243147950016924,8.957373036112173,9.11041724947006,70.30679811739424,73.509679181661,75.18941775204596,400.00000000000006,392.319409874525,377.233614375553,354.7373749036401,{}
38,38,24,0,1.2666666666666653,30.017593589626813,146.13786944860297,20.167464708603905,32.90165005674925,35.109750268865724,42.59843325109262,25.01466132468904,107.8245072536372,75.08566350184259,59.92231598791477,61.13578622489274,61.77141349188116,36.60635214883701,46.25632974766222,13.203711864260868,18.46208289116555,7.910330468374175,11.186896631227944,9.12991892583466,70.43905804172414,77.31538938459948,77.90771994823282,400.00000000000006,392.53894137112695,377.3484668941224,354.44106825295245,{}
39,39,24,0,1.2999999999999985,37.78145763255576,141.85806758942618,17.810349930061577,32.840662596029205,33.12916590595228,38.11581333267208,27.82065595380955,116.1092761015584,83.27171922591141,64.36556033782722,66.66225377354908,64.5690648194734,37.80822548299193,50.30921506983293,14.63778664412655,19.638182478862745,10.38512936725498,11.264254340723149,11.861404073095628,70.29626237437492,78.43644164022476,78.12229376756137,400.0,392.7495140784796,377.4533808544804,354.38568665904467,{}
40,40,24,0,1.3333333333333317,40.12745484890185,143.46393543824766,17.69946157950604,32.92290165078486,37.629571479408696,40.127454848901984,27.64744281301188,117.88426064351248,85.14158535245883,65.12101715096946,65.24979965027921,65.50736464889872,37.733272297760095,52.41447721907287,16.61294241095925,19.617867394853647,12.76326325460277,15.225652555843263,13.951437425223958,71.60306961622746,76.06752959229914,77.75685915689428,400.00000000000006,392.5292081235952,377.3349206247734,354.43144192067405,{}
41,41,24,0,1.366666666666665,37.80469922715386,146.95825506175274,17.82130612282551,35.374282615742565,38.13926060910772,40.63883056882893,30.34859075110453,121.21108660505934,85.83877727824552,66.95557614944687,68.33676067807733,68.5917485910552,38.120692990196176,52.65500402993632,14.066833199280724,19.84655922677985,15.330467195208428,17.821306122825515,16.55296535081527,69.78169218495213,76.66636583535546,78.1703513808614,399.9999999999999,392.4735553930703,374.4425634408166,351.41880494065424,{}
42,42,24,0,1.399999999999998,35.284385945343544,146.72033588215382,20.31941528441446,40.4036955350198,38.13926060910785,42.9193886391227,27.83777007400636,123.72659165559654,83.32294455338707,65.7092086628727,67.96128132420324,66.45039713369033,39.36851069996828,56.44435277765206,15.493689764976809,18.48695089712487,17.821306122825494,20.319415284414458,18.935940066947182,72.8502745067118,78.63724602886498,83.32294455338696,400.0,392.4735553930703,379.6900265441486,354.1376485711952,{}
43,43,24,0,1.4333333333333311,38.06551850340927,147.73257755049235,17.944257508761712,35.618334148449,38.40238806554413,43.21549478759172,28.029826278438364,119.51468239387071,83.89779981048878,64.90591193412172,65.17570242345641,64.63612144478714,36.87610004220392,54.56867634277637,15.718845878598358,18.246356778680024,20.45960143314081,20.301609868484885,20.33368319616329,71.56547717085414,75.7117310069433,81.24608137987595,400.0,392.4175678981378,379.5539214811682,356.37313483149035,{}
44,44,24,0,1.4666666666666646,30.434657755578648,157.98033816816746,15.217328877789267,33.06828234028111,35.59756481232482,40.89534255112147,30.540150819747943,109.17542368412616,76.12890301169304,60.850469261607145,58.05340266327812,59.05235501982429,28.013478227142286,50.51844774533038,16.753858094072825,14.456267674016884,20.44767127556068,22.966462293680426,22.96163345260925,71.69623770410749,75.94892059340373,83.69530882784132,400.0,392.1887460690551,379.1205762725365,358.69381471343627,{}
45,45,24,0,1.4999999999999978,30.60865964957084,158.88354786664848,15.304329824785476,30.71475584169751,38.34575435472856,40.89117856041638,28.517934865247987,104.85917066899638,74.1466306496449,58.88586527870768,53.95017986532764,54.14988967974182,25.634181178739823,50.78335280818783,19.471706905386668,12.096708758804311,20.56457528539872,20.564575285398835,20.555845897921017,68.77150109221179,76.93107350970718,84.17381403631978,400.0,392.3885451077989,379.44074176699456,361.4202448171594,{}
46,46,24,0,1.533333333333331,28.075639282315617,161.3024630605178,15.313985063081336,30.734133252550635,38.36994603121276,43.68886667997318,30.734133252550865,104.76999456391006,74.06158710217244,59.95074236972687,56.52498566288523,53.941394146475545,24.50129744705623,49.42367748932816,18.09227760800684,10.955284468753575,21.04705932140496,20.577549122025868,21.717870122747627,71.5983151729879,79.52037755755896,81.71445744091679,400.0,397.4594619064482,381.9723211416211,358.6365432976822,{}
47,47,24,0,1.5666666666666642,30.540150819747808,157.7562380205529,12.932242815434504,30.54015081974793,38.12776918449661,43.19029548620734,30.54015081974793,104.10872527535544,73.59413787478485,58.43236946762306,53.31927411989807,51.1590088701048,21.7008463729236,51.76219981647546,18.08170069469816,10.745215463257637,23.38280668500417,22.82599331668388,22.84410363174254,71.0222270110612,76.14233620699986,81.15908734820972,400.00000000000006,392.4264933788701,374.51155506953086,351.3193181810088,{}
48,48,24,0,1.5999999999999974,30.452414802727382,158.07251151658983,15.43623397659401,30.557969416638013,35.618334148448994,40.91920286628164,28.02982627843846,104.32390694791609,73.76814204274582,58.5859839236133,53.546779683340674,53.993468147852354,25.74042276748696,50.53163254788672,16.820612491768884,12.0047524837521,23.39644934213916,22.97986203541786,22.85788626993497,71.12117895897313,76.3697684169855,78.70965826303713,400.00000000000006,392.4175678981376,374.49798691268063,351.31355156237635,{}
49,49,24,0,1.6333333333333306,35.50710071484173,152.9322625074739,15.42723298484038,30.54015081974789,35.59756481232477,40.89534255112144,30.854465969680653,112.05392744830148,81.51496325054708,63.83019021871246,57.93558162331669,59.61975550771547,28.013425610498984,53.27603387648037,19.2557214116257,14.4277562763491,22.966462293680376,22.966462293680376,22.848625698342858,71.63352921642672,75.56326828002375,76.0866443889466,400.0,392.188746069055,374.06472577900666,353.6369577026417,{}
50,50,24,0,1.666666666666664,33.199906883232,146.12780166809097,18.05836868607337,35.84483836806182,38.64659664935398,40.94115353962395,30.752293749348784,117.72616057228512,81.88230707924791,65.31936600338736,62.97340867829814,62.80382140178574,32.13678889911364,54.8049548596141,18.00451585640758,13.369130298400025,23.125995644458865,23.12599564445886,23.007340513525605,72.35723797865501,76.08815806192956,76.65772189695426,400.00000000000006,392.36974812054007,376.8794956581129,353.7597091870724,{}
51,51,24,0,1.699999999999997,30.62797012616255,146.28663691275815,22.970977594621857,33.278322752158786,36.095408950314166,41.15509824405166,31.050444843752423,117.65663842283058,84.38146278029406,69.09909346369648,62.49413639069724,65.74040252657551,33.172342916627144,53.52123194152682,16.84264053614811,11.755418279923106,23.112338790980623,22.97097759462197,22.892500153012293,72.96369600640878,75.19813893110438,76.61245235301726,400.0000000000001,394.679818478273,376.6569327842696,350.79463905764027,{}
52,52,24,0,1.7333333333333305,25.377012335606214,145.20441729289254,22.839311102045485,33.08757597102804,35.61833414844903,40.91920286628172,30.557969416638,111.77414481256923,78.70965826303716,65.96440719475208,61.9263403277148,62.62496781336142,31.71768784835581,49.42090833464045,12.952553583887948,10.423522085847369,22.97986203541777,22.83931110204561,22.866077605213377,72.33588986384905,74.76711351389918,76.30002952775833,399.99999999999983,392.1959581015816,374.49798691268046,351.3135515623764,{}
53,53,24,0,1.7666666666666635,20.56457528539877,143.40863898611212,22.95649473717815,35.801084225902606,35.80108422590243,40.89117856041635,31.03086800317681,110.15456107651512,74.36567582597503,64.07733546285192,62.27681529282131,63.12411890224746,31.773885353480296,47.44900212786388,7.837558387191734,10.379469215470294,23.09776680741918,23.09776680741929,22.9831104056841,72.86811041064789,72.868110410648,79.11350073596,400.0,394.6700853275301,379.1920321781616,353.55799112795603,{}
54,54,24,0,1.7999999999999967,22.97097759462197,146.2866369127582,23.112338790980623,35.82367051379656,38.62377424135985,41.155098244051736,28.191415605591,110.0170064323148,74.19340848284322,62.74006564341528,59.73972876025505,62.98599489613344,33.172342916627144,48.644806187631616,11.755418279922992,9.211807151810715,23.112338790980623,25.65060752461165,24.269703968233443,72.96369600640867,75.40893543343407,79.16341208201497,400.0000000000001,392.3788449105136,377.1408901295313,354.0295414924274,{}
55,55,24,0,1.83333333333333,30.627970126162435,146.28663691275824,23.11233879098061,33.27832275215907,35.823670513796664,41.15509824405166,28.19141560559108,115.1098380936382,81.83395220244928,66.55232318817514,62.67548882769893,65.11958005495569,35.70620632003806,51.18545075933116,14.39766383872518,14.397663838725066,23.11233879098072,22.97097759462193,24.15295899579303,69.60041397159284,73.44915532945708,79.16341208201504,400.00000000000006,394.679818478273,376.8903469423674,351.0081335589228,{}
56,56,24,0,1.8666666666666631,40.704569215662175,140.22534619450175,22.851731397221496,33.10556939729132,35.63770383179103,43.2389958992949,30.889256776768345,127.35966838744218,94.25430816222666,73.90615736439383,69.58354331027101,70.6378394210326,39.32524493141079,57.24827881435931,20.558774159852646,18.028463494024777,23.40917261586649,22.85173139722137,24.037951325366294,72.32471319825117,75.06588308623168,76.2147442633641,400.0,392.40923903394594,374.4865128138457,346.4427286982223,{}
57,57,24,0,1.8999999999999964,43.49031089441048,141.04036817780673,22.98455091916064,35.844838368062,38.30758486526764,43.49031089441053,31.068792245955844,133.19194634195077,97.34784018784664,75.60809794905731,72.46854038139554,73.65723701057709,42.10083767236426,60.1270724372464,20.66234434841988,20.872114341804945,23.545232114457026,25.665764216098207,25.556977527402523,70.51068710980246,75.4053202887851,79.21018896294471,400.0,394.9130308978591,374.3356526234776,348.671513828822,{}
58,58,24,0,1.9333333333333296,35.547137729011006,140.01830349019855,20.47072761325393,35.637703831790915,38.17076120593318,40.70456921566229,35.63770383179103,127.18237533565336,91.5478769842356,73.80072775331769,69.58354331027101,68.10752875520461,33.210327488993016,58.30257492512078,19.08275960478636,14.443856717435096,22.9923587639007,22.851731397221386,24.037951325366294,72.32471319825129,75.06588308623168,76.3415224118664,400.0,392.40923903394594,374.288483398701,348.9736052507947,{}
59,59,24,0,1.9666666666666628,20.289771837052385,139.86059979986112,20.28977183705249,30.540150819747964,33.06828234028126,35.86758813676903,38.37999532526658,109.3226199538652,78.78632314661864,68.66268391198503,64.45024931615762,62.97589720761812,25.379918439859463,45.59960449983055,11.268262543838093,6.634584488428004,22.966462293680337,25.362214796315502,25.27460757496374,69.71579256094174,72.45387504822952,78.66376203044314,400.0,392.4264933788701,374.5115550695308,351.3193181810088,{}
60,60,24,0,1.999999999999996,7.6131037006818305,142.67659579667006,20.45960143314085,30.557969416638,30.557969416637945,35.888515017523495,38.15001476387922,96.73269732274748,66.1751519420563,62.38044819338506,61.9263403277148,62.83455605905533,24.23538747708062,34.3515134692434,2.312456977490342,5.260664966918967,22.97986203541777,25.37701233560621,25.29031498040706,72.33588986384905,77.50573325763389,78.83229088727872,400.0,392.41756789813775,374.49798691268046,351.5242948147955,{}
61,61,24,0,2.033333333333329,8.024915919070503,140.14913139219212,20.45960143314085,30.55796941663789,30.557969416637945,35.61833414844892,35.61833414844897,94.0320186280666,63.49326457830181,59.74662257249747,59.18772058398008,60.30552456101464,24.13059335423361,34.24671934639639,2.417251100337353,5.155870844071956,25.503581760849336,25.37701233560621,25.29031498040706,69.80685836580835,74.9767017595932,81.36489121382684,400.0,392.41756789813775,374.49798691268046,351.52429481479544,{}
62,62,24,0,2.0666666666666624,7.613103700681944,140.14913139219212,22.839311102045485,30.55796941663789,35.61833414844897,35.61833414844892,33.08757597102815,94.0320186280666,63.49326457830181,59.64182844965035,59.18772058398008,60.30552456101464,26.659624852274305,34.24671934639639,0.1117803977034554,5.365459089765864,25.503581760849336,25.503581760849222,25.39510910325396,72.33588986384905,74.9767017595932,78.7096582630371,400.0,392.4175678981378,374.28297318056,348.9962030861726,{}
63,63,24,0,2.099999999999996,7.621083252022288,145.60059109084446,22.863249756067106,33.12225617788924,35.65566692850494,38.19000108396871,33.12225617788913,96.66733194299933,63.55981401521976,59.69028660177935,59.85106381127002,62.28369289399871,27.94727319755407,35.53875361089672,1.2302951682764842,6.738662171696319,23.003948005623705,25.40361084007449,25.304934711142096,71.80449982122946,75.41150156458559,78.79215651654813,400.0000000000001,394.934243781449,377.0104686583621,354.02281028725616,{}
64,64,24,0,2.133333333333329,10.403088339811717,141.85677217153173,22.84781911910161,32.89745385374508,35.413670225400345,35.68229862780516,32.89745385374508,98.53096756679832,65.6496114513001,60.65291115845139,61.9581706934548,62.08314235106138,29.12533909222805,36.44312393208679,2.589690460405336,8.060671915632156,23.262012703754564,22.708075795240013,22.619870026812578,71.0949874384778,74.89968012561508,80.77923917220197,400.00000000000006,392.2538063314953,371.9355484519917,349.1034723302378,{}
65,65,24,0,2.166666666666662,12.953350738925783,142.6226677140199,23.00394800562377,30.58999825735897,35.65566692850499,38.19000108396868,30.58999825735909,96.66733194299938,66.09822322834003,59.809751300727385,61.95897948446088,60.40096293702948,30.58998560537259,35.44487645406514,1.2519775827573767,9.264634112404792,23.00394800562377,22.86324975606708,24.051880450972703,69.92990342801636,75.00736806919906,81.33123814419653,400.0,392.40151078984,376.8306932228556,354.02281028725616,{}
66,66,24,0,2.199999999999996,10.09750141419276,141.72518603796436,22.85919105960033,32.81687959612598,35.43129650949108,40.70432950751508,30.3975045721224,96.05903341316116,63.3110117768093,58.27753268338563,61.2722526982376,60.316191848425774,30.3971111366659,35.233654259243394,1.181016343885176,9.124757228351656,23.27359079893172,25.369658324182,25.26531392811671,72.46378852838825,76.6114054503663,75.73126060644483,400.0,392.4490410242586,374.6380548427653,351.7950509118978,{}
67,67,24,0,2.2333333333333285,10.097501414192685,141.72518603796445,22.719378181933426,32.91382775297086,32.91382775297086,37.949682860149366,30.710351625942128,96.22473826879876,63.31101177680927,58.2768361979073,61.18099747022825,60.40655446427616,30.20327723213802,35.430767522315705,1.1616645089284248,8.906094568450953,25.36965832418212,27.768128889029768,26.42786757812076,70.08709203867932,76.4762468377852,75.77332184856931,400.0,392.6519598499418,374.8336150449419,351.98519817677334,{}
68,68,24,0,2.2666666666666617,12.865435732896929,141.6546809016013,25.35703748190532,32.89745385374502,35.41367022540035,38.18172689247598,30.382382487863016,101.05085853973824,68.17093580902424,61.923774602557614,61.21104327673265,60.31663533844244,30.38191965379372,40.24835722305704,3.68943274544688,6.596258544889906,25.35703748190532,22.708075795239967,22.73752680621999,72.47499324957437,76.52777921995164,75.73562630172286,400.00000000000017,392.2538063314953,374.6471436358649,351.62004067744493,{}
69,69,24,0,2.299999999999995,22.85173139722129,144.92794734011514,22.85173139722151,35.637703831791,35.637703831791,40.70456921566223,30.57458721208865,111.83492895204698,76.21474426336401,64.74850743146249,64.12971196513217,60.501320367105,31.74139471607544,49.46144670644071,12.671243526443844,10.336696994379963,20.47072761325397,17.954015814254184,17.81849672364524,70.40204782838862,74.48047249283786,76.21474426336407,400.00000000000006,394.7352784379891,376.8205331980528,353.8444558620563,{}
70,70,24,0,2.333333333333328,27.76812888902967,144.2432583245698,22.719378181933383,37.94968286014938,37.86563030322241,42.9885632281937,30.397504572122465,118.75301326011004,80.81944505341161,66.85332004483666,64.6074552894745,61.78246817581146,32.79810038962819,55.42624717006947,16.554424486065727,11.97794536193146,12.871839187374826,12.87183918737472,12.797191624893683,71.18967526430959,75.31415645025766,78.29634110498742,400.0,392.4490410242586,374.4594106801607,349.2772300046386,{}
71,71,24,0,2.3666666666666614,27.59447880591898,145.84376279604598,25.08588982356253,37.712361663282586,37.71236166328252,42.71973101385084,30.518302131591227,120.64722214949424,82.93533275909826,69.16346529636246,69.26938178226806,66.98158568670692,37.70626898239664,52.49221041481985,11.481347072168091,14.404642083162685,10.343177345515617,11.218750984311107,9.066451193519924,71.30297831165592,74.31100651137513,75.42472332656517,400.0,389.99483142075945,372.2952275813413,347.0929985693324,{}
72,72,24,0,2.3999999999999946,27.768128889029704,144.08855011974185,22.71937818193344,40.46881549884514,37.86563030322241,42.98856322819365,33.20297381454023,123.92600586922582,83.45723888125178,69.60365322918017,71.18959526147898,68.20261923652174,36.5975681534037,54.22072670065086,12.71598364910335,15.418485766921776,10.408266221384954,11.289349782517435,10.255284352352874,72.98178087645306,73.59339977680156,75.77332184856932,400.0,392.26226299450656,374.6380548427653,346.75950440495905,{}
73,73,24,0,2.433333333333328,25.369658324182247,144.2432583245698,25.24375353548158,40.468815498844926,37.949682860149366,42.98856322819367,30.397504572122408,121.40644649653512,80.93763099769019,68.23537302708075,66.94231376810217,64.92146705734876,35.53439898034469,55.44609838909628,13.955147740342229,11.863642053688409,12.621876767740735,12.87183918737476,12.68328617413374,71.80365131005419,74.72893291233345,78.29634110498748,400.00000000000006,392.4490410242587,374.6380548427653,349.2772300046385,{}
74,74,24,0,2.466666666666661,22.682819536292268,146.52538739080612,25.20313281810244,37.88861653180328,37.88861653180328,42.91938863912277,28.17795911361666,113.66584959540972,75.77723306360645,64.46118627055739,64.72912819554995,61.68305157458292,35.14269879374956,50.42949072489887,11.620218220726088,11.845853525983102,17.82130612282552,17.821306122825405,17.796984702131454,73.58531392688008,75.19296547683496,78.29214374458496,400.0,392.2388102811371,374.2304555219528,351.4188049406543,{}
75,75,24,0,2.4999999999999942,22.71937818193339,144.24325832456975,22.7193781819335,35.431296509491034,40.468815498845096,42.98856322819366,27.882637122829124,108.66548957759944,73.25039603549166,61.84073570808846,61.69941775628763,59.67857104553423,32.8069625105868,47.89971976292623,9.136205583930405,11.863642053688409,17.85002930754099,17.85002930754099,17.82019372209777,69.28819176799777,72.21347337027703,80.81944505341166,400.0,392.4490410242586,377.1555329055567,354.3129650949111,{}
76,76,24,0,2.5333333333333274,25.23119532804448,136.62173890868996,22.8478191191016,32.80055392645781,35.4136702254003,40.44868316079726,25.357037481905365,106.09110089266008,73.34426827920733,60.763479157494885,61.83644022068484,59.69051809430493,35.40771508526882,45.233779558692845,9.120169037114692,14.372031083255024,17.841149313902612,17.661836729631034,17.590914272824875,71.15425997996613,77.78967708127254,80.89736632159452,400.00000000000017,394.76944624494064,379.4842236138807,354.1367022540034,{}
77,77,24,0,2.5666666666666607,22.695888143730976,136.5484126543043,20.17412279442765,32.87979746107137,35.3946633542215,37.91044589278982,27.853808683689945,103.51531917381404,70.65444695419974,59.26508366243513,61.39197225058126,60.07231860513093,32.87903018771124,42.72027705431469,8.802370592525676,14.24945159715071,20.79500979640148,20.331122226812568,20.31424281879515,71.78073499136099,76.90492201890777,78.21538888750422,400.0,392.46479695909824,379.4733192202055,354.1352350527723,{}
78,78,24,0,2.599999999999994,15.121879690861435,136.46978618284555,22.68281953629233,32.86086481728322,32.860864817283165,37.88861653180322,30.66093439041672,101.09566891265374,68.2348930914228,60.69608628826063,61.95825074434731,59.88269141656019,30.348043144130315,40.16487780258274,3.8566136158206064,9.325992925529931,17.82130612282543,20.31941528441437,20.194631297387787,71.12997912524429,75.14085728569773,78.17035138086139,400.0,394.9822238580381,376.9532744128314,354.13764857119514,{}
79,79,24,0,2.633333333333327,12.523012612755624,130.45589556806337,22.54142270296045,35.153771601437114,32.559832793164915,37.652432031531774,27.66423906613533,97.80785520015048,62.66513509342299,56.36377537757016,60.82634821234205,57.31550892053099,31.407206917707867,38.68268111278644,2.3053101373941445,10.42676970399316,20.19275109384609,20.192751093845978,20.071002939329787,71.1896690134713,76.47707758547608,82.65188324418787,400.00000000000017,394.7828829380322,376.8906701895593,354.0359985612593,{}
80,80,24,0,2.6666666666666603,12.778283575885345,130.53012222330298,22.55424829742114,35.08438624043291,32.57835865183057,35.173773356617794,30.176568225217977,100.36632670790108,65.34920433248261,58.99813684202218,63.38912478301188,59.81391004592172,31.42500255021741,38.70311826500824,2.525350092071676,10.441897009914214,20.204240343659244,20.20424034365947,20.08220817599681,71.17798546024426,79.0661576579513,82.69891042387759,400.0,395.0075060784335,377.1051130379821,359.4206238286544,{}
81,81,24,0,2.699999999999993,15.04413937937341,138.26883640156535,22.56620906906,35.192426404382736,35.10299188520446,37.610348448433406,30.19257119887628,102.92385649477184,67.74504382367694,60.18690287087588,60.921233924204216,60.045685360620496,30.291155949795552,42.39349657868832,6.086474692010256,9.17913816660473,20.21495487963925,22.70507935867427,22.59480164087313,74.18155813719181,78.68639671434073,82.74276658655333,400.00000000000006,394.80317644820855,379.8045200855391,359.6112286294535,{}
82,82,24,0,2.7333333333333267,30.306388395785053,144.3093702406277,20.36149288890517,32.83192076210052,35.44753595754484,43.00826644563768,27.78085602946969,111.15211964427496,78.33222715741654,63.1286809372109,61.90547487005336,59.95115713057192,33.2444913309655,50.017880274861454,13.743493455706812,14.376186249064176,20.36149288890528,20.36149288890528,20.344588266401843,71.67706356746135,79.53651404494485,80.856487535877,400.00000000000006,394.9612879453927,382.1907413929046,356.67277357657014,{}
83,83,24,0,2.76666666666666,35.56505517610431,152.76000433587487,17.782527588052208,35.65566692850501,40.725086253375245,45.79701073291075,28.05920528687548,116.96700819776396,81.33123814419653,63.48452736912907,60.56052788002842,57.18668231568142,30.814456154369168,57.97391294736235,21.81753464944381,14.901151242532478,20.481045833015045,20.48104583301528,21.733188510335253,68.99514179089579,75.4616791225609,88.91263794026088,400.00000000000006,394.7462829706832,379.3653138897234,358.76698544981485,{}
84,84,24,0,2.799999999999993,45.72649951213424,162.90034501350098,15.452413215228225,30.58999825735897,43.26079040852655,48.33366597149963,25.530312927010765,117.10485975791724,86.52158081705309,63.709165641909976,55.99112605005666,51.63736012644711,28.28534289981405,63.25682632517123,29.642360850029945,14.91306184872758,17.96306549164065,20.481045833015106,21.733490608927468,71.46961204470756,78.26883739943548,88.94892140961042,400.00000000000006,394.934243781449,379.3653138897234,356.38468423508715,{}
85,85,24,0,2.8333333333333264,46.039532461685496,168.9859212089326,15.346510820561791,30.79941025004244,43.55694368870299,48.66454697448725,26.084052713202663,117.90653231208022,87.11388737740596,64.14793244426482,53.239383861649,47.79927651655248,24.622152515046764,67.37799618041583,33.2639897038722,10.908548582615708,20.6212542954038,20.4620144274158,21.774596326597816,70.72139548625637,74.82980988750137,87.00116718262782,400.00000000000006,394.89733038029135,381.79961357202,363.77669421820775,{}
86,86,24,0,2.86666666666666,40.44868316079722,169.21838709588658,17.661836729631183,27.75431486084897,40.44868316079728,45.41615159048004,25.35703748190525,111.1318875167226,83.41572075612311,63.18001671246202,52.63580339697694,46.85211765654231,24.39237487335617,61.32554253770354,30.21869220401481,8.377107479081587,20.342040003236093,20.18495626243558,21.37974249750323,66.9031755920538,71.43633468590781,83.30116489421421,400.00000000000006,392.06712121967,379.148560177613,358.7180364716123,{}
87,87,24,0,2.899999999999993,37.94968286014925,169.30261138965085,15.14625212128904,30.39750457212252,45.50882387867716,48.02951670658061,27.882637122829124,111.3303909554562,80.93763099768996,61.94672417193908,53.12141808197089,46.46534255214692,21.911348426734776,61.522770316536366,30.30563476371026,8.726383523707682,17.85002930754088,17.850029307540876,17.71420525824692,68.86423791259494,71.7895195148742,80.93763099769002,400.0,389.5725446744456,374.15296510065457,356.25903978033057,{}
88,88,24,0,2.933333333333326,32.81687959612611,171.9542529127747,17.850029307540943,30.397504572122287,42.91438101031871,48.02951670658065,25.369658324182065,106.29388952847316,75.89936572029879,59.53589942381495,49.00406960581904,43.34086344854279,20.80361445530048,60.09933064864606,29.038378510523785,7.570204149012056,7.9827757864049875,7.9827757864048765,7.772461511771894,68.21851906800646,70.03883533284534,75.89936572029885,400.0,392.0916488273294,379.19445402757407,358.7811487482979,{}
89,89,24,0,2.9666666666666592,35.43129650949107,166.91447776250365,15.146252121288974,27.76812888902973,42.91438101031881,45.43875636386692,25.36965832418205,103.62245658947842,75.89936572029872,58.16874522642934,48.22126114129935,43.63580379350708,20.56059907558472,57.6140528053254,26.69919520246788,7.247980969091031,5.048750707096319,7.982775786404872,6.397452590065086,66.34121356402693,66.93288547987095,71.0870553898663,400.0,394.6108203508817,379.0683934349921,358.896579559044,{}
90,90,24,0,2.9999999999999925,32.831920762100495,172.03306578255052,15.362213646878851,30.411436850788046,43.008266445637645,48.05153037580644,27.89541674654507,106.34260787263436,75.93415315198642,59.56448671176668,48.54749277106009,43.7770980350183,18.26712130630665,60.16805799696681,26.68803152633177,4.915833599945586,7.986434582031335,5.647262050457227,5.141263838996338,66.53828023594974,66.81461407736663,73.63128868430009,400.0,394.6381715269712,379.2421342260562,358.84784514015143,{}
91,91,24,0,3.0333333333333257,33.02469409209685,167.8369486082073,15.452413215228487,30.589998257359014,43.260790408526496,45.72649951213413,28.059205286875347,106.96700078551495,76.38000216793743,59.91427566246705,50.92642324882377,44.4415170769546,19.625373941183284,59.27431781655889,27.859498225201264,6.143595320718191,10.161444336029842,10.474177076571287,10.338874532782713,69.30032406911982,69.92606062956327,76.59093878103229,400.0,394.57458838094334,378.9312816677376,355.87729743390906,{}
92,92,24,0,3.066666666666659,32.81687959612619,164.3947967408809,17.670627474837072,32.913827752970825,40.468815498844975,45.508823878677134,25.743678374749507,108.81199832632151,75.89936572029883,59.53604986111464,47.58925286927376,44.78988505343409,20.627664865202064,62.61818210279671,28.969215427552623,4.59492191993877,15.35517581297104,15.35517581297104,13.940286194029682,69.5034958720588,71.42629396778716,78.4183297654659,400.0,392.09164882732944,374.15296510065457,353.7369631450876,{}
93,93,24,0,3.099999999999992,25.415402270824107,162.9759574195245,17.790781589576714,33.13763032262977,40.74398935488111,45.81826803700001,28.072229347829257,104.32705321777544,71.20849654229673,58.47382468030935,47.552030743693535,44.86094652340012,18.136189931444846,58.073024902818815,24.005043816127,2.0039988874525534,15.45958566254246,17.97140329228362,17.835590098326975,67.39161972947284,69.42424717246035,76.28855405639929,400.0,392.2215023472224,376.6970750007088,356.1422513397448,{}
94,94,24,0,3.1333333333333253,12.707701135412035,157.75985286126584,20.332321816659245,33.1376303226298,40.66464363331843,40.74398935488106,28.07222934782922,94.1742687501772,61.0498912434056,54.68367138532176,49.35196032056104,45.54258375636266,19.3796722234398,46.710886977724726,12.51146540694856,3.1083946313810884,17.971403292283693,17.971403292283686,17.928143978717458,73.38360355269651,73.8226023389052,78.82872896536338,400.0,394.7577355313112,379.1071677649832,356.2601236972478,{}
95,95,24,0,3.1666666666666585,10.16616090832963,155.3669130626157,20.332321816659263,33.13763032262968,38.207727491286974,43.2808704915306,28.41528357653257,91.812591060654,58.67601251698197,53.59984822091599,49.318620196964616,48.29056215173955,20.55411941104228,43.00240056294433,8.61174650212547,1.739248884730273,18.50269214118677,20.490552388407465,20.46257999605632,70.71067732979998,73.78076847855436,83.9093268427719,399.9999999999999,394.7577355313111,379.3796862063325,356.3960818214288,{}
96,96,24,0,3.199999999999992,12.713091355997175,152.74767360582487,20.340946169595707,33.15168629823133,38.22393404800758,40.76127171679741,27.96880098319401,94.11122946843857,61.0228385087869,54.5465454149695,51.04934303001892,48.56836177897185,21.90131754102265,44.230148800446045,9.888882896122595,2.782343380411476,20.966967395561376,20.499243857943217,21.649014362950084,74.12106698043374,75.73300395145304,78.86216571627916,399.9999999999999,394.6304105562512,379.1571599288748,356.2933160582168,{}
97,97,24,0,3.233333333333325,15.255709627196657,152.74767360582493,20.34094616959573,33.15168629823139,35.687348060458966,38.22393404800751,30.511419254393427,99.19470489074898,66.10807505118582,58.32829645305674,51.509239573037576,48.12788905401976,19.38640964236868,49.26909485418821,12.327840433918936,0.3804019333895212,23.02438770497611,20.34094616959561,21.5561095587384,70.92382713639779,71.09289466234873,76.32091334232442,400.0,394.7696345544284,379.1571599288748,353.6525185016777,{}
98,98,24,0,3.266666666666658,15.234487598147709,147.35424196373805,22.851731397221386,33.00805646265288,35.5471377290111,40.62530026172692,28.045069238900385,99.05671636316448,66.06492336666994,58.43842202324299,48.30459161458805,43.575470757215726,17.903100388623557,53.03371247196014,18.578689082533856,1.1822802143429954,20.47072761325384,22.851731397221386,22.80111841947337,71.78129872797172,75.49703654447842,83.7896817898117,400.00000000000006,391.8420248716003,376.4782024136032,353.5163494549247,{}
99,99,24,0,3.2999999999999914,15.452413215228164,134.8546559962212,23.003948005623787,35.6556669285051,33.02469409209683,38.105416260111774,27.94397192408195,101.64619291375534,66.04938818419366,58.36801296209205,53.26529869734861,51.16790717887477,24.34522571275488,49.31685359042308,12.408393446541597,2.6393349645223907,25.90670147785142,25.403610840074627,25.337615659415405,73.76061447518669,78.63106726305205,83.87039725959377,400.00000000000017,392.4015107898399,374.132320097524,348.48347053783107,{}
100,100,24,0,3.3333333333333246,12.707701135411943,129.71818153563666,22.87386204374164,33.04002295207133,33.040022952071226,35.67221699022899,30.498482724988847,99.12006885621376,66.08004590414244,59.54635755016807,55.801834829519294,50.81852263737733,22.90352806953274,45.51143592427729,8.685603453535123,4.011988629266625,25.918726424948435,25.415402270824,25.33887555326305,73.00411589956764,79.42329770639424,83.8708274937192,400.00000000000006,392.2215023472224,371.6215055661786,345.9856876866044,{}
101,101,24,0,3.366666666666658,10.46890025322086,127.05558597571836,22.99235876390075,35.63770383179094,27.92989392993722,33.10556939729124,30.468975196295148,99.05671636316453,63.47703165894833,58.33860753086162,55.40514565453566,51.32503081456241,22.97526735750557,45.58473131556525,8.511963717875688,3.6298952714246298,25.517450918815328,27.92989392993734,26.591093267413044,73.72345434986482,81.12393850788555,81.29026398714082,400.00000000000006,392.2038214210455,374.288483398701,348.44669885384013,{}
102,102,24,0,3.399999999999991,13.035898147917427,130.4842664494447,23.150544538267365,33.33333333333342,30.67859955389485,38.34824944236855,30.67859955389485,99.73821944621176,66.47029903343888,60.03285705489748,55.39338106022751,51.91727820017263,23.04319799165341,46.00229672056344,8.578124799812485,1.0932904156625227,25.693009145568173,25.56549962824567,25.510109698788938,74.90441001666386,81.21185472240836,84.40487549031717,400.0000000000001,397.2618701361261,376.516541313065,348.2918166458748,{}
103,103,24,0,3.433333333333324,10.4741770765715,127.11962803043971,23.003948005623663,35.655666928504914,30.484333008089465,33.12225617788917,30.4843330080894,99.10664565671844,63.5090271001864,58.35086949608558,55.77594566734592,50.99193418225582,22.9913963724631,45.5888153285066,8.58307942913234,1.3789209574674717,25.53031292701081,25.40361084007452,25.228625272843374,73.16723447785034,81.72217266295274,83.83191577224598,400.00000000000006,394.7462829706832,374.296150388782,348.62233255293404,{}
104,104,24,0,3.466666666666657,10.17047308479789,129.89768676395795,22.88356444079503,35.6873480604589,30.5114192543934,35.68734806045896,30.51141925439345,99.19470489074884,63.56545677998638,58.37010932040676,54.967431099154055,54.62716327702879,24.343327107879304,44.33406165773886,4.508548643159656,2.438586058564624,20.49924385794325,22.88356444079503,21.571562140150263,74.97234347493588,77.60941909640678,78.82116640718306,400.0,394.92517976450256,371.7791361138188,346.132444299472,{}
105,105,24,0,3.4999999999999907,8.037055882521967,132.2578072314743,23.014625600300423,35.67221699022889,30.498482724988843,35.58156317915371,30.498482724988783,96.61196416021052,60.99696544997769,57.15715921075196,54.87812115906138,51.97879446333229,22.98552750604324,43.12748459896761,5.840470603415497,3.610219299008577,15.459585662542574,17.971403292283494,16.566585470547125,75.04795639329097,80.1635953227742,81.3292872666369,400.0,392.39438689251887,371.76922096054864,346.2469639322447,{}
106,106,24,0,3.533333333333324,10.166160908329674,134.9172506150507,25.542163168253524,38.1231034062359,30.604197020218063,35.672216990229,25.542163168253456,99.12006885621362,60.99696544997772,55.76700709967543,53.13301438242331,50.98050420488346,26.892215968076243,46.80293511031664,7.165593091019673,2.6481539684205018,8.03705588252193,10.479038808017076,10.323552101488984,76.2866600421413,81.42719421613378,81.3689891422096,400.0,394.9295098154252,376.8428008711717,348.64522387030297,{}
107,107,24,0,3.566666666666657,10.487510142309088,129.94757722453497,23.03323079784189,35.70105468046041,30.628937684743786,35.610327584157794,27.979543101838324,96.6900660033298,61.04627585855611,55.91694930289816,52.86302361020137,51.70167158621814,24.36688598468584,44.324935582028274,7.1186577766382015,2.559275756555735,8.043553099332911,10.487510142309189,10.323129102073608,76.69224662082104,83.53131965094474,83.97715977773247,400.00000000000006,394.9212557216748,377.1474434438597,351.4673763231667,{}
108,108,24,0,3.5999999999999903,12.953350738925938,129.65799901567368,23.00394800562365,35.65566692850487,33.02469409209684,35.655666928504985,30.484333008089457,101.64619291375536,66.04938818419392,59.66145904434177,59.89915410029505,56.888350058216815,27.96878491720122,43.18126849822875,5.94237639883886,6.100839769474305,8.033327104717852,10.47417707657138,7.6854734758316,74.794710940051,77.64705161149368,81.33123814419643,399.9999999999999,389.5045444955847,371.5967392906916,346.2447855762463,{}
109,109,24,0,3.633333333333324,12.707701135411916,127.3055444795242,25.41540227082405,35.67221699022896,30.498482724988875,33.13763032262986,30.49848272498877,104.23413909524504,68.62158613122475,62.1478364078323,59.74733771111573,59.47504233656287,29.171433415921456,44.54895641041071,7.129839412636102,4.75083771917366,12.959363212474134,12.707701135412028,12.683231919965806,74.86689666655514,80.34146682861945,81.32928726663692,400.0,389.68533831627246,371.76922096054864,343.7098418573205,{}
110,110,24,0,3.6666666666666567,7.62462068124707,129.71818153563666,25.54216316825348,35.58156317915391,27.956942497906507,33.1376303226298,33.04002295207121,101.69337337373962,66.12890361573697,62.29703707640931,62.96320063259043,59.2670673531344,28.150782535390363,40.48555289822525,3.3093286339312726,3.6531549855087633,17.97140329228366,17.971403292283767,16.568132316630567,74.0945787649049,78.2204949838324,86.44973523291402,400.0,392.2215023472225,371.9342452119794,346.4054997927098,{}
111,111,24,0,3.69999999999999,7.617243799073956,129.59267814590189,25.39081266357921,33.00805646265294,30.574587212088748,35.637703831791,30.574587212088804,96.51849130353388,63.52779298785932,59.70406366027214,60.34451249572203,56.70107023182948,27.95203361830136,37.91457105863287,3.3018695516527714,3.643442263892666,17.954015814254248,17.77356886450559,18.99998211834657,74.06434977069273,78.27707988831867,83.82814389043264,400.00000000000006,392.2038214210456,371.5743958217094,346.0703496700972,{}
112,112,24,0,3.733333333333323,5.075402467121148,129.5222423750964,25.37701233560608,35.52781726984872,32.99011603628797,35.52781726984855,30.557969416638063,96.4660319020523,60.95767545453387,58.41288488226087,59.92697855532344,57.05444569895246,27.93998091085848,37.91601866327972,0.8560996936474794,6.077600304489124,22.97986203541777,20.45960143314073,20.34121172922721,77.36028140778126,75.08206569410777,81.36489121382691,400.00000000000006,392.1959581015816,374.28297318056,348.783932306086,{}
113,113,24,0,3.766666666666656,7.624620681247208,134.91725061505082,22.87386204374174,35.67221699022897,33.040022952071226,38.1231034062361,30.49848272498873,96.6119641602106,60.99696544997767,57.07698357875506,60.01763512253933,59.365731647772805,29.25062547648679,36.86088995365412,0.4109826253962865,7.51106177448537,20.490552388407664,22.873862043741624,21.56241601864076,74.78466600747117,77.73240345858994,83.90932684277175,400.0,392.0650173067224,374.3059786916253,351.18347694216783,{}
114,114,24,0,3.7999999999999896,5.685467295234992,140.0518828148881,25.552997377543925,35.68734806045909,33.15168629823135,35.596655796792334,30.511419254393445,96.65294401899465,61.02283850878689,58.44964218101302,57.76958757005491,56.90023940759295,26.87968431354249,39.260884756348105,2.117283427931625,2.4257618081600185,23.02438770497616,20.340946169595668,21.572453999157688,74.73589848261963,75.15655081929481,81.40350339428406,400.0,392.3878707873833,376.8568584506368,353.8718152477425,{}
115,115,24,0,3.833333333333323,5.085236542398869,142.59079434417316,22.883564440795144,33.05403752559288,35.687348060458966,38.22393404800752,33.15168629823133,94.11122946843857,61.07578675172773,58.52032046961256,58.32408466444497,56.51591188825808,24.27016404625965,36.61900292858991,2.1095349055513,2.614141261696432,23.024387704976235,22.883564440795023,22.833437615568528,74.12106698043374,75.73300395145316,83.9449186288881,400.0,394.7696345544284,379.2679735030099,351.21281070250217,{}
116,116,24,0,3.866666666666656,5.087189654879741,142.53212405981057,23.03323079784204,33.06673275671786,33.06673275671803,35.70105468046024,33.066732756717975,94.14737524362994,61.09924443759631,58.54889740330043,57.97060186161514,54.35978091841002,23.160031206027384,37.92772467296413,3.314620787707895,1.2412196992268036,23.033230797841927,22.89235344695861,22.84972628122045,72.03305686308249,75.06558226460243,81.39503447807495,400.0000000000001,394.7819782510334,376.87286730084674,353.788347610508,{}
117,117,24,0,3.899999999999989,10.170473084797894,142.4093233265224,20.34094616959556,30.617178390413653,33.05403752559286,35.59665579679234,35.5966557967924,96.65294401899467,66.10807505118585,60.90794016042446,63.04879187462927,56.85308194676486,24.42130515044937,36.642591095115904,1.8927397605718848,5.054394941152395,20.49924385794325,20.340946169595444,21.571562140150263,74.50447521951355,72.53375741637126,81.5225434335947,400.0,394.63041055625126,376.6166145384962,358.73451484277393,{}
118,118,24,0,3.9333333333333225,10.491116685870722,142.51301106050346,25.44469542736748,33.1758239259486,33.078104055577754,38.16704314105118,35.71333189470339,104.35427675512366,71.24514719662886,66.14703832588566,67.0700863059592,63.25008774227024,29.45943130250112,39.172736200505824,6.695648040072001,7.377283471510964,22.90022588463064,22.900225884630743,22.87738916766898,73.9148420966585,75.94554765282032,78.87855582483907,399.9999999999999,394.6881553004187,381.8824116720148,358.8514028123177,{}
119,119,24,0,3.966666666666656,25.74987312323045,138.3829616801664,23.201781512497817,35.87091396112414,33.30870582104377,35.870913961124145,33.30870582104383,117.86157444369356,81.99066048256942,69.16827709529036,69.85085877715176,66.26730494737933,34.783224871521384,49.686258258829184,12.087383949629384,12.428674790559851,20.65718243011596,20.497665120642385,21.757291109332755,71.89860382273605,76.44914836847886,81.99066048256942,400.0000000000001,394.78797023338734,381.84638715615927,356.1837958674371,{}
120,120,24,0,3.999999999999989,30.759120951061053,135.87696374760054,23.06934071329573,35.8856411095712,35.88564110957108,38.448901188826206,30.865738674392603,120.50048936384086,84.62641097762574,69.25532583230961,69.49857800981977,66.75125929911667,37.28912791714856,52.3564539711615,14.63805750546544,14.938545489448645,23.21130722686745,25.6326007925508,24.33237222682692,75.09337809255408,78.38443696475042,82.02432253616267,400.0,394.7753398936836,379.3711512933475,356.3023712571517,{}
121,121,24,0,4.033333333333323,28.199914205970003,138.45967773244908,25.636285641790952,35.890799898507154,33.32717133432821,38.45442846268644,28.316203005331488,117.95477618864632,82.07616097535161,67.98125066269301,68.7042270043728,67.40143795302913,39.79233151878611,49.89968393909976,11.88973963891044,14.667114100016647,20.509028513432856,23.07265707761179,23.02787020973813,73.72927048812676,77.25109583571486,82.03611405373097,400.00000000000006,394.8320913572986,379.417027498506,356.3443704208941,{}
122,122,24,0,4.066666666666656,26.0986214203384,140.2331342028183,23.37218903380305,36.35673849702692,33.759828604382115,38.95364838967177,28.683807293366645,114.26403527637034,77.90729677934343,64.9352874199119,66.141843341764,63.85573738457049,36.39424236791319,49.25006043583448,10.5979356410636,13.321506318460592,20.93695690360864,23.372189033802936,23.36908311797754,73.43762593354802,77.03612605135265,83.1416833801146,400.00000000000006,397.3357001176553,381.7545871434396,358.45823702672493,{}
123,123,24,0,4.099999999999989,25.64102564102572,141.02564102564102,23.07692307692308,35.89743589743583,35.89743589743583,41.025641025640994,25.641025641025607,110.25641025641023,74.35897435897441,61.53470507028942,62.3563010403808,60.79810178675928,35.93774096761615,48.6724785040318,10.411604103743684,13.060542834900277,20.51282051282056,23.21893625163452,23.04718350583812,73.1078758903692,75.5160020096024,82.09133637734418,400.00000000000017,394.8801197923645,379.56513405839576,356.55780011910065,{}
124,124,24,0,4.133333333333322,28.320856639942004,151.30067085913493,20.512399075682985,35.896698382445244,38.4607482669056,41.02479815136591,25.768382425176043,110.25414503179589,74.35744664935062,60.26562179194207,59.84300172327482,55.61680103660285,32.06277587621787,52.51758719971031,14.284558320951303,14.340907663440134,23.21845921718545,23.07644896014334,23.07505574922891,73.11327187942481,75.4799442639611,82.08964980587538,400.00000000000006,397.4360031339508,382.1208626863069,356.4859330847766,{}
125,125,24,0,4.166666666666655,30.769230769230827,153.84615384615378,17.948717948717963,35.89743589743581,41.02564102564103,43.58974358974352,25.64102564102561,110.25641025641022,74.3589743589744,58.97345892538453,59.42677400720356,58.57680822879297,33.36115680261378,51.2529364381553,12.90531373553324,15.526041552299375,20.672455764868133,23.218936251634336,23.069487835692712,73.73453127711412,74.93864946319582,82.09133637734428,400.0,394.9050935010965,379.6257543245486,356.55780011910053,{}
126,126,24,0,4.199999999999989,33.11833202251344,155.42228437501245,17.832948012122507,35.665896024245015,38.21346002597699,43.38345167741633,25.475640017318028,112.092816076199,76.42692005195399,59.86681982589869,59.04848103117877,55.63280606191324,31.865401067440075,54.75042336151955,16.637183496131115,14.146587164374864,20.380512013854425,22.928076015586115,22.920602241675965,70.71870384283602,71.92842206111754,81.5618440295015,400.0,392.3248562666967,379.6639683144123,356.74083683020206,{}
127,127,24,0,4.233333333333322,35.66589602424508,160.5167495976396,17.832948012122596,33.11833202251334,43.38345167741628,45.85615203117237,25.60270135424961,112.1217619297677,79.01556311188813,61.1659519628887,54.452615771839874,50.1318731918567,26.7900114039021,59.82187731667227,24.38334371277142,11.758893894384189,23.069173199735992,22.928076015586186,22.91260234596928,72.63632721593831,75.05706898713413,81.5618440295014,400.0,394.8724202684284,379.62123020786447,354.1938617320157,{}
128,128,24,0,4.266666666666655,35.758940498255946,163.07392019656558,17.834033148357538,33.21819194149595,40.76350433910287,43.31122336029678,28.140476359441912,114.67566044890032,81.52700867820576,63.699069524382026,56.5443356849031,53.09081430640083,26.77894445953359,59.84216552584974,24.27372608250528,9.072570506638954,25.604259280562765,25.477190211939355,24.202957201798423,73.24579153175796,74.47717005606,84.11332064506281,400.00000000000006,392.348729263865,377.1398716108133,356.76254453709697,{}
129,129,24,0,4.299999999999988,38.45837797519757,164.16918143022707,17.947243055092066,33.33059424517116,41.102313369669766,46.221217920249856,28.20281051514487,117.93902579060564,84.6084315454345,65.37823364226188,56.90327742937609,50.86398090120201,25.681253868626985,64.05357662075198,28.28783703998533,10.41208906154543,20.67075705450193,23.07502678511836,23.06754888532509,73.72499724016279,74.94994889446218,84.6084315454345,400.0,397.4032390770407,379.5339441874314,359.0272624535368,{}
130,130,24,0,4.3333333333333215,33.33059424517116,161.54553456242093,17.94724305509217,35.89448611018445,41.022269840210654,46.15005357023701,28.20281051514479,115.37513392559258,79.48064781540812,62.81155829684644,57.36009539913857,53.021463428869765,26.98967160725681,60.177388886326185,24.510453338531647,9.2688955728471,23.07502678511842,23.21702829023154,23.05954719263002,73.10876599251696,75.53163839149829,84.6472694779574,400.0,397.4032390770407,379.5339441874314,359.0913393209995,{}
131,131,24,0,4.366666666666655,35.896698382445216,164.11922302270085,20.512399075683,33.33264849798494,41.02479815136588,46.15289792028677,25.64049884460366,115.3822448007168,82.04959630273187,64.09733420422253,54.80499138920152,50.42795795956522,26.977540992694458,62.75872689321727,27.09086224653595,9.256929923195456,23.076448960143384,23.076448960143384,23.060875156789848,73.1063738846392,75.5427808422362,84.65248651339984,400.00000000000006,394.8720069564305,379.55733586976953,359.1134710714487,{}
132,132,24,0,4.399999999999988,35.66589602424522,163.12368805900292,17.832948012122497,33.11833202251337,43.38345167741637,45.856152031172336,28.023204019049786,114.64038007793089,81.5220480554175,63.68516898134976,57.00530236819486,50.09899959866186,25.53067663163438,61.08115318300133,28.219605988624835,10.472672232488549,22.9280760155862,22.928076015586083,22.91250857351224,72.62939715828611,75.06358583935105,81.56184402950151,400.0,394.87242026842847,377.0738972253122,356.80450563118364,{}
133,133,24,0,4.433333333333321,35.66589602424513,163.06399773997362,17.832948012122625,30.570768020781447,40.76102402770877,45.856152031172286,28.02320401904977,112.09281607619896,81.52204805541753,63.68035360963552,57.47415782138148,52.22492646306239,26.830186553982344,57.22788021073632,24.45184848546773,9.337439695026092,22.92807601558609,22.9280760155862,22.924927299468777,74.55878749698309,75.64240898382116,81.5618440295014,400.0,394.8724202684285,382.16856627025913,359.2878202787751,{}
134,134,24,0,4.466666666666654,33.12034727552113,163.07392019656564,20.38175216955136,33.1203472755209,40.76350433910289,45.85894238149079,25.47719021193931,112.09963693253268,78.97928965701179,62.41054399268819,57.4776551282306,52.22810435378642,29.37918831542152,57.23136253157418,21.90596723973817,9.338007878937674,20.38175216955136,23.070576960669552,22.88410069503016,72.01595526228107,75.64701183012721,84.11332064506287,400.00000000000006,394.89644828505885,382.1918212564132,361.8568295770606,{}
135,135,24,0,4.499999999999988,28.02490923313315,160.52651705398952,20.381752169551547,33.120347275521034,40.76350433910287,45.92965783194822,28.02490923313315,109.55191791133888,76.43157063581785,62.41025267510497,57.50158111638882,52.249445658520585,26.85458361495864,54.66084845048465,19.384243808399447,9.36654674979502,20.540367419108343,17.834033148357605,17.83150076431582,74.53166611601625,75.63361279246271,84.07472769939967,400.0,397.4523329884624,382.1918212564132,361.85682957706064,{}
136,136,24,0,4.533333333333321,25.44221351848557,159.5105672659253,17.72116405650943,30.37913838258782,43.11150708175259,45.56870757388162,27.847543517372188,101.29543460146444,70.92984887087515,58.166779559586985,58.05832689415581,50.97275275265236,26.679355696069024,46.63464613540543,14.315751836915185,12.146698528291608,7.5947845956470115,7.594784595646784,8.856967676879322,72.80788939279557,76.4229782405015,86.11144670573854,400.0,394.9287989736407,382.3043542349129,362.0977225348578,{}
137,137,24,0,4.566666666666654,15.28383419299289,163.04746433652844,22.925751289489444,30.567668385986003,38.20958548248233,43.30419688014671,25.600105442235588,94.28472762290204,63.733568222621415,56.08397214018567,57.983172838621954,56.846529996376034,31.890745061242114,36.86895295259774,4.165292440888607,9.431258013825529,8.055287905036588,7.641917096496444,7.668742214140366,73.86739686190697,73.66596648480004,84.09967474610123,400.00000000000017,397.3878533752886,387.19884542688254,364.2647149329984,{}
138,138,24,0,4.599999999999987,10.190876084775736,160.5265170539895,20.38175216955136,30.572628254327096,40.763504339102894,40.8430429597871,28.024909233133304,89.1701657417875,58.59753748746041,53.48844267590323,57.93502023491715,56.85575383709818,29.37763134862973,31.752017423831035,1.647680034003315,9.46156875421218,7.643157063581832,8.056594945107753,8.943520883259112,71.33231378650851,68.52622115217957,74.05934794646505,400.00000000000006,397.4441673062528,384.739315343248,364.35945072226247,{}
139,139,24,0,4.63333333333332,7.546572819561386,155.98279010448533,22.63971845868393,30.18629127824509,40.248388370993545,40.32692188639398,25.155242731870832,85.52782528836123,55.34153401011615,51.56075771917824,56.70540095058175,56.56249419415394,31.482358441061592,28.88145547407396,3.4726341811974635,9.188904438312647,12.826707355897408,12.577621365935528,11.318215109087989,71.0532392959409,69.66704375859035,75.46572819561301,400.0,394.9373108903743,382.3679641858013,362.2704314913441,{}
140,140,24,0,4.666666666666654,7.546572819561288,155.98279010448525,20.12419418549673,30.18629127824515,40.24838837099357,42.83783476096926,27.67076700505813,85.5278252883613,55.34153401011615,51.560842093353926,59.21290588480247,59.08501623926293,31.482167743647665,26.366581922066416,3.5169652523371724,11.701902566867034,12.577621365935556,12.826707355897302,12.597130085643698,73.57917606707633,72.17238996614151,77.98125246880012,400.0,394.96935448563113,382.3596895244388,364.7596937306214,{}
141,141,24,0,4.699999999999987,7.593568018874916,154.4232957769678,22.78070405662429,30.374272075499093,40.49902943399884,43.030218773623744,25.311893396249182,86.06043754724749,55.6861654717484,51.87657401266199,57.41569871753711,56.51594242029853,31.66017470908276,29.07337535452166,3.4303208832222936,9.33497158385046,15.187136037749603,17.898211465158937,16.47678719318162,70.91204317611584,70.6871041018062,75.93568018874784,400.0,394.8979867935153,379.6868381477921,361.9689257705437,{}
142,142,24,0,4.73333333333332,7.953999816958572,148.42257435209535,22.776789223309223,30.18330711618186,37.72913389522718,40.32293523996179,25.15275593015141,85.51937016251514,55.33606304633328,51.57840175600086,59.598235881124765,58.76002469709931,34.03279476835144,26.31841048147419,3.402569128374012,11.798887937848349,17.606929151106094,17.606929151106094,17.602434864532484,70.48077430423359,72.7965102872189,77.97354338346953,400.00000000000006,394.9303085308636,382.3301639816472,362.2084188846982,{}
143,143,24,0,4.766666666666653,15.27887794342835,150.26387856347995,22.918316915142523,30.557755886856587,38.19719485857088,40.82317444411812,25.464796572380543,94.219747317808,63.66199143095142,56.00095132002696,60.66769726336247,59.04140701038193,34.39957426413275,34.3288659922639,1.7323526607835902,14.530549869022138,17.82535760066637,17.825357600666365,19.09123340455472,70.77898014058962,74.24368546215692,78.94086937437966,400.0,394.9096547385112,382.10773669827535,361.7435465223889,{}
144,144,24,0,4.7999999999999865,25.59180382695694,145.23866314207697,23.05935404272273,33.20203261253194,38.28198340875711,40.82317444411816,25.59180382695705,106.95214560399832,73.89180183795989,61.03916921092639,63.45698202887149,63.71148864128668,38.21840963102488,43.30854187932994,8.271464903495826,15.906663275953749,20.37183725790445,22.91831691514244,21.63306205529693,72.78889115076424,77.45484571171073,81.4873490316178,400.0,392.36450754938255,382.18409631024826,361.7435465223889,{}
145,145,24,0,4.83333333333332,25.43594827439844,142.53212405981054,22.89235344695872,35.61032758415777,35.610327584157766,40.697517239037495,27.97954310183816,111.9181724073531,76.30784482319532,63.54075608232984,66.33940511427068,65.82536753697548,38.12445364939799,45.749344379277545,8.324552987864763,15.949443717744316,23.03323079784192,25.435948274398328,24.14548731128525,74.69251574531881,80.44688084670724,83.93862930551482,400.00000000000006,394.9212557216749,379.5415115598945,359.37673503862186,{}
146,146,24,0,4.866666666666653,17.911954324135962,140.82980234900984,23.029655559603512,33.265058030538604,33.26505803053838,38.467959724373614,33.36333020336791,107.50218413614492,74.25077292138977,65.29706290412958,64.91371419823452,62.996970668759104,30.6040050206243,43.51007811909244,8.497562980674502,8.497562980674275,23.0296555596034,23.029655559603512,23.000922353705164,71.4306421984511,79.60874792421293,81.92319205190402,400.00000000000006,397.4464242807004,384.6795972437363,364.085869289203,{}
147,147,24,0,4.899999999999986,5.121475197315755,143.60693165607333,20.48590078926336,33.28958878255308,35.941664940407605,38.49632726786741,38.41106397986884,97.30802874900104,64.01843996644796,61.34452136072844,57.87059128367059,56.83970959413716,19.01482458844862,39.773675048916175,5.07673927927749,0.3459808410077585,23.18846519355667,23.046638387921234,23.00419551027312,70.31177989297123,75.84747334909594,79.4241570387214,400.00000000000006,395.026456885288,377.2984208297931,356.6878600516096,{}
148,148,24,0,4.933333333333319,5.758526005989492,144.42309748818894,20.762660785688208,31.01061158842382,33.47878455894185,36.145933345389366,38.62936679877907,95.32056631543006,64.38227799796499,61.74286440030664,59.05473014256904,56.54206156745147,19.26613195166999,37.43033941648696,5.130616559807322,2.379314656326301,25.881355443359045,25.88135544335904,25.779418090522427,74.72030628687787,79.95620225625703,82.40931583739524,400.0000000000001,395.0365628778716,379.4427329186406,356.3220293513106,{}
149,149,24,0,4.966666666666653,7.722512997127814,147.08859039707292,20.593367992340387,33.56308353672226,36.13021169970386,38.69827555721912,38.69827555721912,100.52459105500232,66.9779309696491,63.0678195404181,57.37874804528417,55.71943552587027,17.855039337056155,43.92995035642002,6.699997189734972,1.3595207617047436,23.31010980775433,23.31010980775433,23.195515765086384,73.7348285937943,78.68487854666807,82.37347196936189,400.0,395.05768021257234,382.22755580257416,359.3712355166401,{}
150,150,24,0,4.999999999999986,15.550886320704606,146.28292043317123,20.611564746694643,35.88288867059637,33.33333333333332,38.433373297259934,35.791699479544086,107.4055292450921,71.58339895908794,63.78420743914853,57.14001916423729,57.2507556354858,21.538243657837484,49.99751676870756,13.122271842949772,2.4915706030918727,23.570226039551663,25.565499628245625,25.46938838716005,72.64312513903008,78.73363105769886,79.29427280293582,400.00000000000006,395.1089863709901,377.2795638264094,354.365860938512,{}
151,151,24,0,5.033333333333319,25.538389910178456,146.12780166809097,20.43071192814277,33.29798658548767,36.11673737214655,38.64659664935393,35.844838368061914,115.03620255491464,81.76274170943714,68.87022533918446,60.65941988512111,59.03960112207472,24.018002348620712,55.017982124166,18.4044924973731,2.9045026096007405,26.04414969954817,25.53838991017845,25.41439783400574,74.0648165448165,80.18102877080241,81.76274170943708,400.0,392.6106977074687,377.1130477383389,354.238734063496,{}
152,152,24,0,5.066666666666652,17.886718737728692,143.6629849837385,22.997209805650968,35.864580139035255,33.31632566176677,38.6678815063846,33.31632566176676,109.99434238200529,74.14616335383684,65.11577244277771,60.04804551731763,59.53362604888957,26.47869939516817,50.0863820273529,13.340148106938273,5.234565671977407,23.138732432524574,28.107700873573457,26.71505428606769,74.74375843970824,81.87611485331865,79.25381447446755,400.0,395.3700623811831,379.8645577414623,354.7008475990609,{}
153,153,24,0,5.099999999999985,17.9690346797649,136.65534716661995,23.245218512260088,36.02963146807849,33.46964974385541,38.84583382617127,33.4696497438553,110.6495269782844,74.61996849172482,65.6388318100195,65.88299793961357,64.59938171546185,31.7834538980178,45.34513835318603,5.818130059470377,10.39450094557651,26.17841670644209,23.245218512260088,24.52125558637681,73.91955169082439,83.42110221959967,79.61854612223935,400.0,397.720120205022,379.5783622977808,356.6197254758809,{}
154,154,24,0,5.133333333333319,17.855051462249662,128.45105951667512,25.63443520061745,35.80108422590237,33.257341267918584,36.07265133540434,30.71475584169754,109.94764235697303,74.14663064964495,65.22246413212315,65.20166836292367,67.2535175905897,35.51917379243264,43.65725147243177,4.380975377989216,11.72881382841456,26.01235880634691,28.05793801210657,27.90792226548274,73.45065681198594,77.81776834384243,79.23676256204725,400.0,394.9255219145333,379.9890420636944,354.357574811496,{}
155,155,24,0,5.166666666666652,23.08736104508965,131.45561642712752,23.22943845405752,36.00517268825315,33.74075813556049,36.27828789930002,33.446928812206714,115.69304706177792,79.68846142487767,68.1330983202779,71.0332733875814,69.49211755471492,36.833624405513206,45.32399199385122,5.926444702750814,13.015761533937509,25.780567435895843,25.780567435895733,25.779333931587644,73.21891256873789,78.90717864277292,79.56449692966478,400.00000000000006,394.90045371897736,379.9100693211118,356.68217859014686,{}
156,156,24,0,5.199999999999985,17.85505146224966,123.38745171239282,22.956494737178044,35.80108422590255,30.714755841697567,36.07265133540431,36.07265133540436,112.49231882980246,76.691508709457,67.7680342213066,69.73454848868755,72.91444389977175,35.2856815352759,41.11548978893029,4.295648186903236,13.94690969773751,25.63443520061755,25.507216374642454,25.3833756498824,76.5127466017882,79.83211110984962,79.11350073596013,400.00000000000006,395.1972568581882,377.4550949865358,352.1289466307797,{}
157,157,24,0,5.233333333333318,10.196047806034644,128.3649619318942,22.941107563578026,33.527017667928305,30.694168496563524,33.52701766792841,38.32005213904442,104.7888861468546,71.41783820736383,66.17826974304421,67.76094582367159,69.66575951362995,30.42099510727872,36.02338831303905,1.5966820636417651,9.201930840461271,25.994923362247658,25.49011951508661,25.48388609470237,73.01318945407183,75.35218861747683,76.64010427808897,400.00000000000006,395.22017252611687,374.6700748320037,354.4226734734689,{}
158,158,24,0,5.266666666666652,10.196047806034676,135.9605795361924,23.08228494262616,30.69416849656351,30.694168496563453,33.23504969033123,38.32005213904454,102.24683977343666,71.5541752799933,66.4421942159646,65.83328237638955,66.78205198689022,28.01702499068324,35.890396683794165,1.748851446221579,6.818396529195866,20.55079135655633,20.55079135655633,21.814620671290182,73.1543851917462,80.54629170937903,84.15600693080712,400.00000000000006,392.6885075468734,379.7343447580592,359.48299028544943,{}
159,159,24,0,5.299999999999985,15.61448155081488,144.57503169050966,23.10304458826928,33.469649743855186,36.02963146807843,38.84583382617123,36.02963146807843,108.08889440423503,74.61996849172498,66.77572070991266,66.56894058171315,66.71154756667829,30.63198037050552,41.384547036874665,4.449337930911497,7.002002961786843,13.08920835322097,13.089208353220965,14.310610941248797,73.39981516154194,80.8438997767206,87.31591035701582,400.0,398.0099584446696,382.41481908968456,361.72005560161966,{}
160,160,24,0,5.333333333333318,25.798080509035174,149.6808240207382,23.10304458826933,33.469649743855484,38.59054628202413,43.71451916920706,28.69998788143264,110.8577666271705,77.39424152710552,64.49470646154452,63.8234129303836,64.9205808522812,35.77344882187083,46.48527248039693,9.629092156653655,12.184338501073055,8.117582420373116,8.117582420373214,7.911158173682452,77.30702923370359,82.34533982241737,84.86659694853134,400.0,397.4466505577032,384.6826298005632,364.2705755077088,{}
161,161,24,0,5.366666666666651,30.75229374934893,158.8520698877246,23.125995644458865,35.84483836806184,38.39261845461612,43.71468200122947,25.66576421609822,115.03620255491464,79.2101889629448,63.94286932807984,63.02584540997839,62.52823553193889,37.11458818920573,52.17084135617301,12.944965541571037,13.158226917874003,7.661516973053628,11.42111517501073,9.227108881361572,72.90695584533466,75.55139691148747,81.88230707924794,400.00000000000006,397.6943167899735,385.2489607780033,364.4033829892313,{}
162,162,24,0,5.399999999999984,28.287778214214825,159.95783523113536,23.28697513017521,38.659868525451806,41.22614390037521,46.57395026035049,28.287778214214715,118.40610186940286,79.76156913609668,65.55915007772069,63.53960686565438,62.88814131337495,35.02713119422435,55.0922702044312,13.051026563998107,13.485336932184282,10.603045226477567,10.60304522647755,10.4668798732896,73.09443496575307,78.74046975217482,84.90228958371013,400.0,397.6620107728885,387.1883971953552,364.1357689506938,{}
163,163,24,0,5.433333333333318,30.49848272498888,160.6205165698238,20.490552388407483,38.207727491287,40.98110477681514,45.81826803700001,28.07222934782931,117.15921556792247,78.95154710626225,63.74144739781934,59.98357734131548,60.097452191512616,31.970364192832108,57.10823737383896,17.963757618590307,10.561892355779833,12.959363212474326,12.95936321247422,14.03507528679097,67.84094200491438,74.64496430419024,81.36898914220973,400.00000000000006,395.11755787075225,382.25474747357697,361.7925139816928,{}
164,164,24,0,5.466666666666651,30.52313792927822,158.03074426911346,23.03323079784201,38.23861490739939,41.01423421211802,45.855307871696645,25.562811646296755,117.25392796460928,79.01537213455667,63.788335243229085,61.68069638488919,61.164539929785406,35.87287362970551,55.83092322704749,13.893211249873955,11.699546315683278,15.472083308611438,17.98593151073722,17.936436814852527,71.6167081456349,73.38024270057258,86.48222413295471,400.0,395.07686067278337,382.38614907399466,361.9152003051108,{}
165,165,24,0,5.499999999999984,30.706207412804723,158.97856971228015,23.02965555960354,35.91517990103397,38.4679597243736,43.575655822077074,25.7161304412522,115.2619483862084,79.36563020280856,63.99915588371755,61.81688023178776,61.41750952424513,35.9148371997328,53.615517487607576,13.963711524439418,11.581750518738204,18.09380623842904,18.093806238429035,19.23397854004748,71.95804355546136,76.1229095055495,84.48083195272821,400.0,395.0669789113715,384.6795972437364,364.085869289203,{}
166,166,24,0,5.533333333333317,25.41540227082397,160.29847009732498,22.87386204374163,35.67221699022897,40.74398935488115,43.50416107319254,28.07222934782931,111.94323493719249,76.28855405639922,63.54216640997436,62.51729275820071,57.56373677462739,31.970364192832108,51.84152555222363,12.896326784820076,10.761173343624703,17.97140329228375,17.79078158957684,19.002865626638936,70.3746574217995,77.17867972107558,78.82872896536325,400.0,392.3943868925188,379.5414014489157,364.3278191273193,{}
167,167,24,0,5.56666666666665,30.89005198851057,167.637636601493,23.16753899138307,33.56308353672247,43.8365525146585,46.40652764430157,28.432648004398683,115.95204611502372,82.41368357633061,66.93909425208824,57.87427583183546,56.02402017327131,28.52118896941886,58.957177399444845,21.937721161039008,6.906186818594506,20.753630082476366,20.75363008247637,21.91620656035809,74.5122336917932,80.09168680172729,84.98663660964489,400.00000000000006,400.1904623996468,384.4143240917081,369.0054149638925,{}
168,168,24,0,5.599999999999984,25.588506177337205,164.08598411107255,20.630113219562308,33.36333020336794,41.02149602776814,43.57565582207695,30.70620741280465,110.14952857194945,76.80815420235346,64.00776730244331,56.41701112658518,56.588231190702345,25.85422968168257,53.63468508468213,18.97689043964533,6.520630775126392,20.630113219562304,23.17137785453971,23.06476947044132,72.58303884697466,75.70780501711181,84.44207038521283,400.0,394.892916852147,384.6795972437363,366.6396315375349,{}
169,169,24,0,5.633333333333317,23.01976623084275,161.46283082312368,23.01976623084275,33.349003417625035,40.92402885483144,46.11052638583215,25.70508749413866,104.99251818662438,71.66271008012554,60.143638259017166,54.30534979935908,53.73506521233514,28.32888686041656,50.95492785059321,16.424196106290765,6.729358126883085,20.6212542954038,20.621254295403688,21.777742666978497,72.09822891450744,76.43239177588976,86.96356131651706,399.9999999999999,397.2757539750016,384.5144092323546,366.4821901965816,{}
170,170,24,0,5.66666666666665,25.588506177337155,161.53219551608552,23.02965555960351,33.36333020336794,41.02149602776809,46.13033554245823,25.716130441252265,107.5935069764584,74.25077292138982,61.43644320845851,54.79235350431793,53.32381007185768,28.35144286841944,53.50203136220489,16.70289933133199,6.865084104170933,20.47080494186986,20.470804941869755,21.693095461051257,71.51663939049138,76.87753580413266,81.92319205190414,400.0000000000001,397.44642428070034,384.6795972437364,364.085869289203,{}
171,171,24,0,5.699999999999983,23.17137785453973,166.63992801282402,23.02965555960354,33.265058030538334,41.02149602776821,43.8004672323908,25.7161304412522,105.03762314205076,71.83035980206759,60.2550555005048,54.4998383400233,53.58699100849719,28.3410569959766,50.97681816991451,16.602410842132258,6.561090195344377,20.630113219562272,20.630113219562155,21.78709842040973,72.1292024301224,78.84718826057292,81.92319205190417,400.00000000000006,395.0669789113715,384.6795972437364,364.0858692892029,{}
172,172,24,0,5.7333333333333165,20.47080494186981,163.94625999488977,20.63011321956227,35.82390864827206,41.02149602776821,43.575655822077024,30.70620741280472,107.50218413614488,71.69349649614584,61.4460360033554,56.88179934572452,53.58699100849719,24.596956612763734,52.16779867276512,15.240271464620491,5.37010969249377,20.630113219562272,23.029655559603544,23.063658360590807,71.95804355546113,76.29406838021043,87.03854302459808,400.00000000000006,395.0669789113716,382.3063265930679,364.2566771237944,{}
173,173,24,0,5.76666666666665,20.46201442741572,166.43084814754818,23.16142766779677,33.25077344455066,41.003880694380776,43.55694368870292,28.25129206121269,104.9925181866244,71.79951461459837,61.59506380712549,54.91966687818933,50.5969576142287,24.511887449246046,52.20557237311243,17.964045875639954,2.84164986040696,23.16142766779688,23.16142766779677,21.776533718280803,71.34596208124015,76.80249672591174,84.44455443572407,400.0,394.89733038029135,384.5144092323546,363.9295245775236,{}
174,174,24,0,5.799999999999983,23.29901584158773,167.55785292462366,20.583567003428616,33.44829638057157,43.81568941128992,44.04173918023983,28.41911607179141,105.61621587254513,72.22603254072092,60.58107243128916,53.19383580483623,50.4137700327085,23.386945052126293,53.767045242388576,19.46046040489432,4.471033612906467,20.74375282012677,23.156512878857093,23.186321748983005,71.09230049240114,77.88483232739372,84.94618897216355,400.0,397.4347800612492,384.4122354547869,363.5236548555517,{}
175,175,24,0,5.833333333333316,25.729458754285684,164.98984079349452,20.58356700342859,30.98237110508676,43.81568941128989,43.81568941128984,28.41911607179148,105.61621587254518,74.65977834402592,61.74865993194294,53.711395588107166,50.13927810195787,23.50683765078861,53.62497339086167,19.4593980797888,4.724413449423196,23.721388884722053,23.29901584158778,23.2907821576747,70.62133884915238,75.9507076792944,84.9461889721636,400.0,397.4347800612493,384.6102285799717,363.8876882482473,{}
176,176,24,0,5.866666666666649,28.223609410157263,164.03402635951338,17.886718737728458,30.76923076923072,40.96370213834442,48.61686194579024,28.223609410157263,105.04514628777794,74.2781352708207,60.15915119363388,50.50397877984085,49.65517241379314,21.85676392572941,54.96021220159139,20.795755968169715,5.729442970822333,23.13873243252456,23.13873243252456,23.0238726790451,67.9045092838196,70.23872679045098,76.69994162113002,399.9999999999999,392.36125915042334,376.87056419776695,358.83690686639653,{}
177,177,24,0,5.899999999999983,28.27200712753743,167.55539715068062,18.1739345069418,30.949095250775827,43.76863024682371,46.33462334482718,28.388593218558466,105.65919773799348,74.71233521526534,60.61753828427777,48.45134222017987,47.384132039118526,19.5299463134204,57.736070795412616,25.933207399787875,3.3083515612897827,23.69591150993022,23.27399210618344,23.1584609290286,68.08800955170648,70.64931398625345,82.2859882178224,400.00000000000006,392.5653991183468,379.2913629226174,358.58420894344465,{}
178,178,24,0,5.933333333333316,28.092228901196275,166.31355604356054,18.058368686073305,30.75229374934889,43.49031089441055,46.03998715697024,28.208073635561284,104.98732385651486,74.23724863756982,60.231628997052894,48.42972552128265,43.825491052709936,17.919566866883088,58.846095476417645,24.825918569742043,4.476339066667833,20.589708193240565,22.98455091916063,21.62142822201622,66.98876939768957,71.05300105821982,79.21018896294483,400.0,392.36974812054,374.3356526234776,356.3040159317853,{}
179,179,24,0,5.966666666666649,31.148421392357264,166.05553171126323,15.520413607288878,31.14842139235749,41.46852631987529,46.63303923124084,28.92058322067556,106.559693208994,75.4156542768365,59.839392022284414,44.323356003595336,41.63362361861266,14.164016282620878,63.580695313097976,29.22937905595381,0.6581260090914611,23.84852387466222,23.28062041093332,23.29909143055352,70.10472705539598,72.26509721567459,82.81594711984499,399.9999999999999,394.8480529834198,379.157559599796,360.8936530878266,{}
180,180,24,0,5.999999999999982,28.436853012380595,165.95492877896797,18.0961791896968,28.55411888312993,44.250956053507714,46.60478711316836,26.363648802781388,101.11941848438455,72.56913671821229,58.39208976915245,42.18635560414532,38.58508134525482,14.147863159926828,60.70719464986757,29.32466182239375,1.5434032538101974,21.317845205492464,20.6813476453676,21.8648794289777,69.45314642145877,72.7971868047141,82.7657739817677,400.0,394.6088385981365,378.9278511287528,358.099490333672,{}
181,181,24,0,6.033333333333316,28.27200712753753,170.11812331563715,15.421094796838709,31.26761920212876,43.76863024682361,46.33462334482712,28.73551354433284,103.32005643316172,72.14845994538508,58.046767186498414,42.8744631069859,37.44437533116036,11.499009407630524,63.157438034334064,29.31376261869445,1.350262468320352,15.633809601064382,15.421094796838718,15.469942580593738,68.45685524870919,73.19003336346623,77.27662951995303,400.0,392.3213265750138,379.2913629226173,356.02361972590126,{}
182,182,24,0,6.066666666666649,25.5383899101784,166.48993292743842,15.5343961229779,30.752293749348965,40.94115353962396,46.25199128891768,28.208073635561384,99.89395975646308,69.1425672286439,56.4138579799386,39.133937517615095,35.32219035680839,9.021134947242444,62.63971167592285,28.84222018343712,4.192921876887226,8.07594798896278,8.07594798896278,6.479970173371271,69.11968184929401,71.91496310055231,74.23724863757006,400.0000000000001,392.36974812054,376.6631146100085,356.3040159317854,{}
183,183,24,0,6.099999999999982,25.70182466139761,167.7720934223689,15.421094796838682,31.2676192021288,41.203159377380814,46.54798421236682,28.73551354433288,100.76295383979551,69.58505002859405,56.7719267067439,40.03758391308065,37.98666090639733,10.358647359843076,61.7506166142723,27.836078199406074,2.838596335337229,5.747102708866533,8.127630595230235,6.658068891262019,68.80995305032047,72.58484032349133,77.27662951995315,400.0,394.880746362621,376.73124038269737,358.8144100385704,{}
184,184,24,0,6.133333333333315,23.117806766445906,167.45517941646975,15.624458753512188,33.491035883293684,43.74245148429236,46.30690981816012,28.37161351788525,100.47310764988174,66.98207176658806,55.46197286231518,39.810662195934015,35.60019828753832,9.335614803787507,62.73591223509516,28.79086182878837,3.9055682460635808,10.590795458963672,10.590795458963786,10.482603247798806,69.02257041556174,72.56516763503953,79.79354804292356,400.0,394.8869079915068,376.5059110172479,358.3697336262948,{}
185,185,24,0,6.166666666666648,20.68134764536756,165.95492877896797,18.27990145514488,33.70647282812822,44.02383245262588,46.60478711316839,28.554118883130126,101.11941848438454,67.41294565625633,57.105312795643954,42.279895050620894,38.49406712742791,11.834324691202482,60.70329429516698,26.515245187248524,1.5172211142566994,15.72496581666419,18.279901455144763,16.84837923069847,69.32978005908387,72.65321678555108,82.76577398176771,400.00000000000006,392.0346380470466,378.9278511287528,358.09949033367207,{}
186,186,24,0,6.1999999999999815,25.83001410829054,167.55539715068045,15.421094796838512,30.949095250775617,41.2031593773808,46.33462334482706,28.38859321855845,100.53323829040832,69.58505002859411,56.64601231968652,39.43076771811718,35.5019774563483,9.079077132196858,63.03922556383782,29.03733166198299,4.207377207603486,18.711210788999573,20.561459729118138,19.17963973245378,69.24671417743286,72.43260591697629,82.28598821782245,400.0000000000001,392.3213265750138,376.5119938760974,356.0236197259013,{}
187,187,24,0,6.233333333333315,25.798080509035103,167.34824871927694,15.402029725512886,30.91083294085564,41.15221998671335,46.490437024520055,28.69998788143277,100.63838078403955,69.73565553678002,56.83322229034525,42.24110235364208,38.22360620587722,11.622042427462588,60.40592422175041,26.45808177313711,1.6356948601614931,21.168065135730888,20.53603963401708,21.70882739845797,66.28868643812041,72.40101986293405,84.71116349032084,400.0000000000001,392.0800712325639,376.501838679515,355.815037403753,{}
188,188,24,0,6.266666666666648,23.13164219525792,167.55539715068053,18.17393450694209,33.51107943013603,41.44294700435283,46.334623344827136,28.73551354433281,103.32005643316172,69.82197631855038,58.296733843430616,41.67788804909264,38.85035154644049,11.635312708413608,63.05406400914285,28.91156073961816,4.354406214084406,20.721473502176416,23.273992106183385,23.15045511546441,69.71291247288866,74.30765928969834,82.28598821782248,400.00000000000006,392.3213265750138,376.9678833850909,356.02361972590126,{}
189,189,24,0,6.299999999999981,25.79808050903528,164.7889225259817,17.969034679765045,30.910832940855467,41.39171116468024,43.94004699019372,26.178416706442007,100.63838078403938,69.73565553678003,56.827883674547934,41.47343350698691,38.71805565265026,14.055282370956547,60.53979166484624,26.218919323780256,1.891645418132839,23.66661629781878,23.10304458826923,24.27730591347029,69.75531707922164,74.5665208974159,82.18425820091058,400.00000000000006,392.0800712325639,376.5018386795151,356.06496279805924,{}
190,190,24,0,6.333333333333314,25.85168455670956,165.95492877896797,18.09617918969661,31.44993163332841,41.44340306560752,44.25095605350762,26.36364880278148,101.35047343860548,69.9907803006637,57.10644639519546,42.09480132794352,38.67406864783538,14.149394267720368,60.96537210457393,26.475340123317324,1.8234484121238663,23.40969601306428,23.26651610103861,23.1535542562699,69.57374484087927,72.68350182279573,82.88680613121515,400.0,392.28174468239087,379.165873927952,358.3326978882065,{}
191,191,24,0,6.366666666666648,28.38859321855836,162.43065169343416,15.421094796838528,30.94909525077588,41.2031593773808,43.994437232574384,28.735513544332868,103.3200564331618,72.37699539243843,58.177561430278274,44.08343966854511,41.567653228316885,14.194181449696998,60.4932284945794,26.129872799643408,0.7861832625713987,23.695911509930266,23.13164219525802,23.028022472771227,69.5986600992693,74.65882146200113,84.85495460540314,400.00000000000006,392.3213265750138,376.73124038269737,353.69670386564263,{}
192,192,24,0,6.399999999999981,30.91083294085569,159.8978299052293,18.15146610491161,30.91083294085558,41.39171116468023,43.71451916920704,28.35349645262314,108.30205766547569,77.39424152710562,61.93827538201549,46.49783217439335,46.94967870630376,18.370385562977845,61.57821017689946,27.237873751717306,2.160391230696064,23.24521851226004,23.24521851225981,24.39971272315563,69.8667699966287,74.45583633634271,79.61854612223941,400.0,392.0800712325639,376.5018386795151,355.8150374037529,{}
193,193,24,0,6.433333333333314,33.51107943013613,159.68260496908823,15.633809601064485,30.949095250775507,38.63831475997653,43.76863024682365,28.38859321855845,108.43611703887726,77.49004232487137,60.73199981260052,48.78118478909323,44.75443604471059,18.37923176900381,61.66678077111783,29.769178217400626,4.630761056040001,23.695911509930408,23.131642195257776,23.038755316075253,70.15171562535284,76.68080108945901,82.24583891647258,400.00000000000006,392.3213265750139,376.73124038269737,353.6967038656427,{}
194,194,24,0,6.466666666666647,36.05265336189567,157.21283754407526,17.980516373902127,30.930584070266328,38.615204526436926,43.74245148429235,26.195143958571965,110.92860153799478,80.00000000000017,61.9781690540708,48.88639076562925,46.94002763430365,21.85751589448432,63.01528225543382,28.66268333904611,5.888813999521517,23.68173858203918,23.26007153546709,21.85751589448421,69.61444776273856,74.31697474426232,79.66942007348469,399.99999999999983,394.8869079915067,376.5059110172479,356.0423929351817,{}
195,195,24,0,6.4999999999999805,38.61520452643692,162.3334991566855,18.16306436745999,30.930584070266605,41.17851506663129,43.74245148429242,25.814564737320712,113.48645407154082,82.55707179335266,63.247711564372935,48.209048275036366,47.56910515634115,22.07803759498347,65.59416966625508,31.250555629614382,5.652830881807404,23.260071535467308,23.26007153546708,23.144609459475305,73.3801442770465,75.93991675182724,79.62800108442403,400.0,394.6445614688072,376.505911017248,356.04239293518174,{}
196,196,24,0,6.533333333333314,41.098323140348015,159.77303489767095,18.16306436745997,30.93058407026648,41.17851506663133,46.5201430709344,26.195143958572,116.04478339234949,85.11484055365582,64.64523467582444,51.41367122588531,50.18381436675622,24.759704468555924,65.24602681965166,31.00794276436068,8.658475013982525,23.68173858203917,23.11780676644564,23.0280094657594,70.27147639919588,73.69245754757765,82.23677156806528,399.9999999999999,392.08667251372685,376.742412479435,353.2517574248024,{}
197,197,24,0,6.566666666666647,40.86142385628554,156.30663004426037,18.05836868607325,31.06879224595593,40.941153539623954,46.25199128891773,28.55278793752693,118.16853380051802,87.16787845720552,66.81738694591434,56.02033034128681,54.94627759004118,27.04917060373941,62.66249867135866,28.4058688158392,11.051437519396243,23.125995644458865,22.98455091916052,22.89428232918374,69.58731246228467,73.54434891424239,81.76274170943711,400.00000000000006,389.8266033695019,374.3356526234776,351.2155408097855,{}
198,198,24,0,6.59999999999998,48.901056462507306,157.5377193724121,17.991277262978517,28.388593218558373,43.76863024682364,46.54798421236685,28.73551354433281,123.79638100310258,95.40882893605642,70.96971615277778,58.52139900501231,60.79643627684538,31.05640502209769,64.1374501320214,32.55878812613821,14.844975908973195,23.273992106183368,23.273992106183368,23.158162417998145,70.59769747939617,73.2590618351253,82.2859882178225,400.00000000000006,394.880746362621,374.17125577560506,353.46316976127616,{}
199,199,24,0,6.633333333333313,48.8334668566556,154.98008464974254,18.173934506942025,31.26761920212892,41.20315937738071,49.10326706928044,28.38859321855838,126.35786570951105,95.2355786951674,70.86203078687197,60.9053759027064,63.32259847574085,33.7260101856707,64.24344517023007,29.89874111169945,17.309040210478543,21.194267570009284,20.721473502176472,21.87730310892164,70.76131317966224,73.52385326313015,79.71710022762194,400.00000000000006,392.32132657501376,376.73124038269737,353.6967038656427,{}
200,200,24,0,6.666666666666647,54.25342391352578,155.54707982810288,18.26807807230602,31.109415965620293,41.41659760268995,49.15437088947903,28.53565016873302,131.98607392826,100.88875869939083,73.78736825899591,67.25674549552093,65.37846903699938,37.78225337718311,65.58074496330141,31.54059622271143,21.49904130984646,15.714794958170543,15.71479495817054,15.676384288429633,69.90078081790125,77.42833493243745,85.29451533796221,400.00000000000006,397.4304250640116,382.01691901557166,358.6224268678149,{}
201,201,24,0,6.69999999999998,56.11587602421327,151.03201692564994,18.03632566770208,33.25734126791861,45.98378826656386,48.73146845948009,26.012358806347088,133.02936507167445,99.77202380375584,71.82505645410765,69.02649028578128,67.25214163266708,42.259791701608265,64.86470503030637,28.743005620568283,26.449335410445087,8.066090051461146,8.066090051461243,7.861951349164201,71.19033010665214,76.80188804211059,84.21245246572963,400.00000000000006,392.6620357261261,377.17057780601664,354.3575748114961,{}
202,202,24,0,6.733333333333313,66.36060194001873,151.1273004258365,20.57754912202577,35.823670513796664,43.46462807353934,48.56140618429063,26.02876955584001,148.38681696568636,112.56328829773648,79.49117427693648,76.37675384694,75.21619151689424,49.9115255231734,72.54983629026992,33.76648753937138,28.91856894550915,8.071178808855587,8.07117880885567,7.8595043870192285,69.38399854185366,76.1857752356666,84.26558065267689,400.0,395.1746736295605,377.408528232372,356.83374339696724,{}
203,203,24,0,6.766666666666646,68.91670360975354,148.4905619042029,20.40577309971388,35.80108422590257,43.43722427630694,48.53078894477012,28.51793486524808,153.38301741891425,117.58245767390228,83.13591252524395,81.01894280621525,80.40179231185436,52.30709248135543,72.63000178403058,33.82128232468483,33.82128232468483,10.202886549857052,9.196757653312796,9.235728909796308,72.10614148067759,76.15350053671887,84.21245246572964,400.00000000000006,394.9255219145333,377.17057780601664,354.0728727525709,{}
204,204,24,0,6.799999999999979,71.92206549560875,144.4163511318119,23.117806766445703,36.326128734920005,43.74245148429239,48.87180790852148,26.81744316171763,157.2128375440752,120.9720083495504,85.11272154948472,85.99931239895852,86.78580428155624,60.1523291663151,70.82001906482242,31.36672626323832,36.27157564016602,12.84322598135872,13.097571979286055,11.733028903116974,70.76996958138443,75.98941571135106,84.80420141313515,400.0,395.4212161029424,374.7141866135902,353.7370448613157,{}
205,205,24,0,6.833333333333313,76.08664438894667,139.86059979986118,22.966462293680543,35.59756481232455,40.65872334680871,48.25490462673707,25.864485630868906,160.10368916446518,124.5075529392663,86.56366153899546,87.17041617595112,86.15915844769177,60.978841014035424,73.41731107162445,37.11315862711592,37.11315862711604,15.4272329848403,17.933794068384522,16.635189629865295,70.08016056836902,72.10267602488761,81.31744669361748,399.9999999999999,392.1887460690551,377.0364287462855,351.54811023814733,{}
206,206,24,0,6.866666666666646,63.8592973107208,143.4991130283566,20.57754912202581,33.27832275215875,40.91697610122469,43.464628073539416,26.028769555839816,143.49911302835656,110.22405569331576,78.30563449675208,82.70530661742828,84.28321810497289,57.65063097060522,59.99617507371181,23.220886620757824,36.14270231605565,15.525222421876206,18.581249017005305,18.11044355974628,70.72170856337323,72.37069714495146,79.2867516718669,400.00000000000006,394.9190758920106,381.97232114162114,356.56893167708205,{}
207,207,24,0,6.899999999999979,48.24254406080079,145.52723844525732,22.992358763900608,30.889256776768303,38.17076120593318,43.23899589929489,23.40917261586647,125.06102950485376,94.25430816222658,70.21856566365852,72.64137418884741,75.6002022992551,50.92186059578296,50.92186059578296,16.78813340905174,29.65260345430238,17.773568864505478,17.95401581425429,17.817291012671944,67.10965206938988,72.46984792157753,76.2147442633641,400.00000000000006,395.1596899921975,382.2898632291498,356.77480085067725,{}
208,208,24,0,6.933333333333312,20.60104810498421,148.75392107400342,22.997209805651035,30.662946407534708,35.86458013903522,38.41376343155294,23.55819979965469,97.40145512526112,66.87717563636893,56.542355047156775,64.76825014337032,65.94947729386467,42.03318540945816,32.04256541371092,0.3202121793508468,20.500695304663736,15.331473203767354,15.542951789691298,16.757770719362497,68.25500498519102,69.70663353158159,71.59248979453508,400.0,394.90738985479385,381.964338340806,359.04609615401193,{}
209,209,24,0,6.9666666666666455,10.408266221385045,149.70631331156386,22.719378181933354,27.88263712282922,35.7000586150819,38.20073090874996,23.27359079893177,83.91412498971529,56.0502289586893,50.82793078545171,59.21631656542843,62.57167087741914,37.84725923101325,22.947211269292097,8.573214619196506,14.075426986740467,17.67062747483713,17.85002930754095,17.814656580187716,66.93647500361044,68.75632818977465,75.7733218485692,399.99999999999983,394.9659330356509,379.86607066085554,361.8672478274087,{}
210,210,24,0,6.999999999999979,7.621083252022386,150.41855316619402,22.86324975606704,30.589998257358964,38.19000108396876,38.190001083968696,23.420971951583475,84.17761586062637,53.5889757741934,49.76659831354164,61.05841876064835,63.649984109164734,39.200985738821146,21.800475541640026,10.12419210326982,17.75649444835085,17.782527588052268,23.003948005623734,22.9823432555238,68.86159354629103,70.54183921181254,73.71425775297122,400.00000000000006,392.21233621355486,379.5438887741815,359.0906201622157,{}
211,211,24,0,7.033333333333312,10.17047308479785,150.55220457259597,25.42618271199451,33.1516862982314,35.687348060459065,38.22393404800748,23.44178218924856,91.85153517124078,58.700901098099685,53.60697591978135,60.84962053873062,64.28559958039739,39.41395875804142,29.262850551955125,5.325054655861322,15.133990675225618,17.79832789839629,20.49924385794309,20.4590453310866,66.85189098081241,70.18806980135207,76.27854813598353,400.00000000000006,392.3878707873833,382.0786308665472,361.6243249702631,{}
212,212,24,0,7.066666666666645,22.90022588463069,153.19735325860455,22.90022588463069,33.17582392594863,35.713331894703444,41.02833857247794,23.041151681741567,101.90592577117172,68.74778131225685,57.29205679507436,63.86702273546007,66.2916305659711,42.05981465986429,36.81125182675805,0.071311995015094,17.87078595076639,20.514169286239024,20.355756341893933,20.30965618028017,66.26310576796527,70.65592466089106,73.78961673936563,400.00000000000006,392.25290267796447,381.97564571871226,364.08149533951126,{}
213,213,24,0,7.099999999999978,25.44469542736749,153.0070590468179,22.900225884630665,33.17582392594853,35.713331894703515,38.251764761704514,23.041151681741606,104.44729796814596,71.29056967315682,58.57650445206389,65.12329024376515,67.53526395649715,43.329384910864974,38.11779885299734,3.3164638550064183,21.363195741341087,17.99211668191779,20.514169286239007,20.394099160332644,68.00904450721225,68.95660560864269,76.37648233440297,400.0,394.794764609092,381.8824116720148,364.0014647242088,{}
214,214,24,0,7.133333333333312,25.469442067339607,150.4638412537469,22.9224978606056,35.65721889427552,38.288967119011424,40.830621739074985,25.973836420337165,109.63699941158404,74.03682495503338,61.29431803679154,69.83297303535028,70.68108859918016,44.5835664613295,39.37987435783077,2.019665029120233,20.06008931058693,20.37555365387182,22.9224978606056,22.899120223407408,68.72611035035186,70.98296024054332,76.450763487269,400.0,397.4538873127755,382.11803169699135,364.24864141845126,{}
215,215,24,0,7.166666666666645,25.473056988321545,147.94123430774908,22.925751289489515,35.66227978365012,38.29440153686208,38.547729998488045,25.60010544223556,109.56376087972764,73.9157712820542,61.18814743426879,69.55769070623899,70.63215909926225,44.53388734240912,39.44430021756239,2.0641103339656866,22.53556076946029,20.37844559065737,22.9257512894894,21.63074528059872,66.27773455911563,70.91491393953152,76.41917096496464,400.0,397.4123454413436,384.6431605236556,364.2647149329984,{}
216,216,24,0,7.199999999999978,28.02490923313321,145.42098082218402,22.92947119074532,35.668066296715054,38.21578531790883,40.84304295978708,23.070576960669563,109.58153854670826,73.92776475467603,59.9252244322837,69.17676317518158,71.13942627513552,47.14658098801954,39.4097061592164,1.919996510824376,25.03106562259859,20.38175216955148,22.92947119074531,21.639071786808927,66.9012117549454,70.27187229617016,78.97928965701172,400.0,394.9046666479962,379.6101341578953,364.35945072226247,{}
217,217,24,0,7.233333333333311,25.442213518485467,144.50063185207148,22.78435378694086,35.53262718449744,38.0582159187538,38.05821591875381,22.92456651825873,106.3571181031137,70.88465622603803,58.23920658375175,67.93978389247286,71.45686866468418,46.851572351774735,36.65774534938987,0.8006371839179565,24.648187590619383,22.92456651825873,22.784353786940745,22.77526846395392,67.63954494850373,68.72612398382114,78.52026238013949,400.0000000000001,392.4053704584974,379.77298288047865,362.097722534858,{}
218,218,24,0,7.266666666666644,28.38709677419357,144.60826555996786,20.64516129032262,36.1290322580645,38.70967741935482,41.370889140339,23.368735840354592,108.41781438761294,72.30413277998403,58.113784598520056,69.22061149466128,70.36712265813401,46.50535906835944,38.62309481948501,0.4299416863021861,26.441413707588023,20.645161290322623,23.225806451612936,21.927026001414447,69.07729759922722,72.58848803736214,77.4193548387097,400.0,397.4277334684442,384.594060082821,364.01735787820417,{}
219,219,24,0,7.299999999999978,20.38175216955148,140.12454616566606,22.92947119074537,35.66806629671491,35.66806629671491,38.30061513442641,25.477190211939284,104.45647986895106,68.78841357223614,58.58258007360837,70.44012023097832,67.27427213070962,43.38650919231861,35.572620472109975,0.2590239354765344,20.865817024498146,20.38175216955136,22.92947119074537,21.621303502971383,68.7276842131057,71.07328985103209,76.47402083105706,400.0,392.4231685373178,379.8238088385839,362.0989072908915,{}
220,220,24,0,7.333333333333311,10.504727708580004,137.60320628168952,25.604778652537256,33.12101910828023,33.12101910828023,35.75966585380433,30.57324840764333,99.36305732484068,66.24203821656046,61.15968298684322,67.88524475657084,67.34147593263549,37.04782855707458,31.724617964864592,3.591736179152349,11.919985008900426,20.38216560509552,20.38216560509552,20.3770211916858,71.34819358268601,73.60912711378592,71.33757961783442,400.00000000000006,394.91267712836975,382.2420305747767,364.4113759738932,{}
221,221,24,0,7.366666666666644,5.69687291895885,145.30935036064008,22.9294711907454,33.12034727552116,33.12034727552105,35.66806629671505,35.66806629671493,96.84683962230056,63.74390954480902,61.08393339105851,65.84986267886597,66.79577230850714,30.669300684134896,30.378251567322195,4.765929287807353,8.258518689559423,17.834033148357523,18.015093964441707,19.136479430432928,70.65217310627509,69.05140296380546,68.83557738550556,400.0,394.8964482850589,384.7393153432478,364.3594507222624,{}
222,222,24,0,7.399999999999977,8.056594945107637,145.24233090114734,22.92947119074549,30.572628254327203,33.12034727552102,35.66806629671494,35.66806629671494,96.8468396223006,66.28967104168964,62.33676259857418,66.31885453374787,63.80229085724409,29.41418838360653,31.605079113739293,0.8733956289042908,7.120394872931456,10.1908760847757,10.50451462877777,8.956006025204715,70.10850336424778,74.75674450790768,73.88385161462381,400.0,394.89644828505885,382.1918212564131,361.8119825966341,{}
223,223,24,0,7.4333333333333105,22.929471190745367,150.3370115392067,22.929471190745367,30.57262825432712,33.120347275521006,38.21578531790887,33.21819194149603,109.58153854670825,79.02037121487807,67.56229292873729,69.02671905800639,66.36278810928582,34.5060006037304,41.879643726984455,9.309040469976368,12.208457027423378,7.643157063581751,10.504514628777722,10.27305968070118,70.13055784891264,74.82555217290076,73.92776475467595,400.0,392.3487292638649,382.1663454814686,361.7850717399411,{}
224,224,24,0,7.466666666666644,28.3865060101846,152.27676372152033,25.805914554713222,36.12828037659848,36.12828037659853,41.28946328754122,31.074436080281284,121.3152484014852,85.19860892911495,71.01295409769466,72.4336503169468,69.85454025738136,40.10734711273301,50.161504972055695,12.08684629609877,14.928238734603156,5.161182910942738,8.160546709658478,7.781043908519337,71.12223842225251,75.71218005368246,77.46074158118105,400.0,394.8304926871128,384.5167864705855,363.8999975146006,{}
225,225,24,0,7.499999999999977,25.60010544223564,145.2857764879411,23.06683416749744,35.66227978365027,38.20958548248238,40.75689118131444,30.567668385985925,114.6287564474472,78.96647666379693,66.24175852471194,68.01713078745684,69.79250305020173,38.34513042895776,45.6940074181889,7.960070719028522,15.83282804808573,12.736528494160735,12.73652849416085,12.733202704113182,71.34959183801902,76.23914167639839,81.55357430171502,400.00000000000006,392.31815811754376,379.55709703543744,359.1701035353341,{}
226,226,24,0,7.53333333333331,23.072657077611755,146.1493143979595,25.636285641791023,33.32717133432824,33.32717133432824,35.89079989850727,25.636285641790906,107.67239969552192,74.34522836119368,62.77243366452876,66.67387434683246,64.25731034212197,39.84419084875128,42.144293937572,6.885751651976307,14.746863474528707,15.381771385074543,15.593943771790713,15.460186584352869,70.63354548708116,77.88323750121276,76.95157220604754,400.0,394.83209135729845,381.9892587462302,361.4716275492523,{}
227,227,24,0,7.566666666666643,23.07265707761186,148.77883144443783,23.072657077611748,35.890799898507275,35.890799898507275,41.09809233619329,28.199914205970146,110.23602825970104,74.34522836119375,62.77284419380089,64.09734903497076,64.18420181144086,35.95704945864202,46.031971529179486,8.20758737642916,13.505606741108297,17.945399949253698,20.66863425531247,20.54068163519048,73.21689056433638,77.86351410548946,79.51382358623,400.0,394.8737030021797,382.0150656345109,358.9171546845934,{}
228,228,24,0,7.599999999999976,23.344941470595145,144.46102342566894,23.20215761453221,33.61323593923319,36.18420009197961,38.75610133744263,28.47513413668756,108.30742187080442,74.7625078690481,63.16329757486767,64.86376440154822,64.34277030996952,36.16567319042156,43.69114340211377,8.335905465259088,11.11454062034568,20.62414010180637,23.20215761453221,21.896223904404792,73.02600516961456,78.85824458367608,77.51220267488532,400.0,394.84928344079947,381.7642677559669,363.6467103741464,{}
229,229,24,0,7.63333333333331,20.645326546139223,140.8638454352984,23.046638387921355,33.38793342452701,35.85032638121085,38.49632726786744,28.28427124746178,105.02146540932134,71.7006527624217,61.4610368793426,64.19753499412775,61.28334219656449,34.494091820914946,42.270011139291,7.043817225329917,12.260933111699616,20.485900789263376,20.485900789263376,21.7498291720583,72.58472402126154,73.26707160312992,76.86479507103019,400.00000000000006,392.2026909898402,379.3004777996153,356.0898762952972,{}
230,230,24,0,7.666666666666643,15.676585215116344,141.84049629650357,23.19493260394153,36.17293255241616,36.08100627279799,38.7440329234931,31.033774966563985,105.69722885976618,69.58479781182459,61.84972508055489,65.0929949329851,63.983455246627386,33.528013342885856,41.13831760187759,3.200595249108688,11.152296334672316,23.337671997981257,23.194932603941755,24.40276066598267,72.46147643982215,76.87118544970531,79.8936567469099,400.00000000000006,397.3008688714316,379.1660118523057,355.8050056455446,{}
231,231,24,0,7.699999999999976,10.491116685870686,137.49556262451395,25.444695427367414,33.078104055577725,33.07810405557779,35.71333189470352,28.10458469676478,96.68984262399638,63.61173856841865,58.52781575859592,61.26209667924377,60.97801554463115,33.0528400121957,35.49593776986569,0.4971419855723979,8.32357724415408,20.355756341894025,25.444695427367414,24.153998470450688,72.00036356760666,72.82419885798356,78.87855582483905,400.00000000000006,392.2529026779644,376.8908277882255,356.5527319848692,{}
232,232,24,0,7.733333333333309,10.239384017185785,141.00081663015806,23.038614038667987,35.83784406015008,35.83784406015008,38.39769006444654,30.82462776787893,99.86680731361298,64.04732656509539,58.92758136625878,62.925575740514205,62.73995457313811,32.01965137238574,36.98858723753165,0.4926100211137054,10.01640376264379,23.03861403866788,23.180391463226304,23.074138959988773,70.67882911630272,75.00523017130058,79.35522613318952,400.0,392.19146584540505,379.2807302013703,356.26950476829967,{}
233,233,24,0,7.766666666666643,10.491116685870749,142.5130110605034,25.44469542736738,33.07810405557759,33.17582392594861,35.71333189470352,30.639470651720924,99.234312166733,66.15620811115541,61.05360368924835,64.71553502241625,60.06138447811725,31.76529129161179,36.71924907956191,2.0415445639102927,7.252479989275912,22.90022588463076,25.44469542736749,24.141621381624983,70.84016871414724,74.00955957560245,78.87855582483905,400.00000000000006,394.794764609092,376.8908277882255,353.9100116727958,{}
234,234,24,0,7.799999999999976,15.2615689646391,145.07412665261654,25.435948274398424,35.610327584157744,35.701054680460224,40.69751723903758,28.094923150523265,104.31840276227692,68.72414780636048,61.09311455576733,62.66797189800843,59.6601362533678,33.086192091047224,43.10285230385989,6.001483385297206,8.682997238302278,23.03323079784193,22.89235344695853,24.05559120513305,72.76975953472606,77.21057348176646,78.8514396506351,400.00000000000006,392.38196563439976,374.3321320524581,353.88891410452766,{}
235,235,24,0,7.833333333333309,20.7626607856882,149.72167615572843,25.881355443358974,38.71511466632812,36.05407567886042,41.28505732767274,28.445020143857487,113.42980756187184,74.72783085747373,64.49742920345057,63.56889478523931,65.56881507061757,36.14141658576523,48.85519554281291,8.571086937335622,11.428115916447496,18.027037839430243,18.210058144239483,18.070708292882728,71.28287302884121,75.56841649750925,79.8340247174767,400.00000000000006,394.70064737249857,376.7062048424997,355.9868426281402,{}
236,236,24,0,7.866666666666642,25.26590159867639,149.2614010634717,22.739311438808755,37.898852398014704,37.8988523980146,40.50432154519535,30.42417437189213,116.25060704652245,78.3650358142856,65.72101978344926,67.92748087929647,66.19383287541655,36.643014627462776,49.09375938260064,9.85027274931781,15.208821124947008,7.989779618950692,7.989779618950802,7.722613835465268,71.55238125104552,72.18279870700178,75.96595739994176,400.0000000000001,389.9143431841755,372.1042037676254,351.7772123797913,{}
237,237,24,0,7.899999999999975,30.706207412804734,153.72283106392945,23.02965555960349,35.91517990103372,38.382759266005806,43.575655822077,30.812641726441697,120.37481704583456,84.48083195272832,69.10216065762756,69.42309110611143,66.57848031273215,37.19146265497602,52.333544724348485,12.713222084256358,15.61618386826899,10.235402470934757,10.550411377093155,10.298949846798678,69.40850335845289,68.62076498490171,71.83035980206755,400.0,392.3394790477333,374.30133529751134,353.71424423382683,{}
238,238,24,0,7.933333333333309,25.43594827439849,147.87892447568086,25.562811646296847,38.15392241159751,38.15392241159768,43.31585907484505,28.09492315052329,117.11590092681222,79.01537213455676,66.31640326339755,65.46993508794048,67.16287143885461,38.23701068444132,50.788090527425766,8.639813101217328,13.864564942831748,10.174379309759168,11.375301882744706,9.10683002560745,75.27729050013306,79.91827118625986,83.93862930551491,400.0,392.538577178591,377.1474434438597,354.0077285829817,{}
