,video_id,frame_seq,gap,time_seconds,m1,m3,m4,m5,m6,m7,m8,m9,m10,m11,m12,m13,m14,m15,m16,m17,e1,e2,e3,b1,b2,b3,m_0_16,m_1_15,m_2_14,m_3_13
0,24,0,0,0.0,15.0,69.0,6.0,14.035668847618199,18.0,20.0,12.041594578792296,47.042533945356304,33.015148038438355,25.5,18.0,18.0,6.0,29.0,14.0,0.0,8.06225774829855,9.0,9.0,33.0,32.0,38.01315561749642,170.07351351694948,167.0478973228936,160.0281225285106,149.00335566691106
1,24,1,0,0.0333333333333333,15.0,70.0,6.0,14.035668847618199,18.0,20.0,12.041594578792296,47.042533945356304,33.015148038438355,25.5,18.0,18.0,6.0,29.0,14.0,0.0,8.06225774829855,9.0,9.0,33.0,32.0,38.01315561749642,170.07351351694948,167.0478973228936,160.0281225285106,149.00335566691106
2,24,2,0,0.0666666666666666,15.0,70.0,6.0,14.035668847618199,18.0,20.0,12.041594578792296,47.042533945356304,33.015148038438355,25.5,18.0,18.0,6.0,29.0,14.0,0.0,8.06225774829855,9.0,9.0,33.0,32.0,38.01315561749642,170.07351351694948,167.0478973228936,160.0281225285106,149.00335566691106
3,24,3,0,0.0999999999999999,15.0,69.0,6.082762530298219,15.033296378372908,18.0,20.0,13.038404810405298,49.09175083453431,34.058772731852805,26.5,19.0,19.0,6.0,30.0,14.0,1.0,6.082762530298219,6.082762530298219,6.0,33.0,31.0,36.013886210738214,168.07438829280326,166.02710622064097,159.00314462299164,148.00337833982033
4,24,4,0,0.1333333333333332,16.0312195418814,69.00724599634447,6.0,14.0,17.0,19.0,12.041594578792296,48.041648597857254,34.058772731852805,26.0,18.0,19.0,6.5,29.5,14.5,1.5,2.0,3.0,3.0,32.0,27.0,32.0624390837628,168.14577009250038,165.07574019219177,157.01273833673497,148.0
5,24,5,0,0.1666666666666665,17.029386365926403,69.00724599634447,6.0,13.038404810405298,17.0,19.0,12.041594578792296,48.093658625644196,35.05709628591621,26.5,18.0,19.0,6.5,29.5,15.5,1.5,2.23606797749979,3.1622776601683795,2.5,30.0,25.0,30.066592756745816,166.14752480852673,163.04907236779974,156.00320509528,145.0
6,24,6,0,0.1999999999999998,18.0,66.0,7.0710678118654755,14.035668847618199,17.029386365926403,20.024984394500787,11.045361017187261,50.08991914547278,36.05551275463989,27.0,20.0,20.0,9.0,30.0,15.0,2.0,2.0,3.1622776601683795,3.0,32.0,26.0,32.01562118716424,166.24379687675568,163.11039206623224,156.00320509528,146.01369798755184
7,24,7,0,0.2333333333333331,16.0312195418814,62.0,8.06225774829855,14.035668847618199,17.029386365926403,19.0,10.0,48.093658625644196,34.058772731852805,26.0,21.0,21.0,11.0,27.0,11.0,3.0,4.123105625617661,4.123105625617661,4.0,32.0,28.0,35.014282800023196,166.19265928433782,164.0762018087937,157.01273833673497,146.0
8,24,8,0,0.2666666666666664,20.0,59.0,6.082762530298219,13.038404810405298,17.0,19.0,12.0,51.03920062069938,38.01315561749642,28.0,23.0,23.0,11.0,28.0,14.0,5.0,6.082762530298219,6.0,6.0,33.0,30.0,33.015148038438355,164.43843832875572,163.19620093617377,156.08010763707205,146.03081866510234
9,24,9,0,0.2999999999999997,16.0,58.008620049092706,8.06225774829855,14.0,14.0,16.0,12.0,50.00999900019995,36.013886210738214,28.0,24.0,23.0,11.5,26.5,11.5,3.5,8.06225774829855,8.0,8.0,33.0,31.0,35.014282800023196,163.04907236779974,160.0124995117569,155.0290295396317,146.05478424207814
10,24,10,0,0.333333333333333,19.0,62.03224967708329,8.06225774829855,14.035668847618199,17.029386365926403,18.0,11.045361017187261,52.08646657242167,38.05259518088089,28.5,21.0,23.0,11.0,30.0,14.0,3.0,7.0710678118654755,8.0,7.5,33.0,31.0,34.0,163.11039206623224,161.02794788483146,157.0,148.03040228277433
11,24,11,0,0.3666666666666663,16.0,59.00847396772772,8.06225774829855,14.035668847618199,15.0,17.0,12.0,50.039984012787215,36.013886210738214,28.0,23.0,24.0,11.5,26.5,11.5,4.5,7.0710678118654755,8.0,8.0,32.0,29.0,35.0,162.19741058352318,160.04999218994044,154.00324671902212,144.00347218036097
12,24,12,0,0.3999999999999997,12.0,56.0357029044876,9.055385138137417,15.033296378372908,15.033296378372908,17.0,11.0,47.042533945356304,32.01562118716424,26.0,23.0,25.0,13.0,23.0,7.0,4.0,8.06225774829855,8.0,8.0,33.0,30.0,35.0,160.1998751560063,159.11316727411344,152.029602380589,142.01408380861386
13,24,13,0,0.433333333333333,7.0,54.08326913195984,10.04987562112089,15.0,13.038404810405298,15.033296378372908,12.041594578792296,44.04543109109048,29.068883707497267,25.5,23.0,26.0,12.5,19.5,3.5,2.5,8.06225774829855,9.0,8.5,33.0,30.0,35.014282800023196,160.1998751560063,158.11388300841898,152.029602380589,141.01418368376991
14,24,14,0,0.4666666666666663,6.0,53.150729063673246,9.0,15.033296378372908,14.035668847618199,16.0312195418814,12.041594578792296,42.04759208325728,27.018512172212592,24.0,22.0,26.0,12.0,18.0,1.0,3.0,8.06225774829855,8.0,8.5,33.0,29.0,34.0,159.31415505221122,156.20499351813308,150.08331019803634,140.03213916812098
15,24,15,0,0.4999999999999996,4.0,54.230987451824994,11.0,15.033296378372908,14.035668847618199,16.0312195418814,11.180339887498949,41.10960958218893,26.076809620810597,24.0,22.0,27.0,13.5,16.5,0.5,2.5,7.0710678118654755,8.0,8.0,34.0,28.0,33.015148038438355,160.44936896105264,158.25612152457168,154.11683879446787,146.03081866510234
16,24,16,0,0.533333333333333,4.0,56.32051136131489,10.0,14.035668847618199,13.038404810405298,15.033296378372908,11.180339887498949,39.11521443121589,25.079872407968907,23.0,21.0,27.0,13.0,15.0,1.0,2.0,8.06225774829855,8.0,8.0,34.0,28.0,32.0,161.60754932861275,158.38244852255568,153.26447729333762,145.16886718577092
17,24,17,0,0.5666666666666663,6.0,57.3149195236284,11.045361017187261,14.035668847618199,13.038404810405298,15.033296378372908,10.04987562112089,41.10960958218893,27.073972741361768,24.0,22.0,28.0,15.0,16.0,0.0,4.0,8.06225774829855,8.06225774829855,8.0,33.0,27.0,32.01562118716424,159.45218719101973,157.31814898478814,153.20900756809309,145.1240848377691
18,24,18,0,0.5999999999999996,7.0,58.215118311311535,11.045361017187261,15.033296378372908,14.035668847618199,16.1245154965971,11.045361017187261,44.10215414239989,29.068883707497267,25.5,24.0,29.0,15.5,17.5,0.5,4.5,8.06225774829855,9.0,9.0,32.0,27.0,34.0147027033899,159.31415505221122,157.25775020646836,151.16216457830973,142.08800090085018
19,24,19,0,0.633333333333333,11.0,56.22277118748239,10.0,14.035668847618199,14.035668847618199,15.132745950421556,10.198039027185569,45.09988913511872,31.064449134018133,25.5,24.0,29.0,16.5,18.5,2.5,5.5,8.06225774829855,9.0,9.0,34.0,27.0,33.015148038438355,159.38004893963358,157.31814898478814,151.21177202850313,142.12670403551894
20,24,20,0,0.6666666666666663,11.0,57.3149195236284,10.04987562112089,15.0,13.152946437965905,16.1245154965971,10.198039027185569,46.09772228646444,31.144823004794873,25.5,24.0,30.0,17.0,19.0,3.0,6.0,8.06225774829855,9.055385138137417,9.0,33.0,26.0,32.0624390837628,157.45793088949188,156.3873396410336,151.21177202850313,143.17122615944868
21,24,21,0,0.6999999999999996,13.0,57.3149195236284,9.055385138137417,13.038404810405298,14.035668847618199,16.1245154965971,10.04987562112089,45.09988913511872,32.0624390837628,25.5,24.0,30.0,17.0,18.0,3.0,8.0,8.06225774829855,8.06225774829855,8.0,33.0,25.0,32.0624390837628,159.6151621870554,156.54072952429985,151.33076356114773,143.17122615944868
22,24,22,0,0.733333333333333,12.0,59.413803110051795,10.0,14.035668847618199,14.035668847618199,16.1245154965971,10.198039027185569,46.09772228646444,32.0624390837628,26.0,24.0,31.0,17.5,18.5,3.5,7.5,8.06225774829855,8.06225774829855,8.0,33.0,25.0,31.064449134018133,158.61904047118682,156.54072952429985,151.40013210033868,143.22360140703069
23,24,23,0,0.7666666666666663,16.0,58.309518948453004,9.055385138137417,13.152946437965905,16.1245154965971,17.11724276862369,11.045361017187261,49.16299421312742,36.05551275463989,28.0,26.0,32.0,18.0,20.0,5.0,8.0,8.06225774829855,9.055385138137417,9.0,33.0,26.0,32.01562118716424,158.61904047118682,155.46382215808282,151.33076356114773,143.28293687665675
24,24,24,0,0.7999999999999996,19.026297590440446,57.42821606144492,9.055385138137417,14.035668847618199,15.132745950421556,17.11724276862369,11.045361017187261,53.150729063673246,39.11521443121589,29.5,27.0,34.0,19.5,22.5,6.5,9.5,9.055385138137417,9.055385138137417,9.0,33.0,26.0,32.0624390837628,158.61904047118682,155.54420593516173,151.40013210033868,143.28293687665675
25,24,25,0,0.8333333333333329,23.0,58.42088667591412,9.055385138137417,14.142135623730951,15.132745950421556,17.11724276862369,11.180339887498949,57.21887800367987,43.104524124504614,31.5,28.0,35.0,20.5,25.5,9.5,9.5,8.06225774829855,9.055385138137417,9.0,32.0,24.0,33.015148038438355,158.91192529196795,155.82361823549087,150.65191668213185,142.59382875847047
26,24,26,0,0.8666666666666663,25.0,59.53990258641679,9.055385138137417,14.142135623730951,15.132745950421556,18.110770276274835,11.180339887498949,59.21148537234985,45.09988913511872,32.5,29.0,37.0,22.0,26.0,10.0,11.0,8.06225774829855,9.055385138137417,9.0,32.0,25.0,33.015148038438355,158.80806024884254,155.63097378092831,151.5585695366646,143.42245291445826
27,24,27,0,0.8999999999999996,24.020824298928627,58.42088667591412,10.0,15.132745950421556,15.132745950421556,17.11724276862369,11.180339887498949,60.207972893961475,45.09988913511872,33.0,29.0,36.0,21.5,27.5,10.5,10.5,8.06225774829855,9.055385138137417,9.0,32.0,25.0,33.06055050963308,159.02201105507376,155.82361823549087,150.74813431681335,141.59802258506295
28,24,28,0,0.9333333333333328,23.021728866442675,60.40695324215582,10.04987562112089,14.142135623730951,16.1245154965971,18.110770276274835,11.180339887498949,58.309518948453004,44.181444068749045,32.5,29.0,36.0,21.5,25.5,10.5,10.5,8.06225774829855,9.055385138137417,9.0,32.0,25.0,33.06055050963308,160.01562423713506,155.92947123619703,150.74813431681335,142.59382875847047
29,24,29,0,0.9666666666666662,20.024984394500787,59.413803110051795,9.055385138137417,15.033296378372908,14.142135623730951,17.26267650163207,12.165525060596439,56.22277118748239,41.19465984809196,31.0,28.0,35.0,19.5,24.5,8.5,8.5,8.06225774829855,9.055385138137417,9.0,33.0,25.0,33.015148038438355,158.14550262337528,155.16765126791086,149.96666296213968,142.79005567615695
30,24,30,0,0.9999999999999996,15.0,58.42088667591412,10.04987562112089,13.152946437965905,14.035668847618199,16.1245154965971,12.165525060596439,50.24937810560445,37.12142238654117,29.5,26.0,33.0,17.5,20.5,5.5,6.5,9.055385138137417,9.219544457292887,8.5,33.0,25.0,33.06055050963308,158.14550262337528,155.16765126791086,151.07613974417006,141.7956275771577
31,24,31,0,1.0333333333333328,3.0,57.42821606144492,10.04987562112089,13.038404810405298,13.038404810405298,13.152946437965905,14.035668847618199,40.11234224026316,27.073972741361768,25.5,23.0,30.0,12.5,13.5,0.5,2.5,9.055385138137417,9.055385138137417,9.0,33.0,25.0,30.14962686336267,160.13119621110684,157.15279189374905,151.95394038984313,143.8923208513922
32,24,32,0,1.066666666666666,1.0,58.42088667591412,9.055385138137417,13.038404810405298,13.038404810405298,14.142135623730951,15.033296378372908,38.118237105091836,25.079872407968907,24.5,23.0,30.0,11.5,11.5,2.5,2.5,9.219544457292887,9.219544457292887,9.5,34.0,24.0,29.068883707497267,158.14550262337528,157.0350279396288,150.9602596712128,143.8923208513922
33,24,33,0,1.0999999999999992,1.0,58.42088667591412,10.0,13.152946437965905,13.038404810405298,14.142135623730951,14.142135623730951,38.2099463490856,25.079872407968907,24.5,22.0,29.0,11.5,12.5,1.5,1.5,8.246211251235321,8.06225774829855,8.5,34.0,25.0,31.064449134018133,158.14550262337528,157.0350279396288,152.0690632574555,144.88616221019868
34,24,34,0,1.1333333333333324,4.0,57.3149195236284,10.04987562112089,13.038404810405298,14.035668847618199,15.033296378372908,12.041594578792296,39.11521443121589,26.076809620810597,24.0,23.0,29.0,14.0,13.0,2.0,3.0,8.06225774829855,9.055385138137417,8.5,33.0,23.0,28.160255680657446,159.02201105507376,157.0350279396288,151.95394038984313,143.78456106272327
35,24,35,0,1.1666666666666656,6.0,57.42821606144492,9.055385138137417,13.038404810405298,13.152946437965905,15.132745950421556,12.041594578792296,40.11234224026316,27.073972741361768,24.0,22.0,29.0,13.5,14.5,0.5,3.5,8.06225774829855,9.055385138137417,9.0,33.0,23.0,28.160255680657446,159.02201105507376,156.92354826475216,151.74320413119,143.58969322343438
36,24,36,0,1.1999999999999988,8.0,57.42821606144492,9.055385138137417,13.038404810405298,14.035668847618199,15.132745950421556,11.045361017187261,41.10960958218893,28.071337695236398,24.0,22.0,29.0,14.5,15.5,0.5,5.5,6.082762530298219,7.0710678118654755,6.5,34.0,23.0,29.154759474226502,160.01562423713506,156.92354826475216,152.8397853963424,142.68847185389575
37,24,37,0,1.233333333333332,10.04987562112089,57.55866572463264,8.0,13.038404810405298,14.035668847618199,15.132745950421556,10.04987562112089,41.10960958218893,28.071337695236398,23.0,21.0,29.0,15.0,16.0,1.0,6.0,4.123105625617661,3.605551275463989,3.5,34.0,24.0,30.265491900843113,161.00931650062986,157.91770008456936,151.8453160291749,142.79005567615695
38,24,38,0,1.2666666666666653,12.0,58.42088667591412,8.06225774829855,13.152946437965905,14.035668847618199,17.029386365926403,10.0,43.104524124504614,30.01666203960727,24.0,21.0,28.0,14.5,18.5,4.5,6.5,3.1622776601683795,4.47213595499958,3.5,33.0,26.0,31.144823004794873,159.90622251807463,156.92354826475216,150.8509197850646,141.69333082400175
39,24,39,0,1.2999999999999985,15.0,56.32051136131489,7.0710678118654755,13.038404810405298,13.152946437965905,15.132745950421556,11.045361017187261,46.09772228646444,33.06055050963308,25.5,23.0,29.0,15.0,20.0,5.0,7.0,4.123105625617661,4.47213595499958,4.5,33.0,26.0,31.016124838541646,158.80806024884254,155.92947123619703,149.85659811966906,140.69825869569246
40,24,40,0,1.3333333333333317,16.0312195418814,57.3149195236284,7.0710678118654755,13.152946437965905,15.033296378372908,16.0312195418814,11.045361017187261,47.095647357266465,34.0147027033899,26.0,23.0,29.0,15.0,21.0,6.0,7.0,5.0990195135927845,6.082762530298219,5.5,33.0,26.0,31.064449134018133,159.80300372646317,156.81836627130127,150.74813431681335,141.59802258506295
41,24,41,0,1.366666666666665,15.0,58.309518948453004,7.0710678118654755,14.035668847618199,15.132745950421556,16.1245154965971,12.041594578792296,48.093658625644196,34.058772731852805,26.5,24.0,30.0,15.0,21.0,5.0,7.0,6.082762530298219,7.0710678118654755,6.5,32.0,26.0,31.016124838541646,158.71042813879623,155.72411502397438,148.56984889270097,139.43457247038842
42,24,42,0,1.399999999999998,14.0,58.215118311311535,8.06225774829855,16.0312195418814,15.132745950421556,17.029386365926403,11.045361017187261,49.09175083453431,33.06055050963308,26.0,24.0,29.0,15.5,22.5,5.5,6.5,7.0710678118654755,8.06225774829855,7.5,33.0,27.0,33.06055050963308,158.71042813879623,155.72411502397438,150.65191668213185,140.51334456200237
43,24,43,0,1.4333333333333311,15.0,58.215118311311535,7.0710678118654755,14.035668847618199,15.132745950421556,17.029386365926403,11.045361017187261,47.095647357266465,33.06055050963308,25.5,23.0,28.0,14.5,21.5,5.5,6.5,8.06225774829855,8.0,8.0,32.0,26.0,32.01562118716424,157.62296786953354,154.63505424062166,149.56603892595405,140.4314779527724
44,24,44,0,1.4666666666666646,12.0,62.289646009589745,6.0,13.038404810405298,14.035668847618199,16.1245154965971,12.041594578792296,43.04648650006177,30.01666203960727,24.0,20.0,26.0,11.0,20.0,6.0,5.0,8.06225774829855,9.055385138137417,9.0,32.0,26.0,33.0,157.71493271088823,154.63505424062166,149.4824404403407,141.42842712835352
45,24,45,0,1.4999999999999978,12.0,62.289646009589745,6.0,12.041594578792296,15.033296378372908,16.0312195418814,11.180339887498949,41.10960958218893,29.068883707497267,23.0,18.0,24.0,10.0,20.0,7.0,4.0,8.06225774829855,8.06225774829855,8.0,31.0,26.0,33.0,156.81836627130127,153.83432646844463,148.75819305167698,141.69333082400175
46,24,46,0,1.533333333333331,11.0,63.198101237299845,6.0,12.041594578792296,15.033296378372908,17.11724276862369,12.041594578792296,41.048751503547585,29.017236257093817,23.5,19.0,24.0,9.5,19.5,6.5,3.5,8.246211251235321,8.06225774829855,8.5,32.0,27.0,32.01562118716424,156.71949463930773,155.72411502397438,149.6562728387955,140.51334456200237
47,24,47,0,1.5666666666666642,12.041594578792296,62.20128616033595,5.0990195135927845,12.041594578792296,15.033296378372908,17.029386365926403,12.041594578792296,41.048751503547585,29.017236257093817,23.0,18.0,23.0,8.5,20.5,6.5,3.5,9.219544457292887,9.0,9.0,32.0,26.0,32.0,157.71493271088823,154.72879499304582,147.6651617681029,138.52075656738234
48,24,48,0,1.5999999999999974,12.0,62.289646009589745,6.082762530298219,12.041594578792296,14.035668847618199,16.1245154965971,11.045361017187261,41.10960958218893,29.068883707497267,23.0,18.0,24.0,10.0,20.0,6.0,4.0,9.219544457292887,9.055385138137417,9.0,32.0,26.0,31.016124838541646,157.62296786953354,154.63505424062166,147.57371039585607,138.43771162512041
49,24,49,0,1.6333333333333306,14.0,60.29925372672534,6.082762530298219,12.041594578792296,14.035668847618199,16.1245154965971,12.165525060596439,44.181444068749045,32.14031735997639,25.0,20.0,26.0,11.0,21.0,7.0,5.0,9.055385138137417,9.055385138137417,9.0,32.0,26.0,30.0,157.71493271088823,154.63505424062166,147.48898263938224,139.43457247038842
50,24,50,0,1.666666666666664,13.0,57.21887800367987,7.0710678118654755,14.035668847618199,15.132745950421556,16.0312195418814,12.041594578792296,46.09772228646444,32.0624390837628,25.5,22.0,27.0,12.5,21.5,6.5,4.5,9.055385138137417,9.055385138137417,9.0,32.0,26.0,30.01666203960727,156.62694531912445,153.63918770938616,147.57371039585607,138.52075656738234
51,24,51,0,1.699999999999997,12.0,57.3149195236284,9.0,13.038404810405298,14.142135623730951,16.1245154965971,12.165525060596439,46.09772228646444,33.06055050963308,27.0,22.0,28.0,13.0,21.0,6.0,4.0,9.055385138137417,9.0,9.0,32.0,26.0,30.01666203960727,156.71949463930773,154.63505424062166,147.57371039585607,137.44089638822936
52,24,52,0,1.7333333333333305,10.0,57.21887800367987,9.0,13.038404810405298,14.035668847618199,16.1245154965971,12.041594578792296,44.04543109109048,31.016124838541646,26.0,22.0,27.0,12.5,19.5,4.5,3.5,9.055385138137417,9.0,9.0,32.0,26.0,30.066592756745816,157.62296786953354,154.5477272560163,147.57371039585607,138.43771162512041
53,24,53,0,1.7666666666666635,8.06225774829855,56.22277118748239,9.0,14.035668847618199,14.035668847618199,16.0312195418814,12.165525060596439,43.18564576337837,29.154759474226502,25.0,22.0,27.0,12.5,18.5,2.5,3.5,9.055385138137417,9.055385138137417,9.0,32.0,25.0,31.016124838541646,156.81836627130127,154.72879499304582,148.66068747318505,138.61096637712328
54,24,54,0,1.7999999999999967,9.0,57.3149195236284,9.055385138137417,14.035668847618199,15.132745950421556,16.1245154965971,11.045361017187261,43.104524124504614,29.068883707497267,24.5,21.0,27.0,13.0,19.0,4.0,3.0,9.055385138137417,10.04987562112089,9.5,32.0,26.0,31.016124838541646,156.71949463930773,153.73353570382747,147.763324272297,138.70832707519762
55,24,55,0,1.83333333333333,12.0,57.3149195236284,9.055385138137417,13.038404810405298,14.035668847618199,16.1245154965971,11.045361017187261,45.09988913511872,32.0624390837628,26.0,22.0,28.0,14.0,20.0,5.0,5.0,9.055385138137417,9.0,9.5,31.0,25.0,31.016124838541646,156.71949463930773,154.63505424062166,147.6651617681029,137.5245432641025
56,24,56,0,1.8666666666666631,16.0312195418814,55.226805085936306,9.0,13.038404810405298,14.035668847618199,17.029386365926403,12.165525060596439,50.15974481593781,37.12142238654117,29.0,25.0,30.0,15.5,22.5,7.5,6.5,9.219544457292887,9.0,9.5,32.0,26.0,30.01666203960727,157.53729717117784,154.5477272560163,147.48898263938224,136.444127759314
57,24,57,0,1.8999999999999964,17.029386365926403,55.226805085936306,9.0,14.035668847618199,15.0,17.029386365926403,12.165525060596439,52.15361924162119,38.118237105091836,29.5,26.0,31.0,16.5,23.5,7.5,7.5,9.219544457292887,10.04987562112089,10.0,31.0,26.0,31.016124838541646,156.62694531912445,154.63505424062166,146.57762448614045,136.5283853270081
58,24,58,0,1.9333333333333296,14.0,55.14526271584895,8.06225774829855,14.035668847618199,15.033296378372908,16.0312195418814,14.035668847618199,50.08991914547278,36.05551275463989,29.0,25.0,29.0,13.0,23.0,7.0,5.0,9.055385138137417,9.0,9.5,32.0,26.0,30.066592756745816,157.53729717117784,154.5477272560163,147.41099009232656,137.44089638822936
59,24,59,0,1.9666666666666628,8.0,55.14526271584895,8.0,12.041594578792296,13.038404810405298,14.142135623730951,15.132745950421556,43.104524124504614,31.064449134018133,27.0,23.0,27.0,10.0,18.0,4.0,2.0,9.055385138137417,10.0,10.0,31.0,25.0,31.016124838541646,157.71493271088823,154.72879499304582,147.6651617681029,138.52075656738234
60,24,60,0,1.999999999999996,3.0,56.22277118748239,8.06225774829855,12.041594578792296,12.041594578792296,14.142135623730951,15.033296378372908,38.118237105091836,26.076809620810597,24.5,22.0,27.0,9.5,13.5,0.5,1.5,9.055385138137417,10.0,10.0,32.0,27.0,31.064449134018133,157.62296786953354,154.63505424062166,147.57371039585607,138.52075656738234
61,24,61,0,2.033333333333329,3.1622776601683795,55.226805085936306,8.06225774829855,12.041594578792296,12.041594578792296,14.035668847618199,14.035668847618199,37.05401462729781,25.019992006393608,23.5,21.0,26.0,9.5,13.5,0.5,1.5,10.04987562112089,10.0,10.0,31.0,26.0,32.0624390837628,157.62296786953354,154.63505424062166,147.57371039585607,138.52075656738234
62,24,62,0,2.0666666666666624,3.0,55.226805085936306,9.0,12.041594578792296,14.035668847618199,14.035668847618199,13.038404810405298,37.05401462729781,25.019992006393608,23.5,21.0,26.0,10.5,13.5,0.5,1.5,10.04987562112089,10.04987562112089,10.0,32.0,26.0,31.016124838541646,157.62296786953354,154.63505424062166,147.48898263938224,137.5245432641025
63,24,63,0,2.099999999999996,3.0,57.3149195236284,9.0,13.038404810405298,14.035668847618199,15.033296378372908,13.038404810405298,38.05259518088089,25.019992006393608,23.5,21.0,27.0,11.0,14.0,0.0,2.0,9.055385138137417,10.0,10.0,32.0,26.0,31.016124838541646,157.45793088949188,155.46382215808282,148.4082207965583,139.35924798878617
64,24,64,0,2.133333333333329,4.123105625617661,56.22277118748239,9.055385138137417,13.038404810405298,14.035668847618199,14.142135623730951,13.038404810405298,39.05124837953327,26.019223662515376,24.0,22.0,27.0,11.5,14.5,0.5,2.5,9.219544457292887,9.0,9.0,32.0,26.0,32.01562118716424,158.5339080449353,155.46382215808282,147.41099009232656,138.36184445142382
65,24,65,0,2.166666666666662,5.0990195135927845,56.142675390472796,9.055385138137417,12.041594578792296,14.035668847618199,15.033296378372908,12.041594578792296,38.05259518088089,26.019223662515376,23.5,22.0,26.0,12.0,14.0,0.0,3.0,9.055385138137417,9.0,9.5,31.0,26.0,32.01562118716424,157.45793088949188,154.46682491719702,148.33745312630927,139.35924798878617
66,24,66,0,2.199999999999996,4.0,56.142675390472796,9.055385138137417,13.0,14.035668847618199,16.1245154965971,12.041594578792296,38.05259518088089,25.079872407968907,23.0,22.0,26.0,12.0,14.0,0.0,3.0,9.219544457292887,10.04987562112089,10.0,32.0,27.0,30.0,158.45504094221806,155.46382215808282,148.4082207965583,139.35924798878617
67,24,67,0,2.2333333333333285,4.0,56.142675390472796,9.0,13.038404810405298,13.038404810405298,15.033296378372908,12.165525060596439,38.118237105091836,25.079872407968907,23.0,22.0,26.0,12.0,14.0,0.0,3.0,10.04987562112089,11.0,10.5,31.0,27.0,30.01666203960727,158.45504094221806,155.54420593516173,148.48568954616468,139.43457247038842
68,24,68,0,2.2666666666666617,5.0990195135927845,56.142675390472796,10.04987562112089,13.038404810405298,14.035668847618199,15.132745950421556,12.041594578792296,40.049968789001575,27.018512172212592,24.5,22.0,26.0,12.0,16.0,1.0,2.0,10.04987562112089,9.0,9.0,32.0,27.0,30.01666203960727,158.5339080449353,155.46382215808282,148.48568954616468,139.35924798878617
69,24,69,0,2.299999999999995,9.0,57.07889277132134,9.0,14.035668847618199,14.035668847618199,16.0312195418814,12.041594578792296,44.04543109109048,30.01666203960727,25.5,23.0,26.0,12.5,19.5,4.5,3.5,8.06225774829855,7.0710678118654755,7.0,31.0,26.0,30.01666203960727,157.53729717117784,155.46382215808282,148.4082207965583,139.35924798878617
70,24,70,0,2.333333333333328,11.0,57.14017850864661,9.0,15.033296378372908,15.0,17.029386365926403,12.041594578792296,47.042533945356304,32.01562118716424,26.5,23.0,27.0,13.0,22.0,6.0,4.0,5.0990195135927845,5.0990195135927845,5.0,32.0,26.0,31.016124838541646,158.45504094221806,155.46382215808282,148.33745312630927,138.36184445142382
71,24,71,0,2.3666666666666614,11.0,58.137767414994535,10.0,15.033296378372908,15.033296378372908,17.029386365926403,12.165525060596439,48.093658625644196,33.06055050963308,27.5,25.0,29.0,15.0,21.0,4.0,5.0,4.123105625617661,4.47213595499958,3.5,32.0,26.0,30.066592756745816,159.45218719101973,155.46382215808282,148.4082207965583,138.36184445142382
72,24,72,0,2.3999999999999946,11.0,57.07889277132134,9.0,16.0312195418814,15.0,17.029386365926403,13.152946437965905,49.09175083453431,33.06055050963308,27.5,26.0,29.0,14.5,21.5,4.5,5.5,4.123105625617661,4.47213595499958,4.0,32.0,26.0,30.01666203960727,158.45504094221806,155.3898323572041,148.4082207965583,137.3644786689776
73,24,73,0,2.433333333333328,10.04987562112089,57.14017850864661,10.0,16.0312195418814,15.033296378372908,17.029386365926403,12.041594578792296,48.093658625644196,32.0624390837628,27.0,24.0,28.0,14.0,22.0,5.0,4.0,5.0,5.0990195135927845,5.0,32.0,26.0,31.016124838541646,158.45504094221806,155.46382215808282,148.4082207965583,138.36184445142382
74,24,74,0,2.466666666666661,9.0,58.137767414994535,10.0,15.033296378372908,15.033296378372908,17.029386365926403,11.180339887498949,45.09988913511872,30.066592756745816,25.5,23.0,27.0,14.0,20.0,4.0,4.0,7.0710678118654755,7.0710678118654755,7.0,33.0,26.0,31.064449134018133,158.71042813879623,155.63097378092831,148.48568954616468,139.43457247038842
75,24,75,0,2.4999999999999942,9.0,57.14017850864661,9.0,14.035668847618199,16.0312195418814,17.029386365926403,11.045361017187261,43.04648650006177,29.017236257093817,24.5,22.0,26.0,13.0,19.0,3.0,4.0,7.0710678118654755,7.0710678118654755,7.0,31.0,25.0,32.01562118716424,158.45504094221806,155.46382215808282,149.40548852033515,140.356688476182
76,24,76,0,2.5333333333333274,10.0,54.147945482723536,9.055385138137417,13.0,14.035668847618199,16.0312195418814,10.04987562112089,42.04759208325728,29.068883707497267,24.0,22.0,26.0,14.0,18.0,3.0,5.0,7.0710678118654755,7.0,7.0,32.0,27.0,32.0624390837628,158.5339080449353,156.46085772486356,150.4027925272666,140.356688476182
77,24,77,0,2.5666666666666607,9.0,54.147945482723536,8.0,13.038404810405298,14.035668847618199,15.033296378372908,11.045361017187261,41.048751503547585,28.0178514522438,23.5,22.0,26.0,13.0,17.0,3.0,5.0,8.246211251235321,8.06225774829855,8.0,32.0,27.0,31.016124838541646,158.61904047118682,155.63097378092831,150.47923444781344,140.4314779527724
78,24,78,0,2.599999999999994,6.0,54.147945482723536,9.0,13.038404810405298,13.038404810405298,15.033296378372908,12.165525060596439,40.11234224026316,27.073972741361768,24.0,22.0,26.0,12.0,16.0,1.0,3.0,7.0710678118654755,8.06225774829855,8.0,32.0,26.0,31.016124838541646,158.71042813879623,156.71949463930773,149.56603892595405,140.51334456200237
79,24,79,0,2.633333333333327,5.0,52.08646657242167,9.0,14.035668847618199,13.0,15.033296378372908,11.045361017187261,39.05124837953327,25.019992006393608,22.5,22.0,25.0,12.5,15.5,0.5,3.5,8.06225774829855,8.06225774829855,8.0,32.0,27.0,33.0,159.70597985047397,157.62296786953354,150.47923444781344,141.35416513141735
80,24,80,0,2.6666666666666603,5.0990195135927845,52.08646657242167,9.0,14.0,13.0,14.035668847618199,12.041594578792296,40.049968789001575,26.076809620810597,23.5,23.0,26.0,12.5,15.5,0.5,3.5,8.06225774829855,8.06225774829855,8.0,32.0,28.0,33.0,159.6151621870554,157.62296786953354,150.47923444781344,143.42245291445826
81,24,81,0,2.699999999999993,6.0,55.14526271584895,9.0,14.035668847618199,14.0,15.0,12.041594578792296,41.048751503547585,27.018512172212592,24.0,22.0,26.0,12.0,17.0,2.0,3.0,8.06225774829855,9.055385138137417,9.0,33.0,28.0,33.0,159.53056133543816,157.45793088949188,151.47607071745688,143.42245291445826
82,24,82,0,2.7333333333333267,12.0,57.14017850864661,8.06225774829855,13.0,14.035668847618199,17.029386365926403,11.0,44.01136216933077,31.016124838541646,25.0,22.0,26.0,13.0,20.0,5.0,5.0,8.06225774829855,8.06225774829855,8.0,32.0,28.0,32.01562118716424,158.38244852255568,156.3873396410336,151.33076356114773,141.2267680009707
83,24,83,0,2.76666666666666,14.0,60.13318551349163,7.0,14.035668847618199,16.0312195418814,18.027756377319946,11.045361017187261,46.04345773288535,32.01562118716424,25.0,21.0,25.0,12.0,23.0,8.0,5.0,8.06225774829855,8.06225774829855,8.5,31.0,26.0,35.0,157.45793088949188,155.3898323572041,149.33519344079613,141.2267680009707
84,24,84,0,2.799999999999993,18.0,64.1248781675256,6.082762530298219,12.041594578792296,17.029386365926403,19.026297590440446,10.04987562112089,46.09772228646444,34.058772731852805,25.0,19.0,23.0,11.0,25.0,11.0,5.0,7.0710678118654755,8.06225774829855,8.5,32.0,27.0,35.014282800023196,157.45793088949188,155.46382215808282,149.33519344079613,140.28898745090436
85,24,85,0,2.8333333333333264,18.0,66.06814663663572,6.0,12.041594578792296,17.029386365926403,19.026297590440446,10.198039027185569,46.09772228646444,34.058772731852805,25.0,18.0,21.0,9.5,26.5,12.5,3.5,8.06225774829855,8.0,8.5,31.0,26.0,34.0147027033899,156.3873396410336,154.39235732380018,149.27156460625713,142.22517358048822
86,24,86,0,2.86666666666666,16.0312195418814,67.06713054842886,7.0,11.0,16.0312195418814,18.0,10.04987562112089,44.04543109109048,33.06055050963308,25.0,18.0,21.0,9.5,24.5,11.5,2.5,8.06225774829855,8.0,8.5,30.0,25.0,33.015148038438355,158.5339080449353,155.3898323572041,150.26975743641833,142.1724305201258
87,24,87,0,2.899999999999993,15.033296378372908,67.06713054842886,6.0,12.041594578792296,18.027756377319946,19.026297590440446,11.045361017187261,44.10215414239989,32.0624390837628,24.5,18.0,21.0,8.5,24.5,11.5,2.5,7.0710678118654755,7.0710678118654755,7.0,31.0,25.0,32.0624390837628,158.45504094221806,154.3243337908834,148.21605850919124,141.12760183606892
88,24,88,0,2.933333333333326,13.0,68.11754546370561,7.0710678118654755,12.041594578792296,17.0,19.026297590440446,10.04987562112089,42.1070065428546,30.066592756745816,23.5,16.0,20.0,8.0,24.0,11.0,2.0,3.1622776601683795,3.1622776601683795,3.0,31.0,24.0,30.066592756745816,158.45504094221806,155.32224567009067,150.2131818450032,142.12670403551894
89,24,89,0,2.9666666666666592,14.035668847618199,66.12110101926616,6.0,11.0,17.0,18.0,10.04987562112089,41.048751503547585,30.066592756745816,23.0,16.0,20.0,8.0,23.0,10.0,2.0,2.0,3.1622776601683795,2.5,30.0,23.0,28.160255680657446,158.45504094221806,156.32018423735306,150.16324450410627,142.1724305201258
90,24,90,0,2.9999999999999925,13.0,68.11754546370561,6.082762530298219,12.041594578792296,17.029386365926403,19.026297590440446,11.045361017187261,42.1070065428546,30.066592756745816,23.5,16.0,20.0,7.0,24.0,10.0,1.0,3.1622776601683795,2.23606797749979,2.0,30.0,23.0,29.154759474226502,158.38244852255568,156.259399717265,150.16324450410627,142.08800090085018
91,24,91,0,3.0333333333333257,13.0,66.06814663663572,6.082762530298219,12.041594578792296,17.029386365926403,18.0,11.045361017187261,42.1070065428546,30.066592756745816,23.5,17.0,20.0,7.5,23.5,10.5,1.5,4.0,4.123105625617661,4.0,31.0,24.0,30.14962686336267,157.45793088949188,155.32224567009067,149.164338901763,140.089257261219
92,24,92,0,3.066666666666659,13.0,65.12296062065974,7.0,13.038404810405298,16.0312195418814,18.027756377319946,10.198039027185569,43.104524124504614,30.066592756745816,23.5,16.0,20.0,8.0,25.0,11.0,1.0,6.082762530298219,6.082762530298219,5.5,31.0,25.0,31.064449134018133,158.45504094221806,155.32224567009067,148.21605850919124,140.12851244482687
93,24,93,0,3.099999999999992,10.0,64.1248781675256,7.0,13.038404810405298,16.0312195418814,18.027756377319946,11.045361017187261,41.048751503547585,28.0178514522438,23.0,16.0,20.0,7.0,23.0,9.0,0.0,6.082762530298219,7.0710678118654755,7.0,30.0,24.0,30.01666203960727,157.3848785620779,154.3243337908834,148.21605850919124,140.12851244482687
94,24,94,0,3.1333333333333253,5.0,62.07253821135398,8.0,13.038404810405298,16.0,16.0312195418814,11.045361017187261,37.05401462729781,24.020824298928627,21.5,17.0,20.0,7.5,18.5,4.5,0.5,7.0710678118654755,7.0710678118654755,7.0,32.0,26.0,31.016124838541646,157.3848785620779,155.32224567009067,149.164338901763,140.1748907615055
95,24,95,0,3.1666666666666585,4.0,61.1310068623117,8.0,13.038404810405298,15.033296378372908,17.029386365926403,11.180339887498949,36.124783736376884,23.08679276123039,21.0,17.0,21.0,8.0,17.0,3.0,0.0,7.280109889280518,8.06225774829855,8.0,31.0,26.0,33.015148038438355,157.3848785620779,155.32224567009067,149.27156460625713,140.22838514366484
96,24,96,0,3.199999999999992,5.0,60.07495318350236,8.0,13.038404810405298,15.033296378372908,16.0312195418814,11.0,37.013511046643494,24.0,21.5,18.0,21.0,8.5,17.5,3.5,0.5,8.246211251235321,8.06225774829855,8.5,32.0,27.0,31.016124838541646,157.31814898478814,155.2063143045411,149.12075643584967,140.12851244482687
97,24,97,0,3.233333333333325,6.0,60.07495318350236,8.0,13.038404810405298,14.035668847618199,15.033296378372908,12.0,39.01281840626232,26.0,23.0,18.0,21.0,7.5,19.5,4.5,0.5,9.055385138137417,8.0,8.5,31.0,25.0,30.01666203960727,157.31814898478814,155.2610704587599,149.12075643584967,139.0898989862312
98,24,98,0,3.266666666666658,6.0,58.034472514187634,9.0,13.0,14.0,16.0,11.045361017187261,39.01281840626232,26.019223662515376,23.0,17.0,19.0,7.0,21.0,7.0,1.0,8.06225774829855,9.0,9.0,31.0,27.0,33.0,157.53729717117784,154.3243337908834,148.27339613025663,139.2300254973761
99,24,99,0,3.2999999999999914,6.082762530298219,53.08483775994799,9.055385138137417,14.035668847618199,13.0,15.0,11.0,40.01249804748511,26.0,23.0,19.0,22.0,9.5,19.5,4.5,0.5,10.198039027185569,10.0,10.0,32.0,28.0,33.015148038438355,157.45793088949188,154.46682491719702,147.27525250360293,137.17871555019022
100,24,100,0,3.3333333333333246,5.0,51.03920062069938,9.0,13.0,13.0,14.035668847618199,12.0,39.0,26.0,23.5,20.0,22.0,9.0,18.0,3.0,1.0,10.198039027185569,10.0,10.0,32.0,28.0,33.0,157.3848785620779,154.3243337908834,146.21901381147393,136.13228860193308
101,24,101,0,3.366666666666658,4.123105625617661,50.039984012787215,9.055385138137417,14.035668847618199,11.0,13.038404810405298,12.0,39.01281840626232,25.0,23.0,20.0,22.0,9.0,18.0,3.0,1.0,10.04987562112089,11.0,10.5,32.0,29.0,32.01562118716424,157.53729717117784,154.46682491719702,147.41099009232656,137.23337786413333
102,24,102,0,3.399999999999991,5.0990195135927845,51.03920062069938,9.055385138137417,13.038404810405298,12.0,15.0,12.0,39.01281840626232,26.0,23.5,20.0,22.0,9.0,18.0,3.0,0.0,10.04987562112089,10.0,10.0,32.0,29.0,33.015148038438355,156.46085772486356,155.3898323572041,147.27525250360293,136.23509092741122
103,24,103,0,3.433333333333324,4.123105625617661,50.039984012787215,9.055385138137417,14.035668847618199,12.0,13.038404810405298,12.0,39.01281840626232,25.0,23.0,20.0,22.0,9.0,18.0,3.0,0.0,10.04987562112089,10.0,10.0,32.0,29.0,33.0,157.45793088949188,155.3898323572041,147.33974345029924,137.23337786413333
104,24,104,0,3.466666666666657,4.0,51.088159097779204,9.0,14.035668847618199,12.0,14.035668847618199,12.0,39.01281840626232,25.0,23.0,20.0,23.0,9.5,17.5,1.5,0.5,8.06225774829855,9.0,8.5,32.0,28.0,31.0,157.31814898478814,155.32224567009067,146.21901381147393,136.13228860193308
105,24,105,0,3.4999999999999907,3.1622776601683795,52.03844732503075,9.055385138137417,14.035668847618199,12.0,14.0,12.0,38.01315561749642,24.0,22.5,20.0,22.0,9.0,17.0,2.0,1.0,6.082762530298219,7.0710678118654755,6.5,32.0,29.0,32.0,157.3848785620779,154.39235732380018,146.27713423498562,136.23509092741122
106,24,106,0,3.533333333333324,4.0,53.08483775994799,10.04987562112089,15.0,12.041594578792296,14.035668847618199,10.04987562112089,39.0,24.0,22.0,19.0,22.0,10.5,18.5,2.5,0.5,3.1622776601683795,4.123105625617661,4.0,33.0,29.0,32.01562118716424,157.3848785620779,155.3898323572041,148.27339613025663,137.17871555019022
107,24,107,0,3.566666666666657,4.123105625617661,51.088159097779204,9.055385138137417,14.035668847618199,12.041594578792296,14.0,11.0,38.01315561749642,24.0,22.0,19.0,22.0,9.5,17.5,2.5,0.5,3.1622776601683795,4.123105625617661,4.0,33.0,30.0,33.015148038438355,157.25775020646836,155.2610704587599,148.27339613025663,138.1774221788784
108,24,108,0,3.5999999999999903,5.0990195135927845,51.03920062069938,9.055385138137417,14.035668847618199,13.0,14.035668847618199,12.0,40.01249804748511,26.0,23.5,22.0,24.0,11.0,17.0,2.0,2.0,3.1622776601683795,4.123105625617661,3.0,32.0,28.0,32.01562118716424,157.45793088949188,153.32644912082193,146.27713423498562,136.2974687952788
109,24,109,0,3.633333333333324,5.0,50.08991914547278,10.0,14.035668847618199,12.0,13.038404810405298,12.0,41.012193308819754,27.0,24.5,22.0,25.0,11.5,17.5,2.5,1.5,5.0990195135927845,5.0,5.0,32.0,29.0,32.0,157.3848785620779,153.32644912082193,146.27713423498562,135.2368293032634
110,24,110,0,3.6666666666666567,3.0,51.03920062069938,10.04987562112089,14.0,11.0,13.038404810405298,13.0,40.01249804748511,26.019223662515376,24.5,23.0,25.0,11.0,16.0,1.0,1.0,7.0710678118654755,7.0710678118654755,6.5,32.0,28.0,34.0147027033899,157.3848785620779,154.3243337908834,146.34206503941374,136.2974687952788
111,24,111,0,3.69999999999999,3.0,51.03920062069938,10.0,13.0,12.041594578792296,14.035668847618199,12.041594578792296,38.01315561749642,25.019992006393608,23.5,22.0,24.0,11.0,15.0,1.0,1.0,7.0710678118654755,7.0,7.5,32.0,28.0,33.015148038438355,157.53729717117784,154.46682491719702,146.34206503941374,136.2974687952788
112,24,112,0,3.733333333333323,2.0,51.03920062069938,10.0,14.0,13.0,14.0,12.041594578792296,38.01315561749642,24.020824298928627,23.0,22.0,24.0,11.0,15.0,0.0,2.0,9.055385138137417,8.06225774829855,8.0,33.0,27.0,32.0624390837628,157.62296786953354,154.5477272560163,147.48898263938224,137.44089638822936
113,24,113,0,3.766666666666656,3.0,53.08483775994799,9.0,14.035668847618199,13.0,15.0,12.0,38.01315561749642,24.0,22.5,22.0,25.0,11.5,14.5,0.5,2.5,8.06225774829855,9.0,8.5,32.0,28.0,33.015148038438355,157.3848785620779,154.26276284314372,147.27525250360293,138.1774221788784
114,24,114,0,3.7999999999999896,2.23606797749979,55.08175741568164,10.04987562112089,14.035668847618199,13.038404810405298,14.0,12.0,38.01315561749642,24.0,23.0,21.0,24.0,10.5,15.5,0.5,0.5,9.055385138137417,8.0,8.5,32.0,27.0,32.01562118716424,157.31814898478814,154.3243337908834,148.21605850919124,139.17614738165446
115,24,115,0,3.833333333333323,2.0,56.08029957123981,9.0,13.0,14.035668847618199,15.033296378372908,13.038404810405298,37.013511046643494,24.020824298928627,23.0,21.0,24.0,9.5,14.5,0.5,0.5,9.055385138137417,9.0,9.0,32.0,27.0,33.015148038438355,157.31814898478814,155.2610704587599,149.164338901763,138.13037319865606
116,24,116,0,3.866666666666656,2.0,56.0357029044876,9.055385138137417,13.0,13.0,14.035668847618199,13.0,37.013511046643494,24.020824298928627,23.0,21.0,23.0,9.0,15.0,1.0,0.0,9.055385138137417,9.0,9.0,31.0,27.0,32.0,157.25775020646836,155.2063143045411,148.16544806398016,139.0898989862312
117,24,117,0,3.899999999999989,4.0,56.00892785976178,8.0,12.041594578792296,13.0,14.0,14.0,38.01315561749642,26.0,24.0,23.0,24.0,9.5,14.5,0.5,1.5,8.06225774829855,8.0,8.5,32.0,26.0,32.0624390837628,157.31814898478814,155.2063143045411,148.12157169028418,141.088624630053
118,24,118,0,3.9333333333333225,4.123105625617661,56.00892785976178,10.0,13.038404810405298,13.0,15.0,14.035668847618199,41.012193308819754,28.0,26.0,25.0,26.0,11.5,15.5,2.5,2.5,9.0,9.0,9.0,31.0,28.0,31.0,157.20368952413298,155.11608556174951,150.08331019803634,141.0319112825179
119,24,119,0,3.966666666666656,10.04987562112089,54.00925846556311,9.055385138137417,14.0,13.0,14.0,13.0,46.0,32.0,27.0,26.0,27.0,13.5,19.5,4.5,4.5,8.06225774829855,8.0,8.5,30.0,28.0,32.0,156.11534197509224,154.0811474515945,149.03019828209315,139.01438774457844
120,24,120,0,3.999999999999989,12.0,53.009433122794285,9.0,14.0,14.0,15.0,12.041594578792296,47.01063709417264,33.015148038438355,27.0,26.0,27.0,14.5,20.5,5.5,5.5,9.055385138137417,10.0,9.5,31.0,29.0,32.0,156.05127362504928,154.01298646542764,148.00337833982033,139.00359707575916
121,24,121,0,4.033333333333323,11.0,54.00925846556311,10.0,14.0,13.0,15.0,11.045361017187261,46.010868281309364,32.01562118716424,26.5,26.0,27.0,15.5,19.5,4.5,5.5,8.0,9.0,9.0,30.0,29.0,32.0,156.02884348735012,154.01298646542764,148.0,139.0
122,24,122,0,4.066666666666656,10.04987562112089,54.0,9.0,14.0,13.0,15.0,11.045361017187261,44.0,30.0,25.0,25.0,25.0,14.0,19.0,4.0,5.0,8.06225774829855,9.0,9.0,29.0,29.0,32.01562118716424,154.02921800749363,153.00326793895613,147.00340132119393,138.03260484392808
123,24,123,0,4.099999999999989,10.0,55.0,9.0,14.0,14.0,16.0,10.0,43.0,29.0,24.0,24.0,24.0,14.0,19.0,4.0,5.0,8.0,9.055385138137417,9.0,29.0,29.0,32.01562118716424,156.0,154.00324671902212,148.03040228277433,139.05754204644924
124,24,124,0,4.133333333333322,11.045361017187261,59.00847396772772,8.0,14.0,15.0,16.0,10.04987562112089,43.0,29.0,23.5,23.0,22.0,12.5,20.5,5.5,5.5,9.055385138137417,9.0,9.0,29.0,29.0,32.01562118716424,156.00320509528,155.00322577288512,149.03019828209315,139.0323703315167
125,24,125,0,4.166666666666655,12.0,60.0,7.0,14.0,16.0,17.0,10.0,43.0,29.0,23.0,23.0,23.0,13.0,20.0,5.0,6.0,8.06225774829855,9.055385138137417,9.0,29.0,29.0,32.01562118716424,156.0,154.01298646542764,148.05404418657398,139.05754204644924
126,24,126,0,4.199999999999989,13.0,61.00819617067857,7.0,14.0,15.0,17.029386365926403,10.0,44.0,30.0,23.5,23.0,22.0,12.5,21.5,6.5,5.5,8.0,9.0,9.0,28.0,28.0,32.01562118716424,157.01273833673497,154.0,149.03019828209315,140.03213916812098
127,24,127,0,4.233333333333322,14.0,63.00793600809346,7.0,13.0,17.029386365926403,18.0,10.04987562112089,44.01136216933077,31.016124838541646,24.0,21.0,20.0,10.5,23.5,9.5,4.5,9.055385138137417,9.0,9.0,29.0,29.0,32.01562118716424,157.01273833673497,155.0,149.01342221424215,139.0323703315167
128,24,128,0,4.266666666666655,14.035668847618199,64.00781202322104,7.0,13.038404810405298,16.0,17.0,11.045361017187261,45.0111097397076,32.0,25.0,22.0,21.0,10.5,23.5,9.5,3.5,10.04987562112089,10.0,9.5,29.0,29.0,33.015148038438355,157.00318468107582,154.0,148.03040228277433,140.03213916812098
129,24,129,0,4.299999999999988,15.0,64.03124237432849,7.0,13.0,16.0312195418814,18.027756377319946,11.0,46.0,33.0,25.5,22.0,20.0,10.0,25.0,11.0,4.0,8.06225774829855,9.0,9.0,29.0,29.0,33.0,156.01281998605114,155.0,148.03040228277433,140.03213916812098
130,24,130,0,4.3333333333333215,13.0,63.00793600809346,7.0,14.0,16.0,18.0,11.0,45.0,31.0,24.5,22.0,21.0,10.5,23.5,9.5,3.5,9.0,9.055385138137417,9.0,29.0,29.0,33.015148038438355,156.01281998605114,155.0,148.03040228277433,140.05713120009278
131,24,131,0,4.366666666666655,14.0,64.00781202322104,8.0,13.0,16.0,18.0,10.0,45.0,32.0,25.0,21.0,20.0,10.5,24.5,10.5,3.5,9.0,9.0,9.0,29.0,29.0,33.015148038438355,156.00320509528,154.00324671902212,148.03040228277433,140.05713120009278
132,24,132,0,4.399999999999988,14.0,64.03124237432849,7.0,13.0,17.029386365926403,18.0,11.0,45.0,32.0,25.0,22.0,20.0,10.0,24.0,11.0,4.0,9.0,9.0,9.0,29.0,29.0,32.01562118716424,157.01273833673497,155.0,148.0135128966271,140.05713120009278
133,24,133,0,4.433333333333321,14.0,64.00781202322104,7.0,12.0,16.0,18.0,11.0,44.0,32.0,25.0,22.0,21.0,10.5,22.5,9.5,3.5,9.0,9.0,9.0,30.0,29.0,32.01562118716424,157.01273833673497,155.0,150.0133327407934,141.0319112825179
134,24,134,0,4.466666666666654,13.0,64.00781202322104,8.0,13.0,16.0,18.0,10.0,44.0,31.0,24.5,22.0,21.0,11.5,22.5,8.5,3.5,8.0,9.055385138137417,9.0,29.0,29.0,33.015148038438355,157.00318468107582,155.0,150.0133327407934,142.03168660548954
135,24,135,0,4.499999999999988,11.0,63.00793600809346,8.0,13.0,16.0,18.027756377319946,11.0,43.0,30.0,24.5,22.0,21.0,10.5,21.5,7.5,3.5,8.06225774829855,7.0,7.0,30.0,29.0,33.0,157.00318468107582,156.00320509528,150.0133327407934,142.03168660548954
136,24,136,0,4.533333333333321,10.04987562112089,63.00793600809346,7.0,12.0,17.029386365926403,18.0,11.0,40.01249804748511,28.0178514522438,23.0,22.0,21.0,10.5,18.5,5.5,4.5,3.0,3.0,3.5,30.0,29.0,34.0147027033899,158.00316452527144,156.0,151.0132444522665,143.0314650697531
137,24,137,0,4.566666666666654,6.0,64.00781202322104,9.0,12.0,15.0,17.0,10.04987562112089,37.013511046643494,25.019992006393608,22.0,22.0,23.0,12.5,14.5,1.5,3.5,3.1622776601683795,3.0,3.0,30.0,28.0,33.015148038438355,157.0286598045083,156.00320509528,152.00328943809077,143.0
138,24,138,0,4.599999999999987,4.0,63.00793600809346,8.0,12.0,16.0,16.0312195418814,11.0,35.0,23.0,21.0,22.0,23.0,11.5,12.5,0.5,3.5,3.0,3.1622776601683795,3.5,29.0,26.0,29.068883707497267,157.00318468107582,156.0,151.0132444522665,143.01398533010678
139,24,139,0,4.63333333333332,3.0,62.00806399170998,9.0,12.0,16.0,16.0312195418814,10.0,34.0,22.0,20.5,22.0,23.0,12.5,11.5,1.5,3.5,5.0990195135927845,5.0,4.5,29.0,27.0,30.0,159.0125781188394,157.0,152.00328943809077,144.01388821915754
140,24,140,0,4.666666666666654,3.0,62.00806399170998,8.0,12.0,16.0,17.029386365926403,11.0,34.0,22.0,20.5,23.0,24.0,12.5,10.5,1.5,4.5,5.0,5.0990195135927845,5.0,30.0,28.0,31.0,159.0125781188394,157.01273833673497,152.0,145.00344823486094
141,24,141,0,4.699999999999987,3.0,61.00819617067857,9.0,12.0,16.0,17.0,10.0,34.0,22.0,20.5,22.0,23.0,12.5,11.5,1.5,3.5,6.0,7.0710678118654755,6.5,29.0,27.0,30.0,158.02847844613325,156.01281998605114,150.00333329629711,143.0034964607509
142,24,142,0,4.73333333333332,3.1622776601683795,59.00847396772772,9.055385138137417,12.0,15.0,16.0312195418814,10.0,34.0,22.0,20.5,23.0,24.0,13.5,10.5,1.5,4.5,7.0,7.0,7.0,29.0,28.0,31.0,159.02829936838285,157.01273833673497,152.00328943809077,144.00347218036097
143,24,143,0,4.766666666666653,6.0,59.00847396772772,9.0,12.0,15.0,16.0312195418814,10.0,37.0,25.0,22.0,23.0,24.0,13.5,13.5,0.5,5.5,7.0,7.0,7.5,29.0,28.0,31.0,157.07959765672945,155.08062419270823,150.05332385522155,142.0563268566381
144,24,144,0,4.7999999999999865,10.04987562112089,57.0350769263968,9.055385138137417,13.038404810405298,15.033296378372908,16.0312195418814,10.04987562112089,42.0,29.017236257093817,24.0,24.0,26.0,15.0,17.0,3.0,6.0,8.0,9.0,8.5,30.0,29.0,32.0,157.07959765672945,154.0811474515945,150.08331019803634,142.0563268566381
145,24,145,0,4.83333333333332,10.0,56.0357029044876,9.0,14.0,14.0,16.0,11.0,44.0,30.0,25.0,25.0,27.0,15.0,18.0,3.0,6.0,9.055385138137417,10.0,9.5,31.0,30.0,33.0,157.25775020646836,155.2610704587599,149.21461054467824,141.28694207179942
146,24,146,0,4.866666666666653,7.0,55.036351623268054,9.0,13.0,13.0,15.033296378372908,13.038404810405298,42.01190307520001,29.017236257093817,25.5,24.0,26.0,12.0,17.0,3.0,3.0,9.0,9.0,9.0,30.0,29.0,32.01562118716424,156.32018423735306,155.32224567009067,150.33296378372907,142.28492541376264
147,24,147,0,4.899999999999986,2.0,56.08029957123981,8.0,13.0,14.035668847618199,15.033296378372908,15.0,38.0,25.0,24.0,21.0,24.0,7.5,15.5,1.5,0.5,9.055385138137417,9.0,9.0,30.0,27.0,31.016124838541646,156.20499351813308,154.26276284314372,147.33974345029924,139.29106216839614
148,24,148,0,4.933333333333319,2.23606797749979,56.08029957123981,8.06225774829855,12.041594578792296,13.0,14.035668847618199,15.0,37.013511046643494,25.0,24.0,21.0,24.0,7.5,14.5,1.5,0.5,10.04987562112089,10.04987562112089,10.0,32.0,28.0,32.0,155.32224567009067,153.39491516996253,147.33974345029924,138.36184445142382
149,24,149,0,4.966666666666653,3.0,57.14017850864661,8.0,13.038404810405298,14.035668847618199,15.033296378372908,15.033296378372908,39.05124837953327,26.019223662515376,24.5,20.0,24.0,7.0,17.0,2.0,0.0,9.055385138137417,9.055385138137417,9.0,32.0,27.0,32.0,155.3898323572041,153.46986674914396,148.48568954616468,139.60659010233005
150,24,150,0,4.999999999999986,6.082762530298219,57.21887800367987,8.06225774829855,14.035668847618199,13.038404810405298,15.033296378372908,14.0,42.01190307520001,28.0,25.0,20.0,25.0,8.5,19.5,4.5,0.5,9.219544457292887,10.0,10.0,32.0,27.0,31.016124838541646,156.46085772486356,154.5477272560163,147.57371039585607,138.61096637712328
151,24,151,0,5.033333333333319,10.0,57.21887800367987,8.0,13.038404810405298,14.142135623730951,15.132745950421556,14.035668847618199,45.044422518220834,32.01562118716424,27.0,21.0,26.0,9.5,21.5,6.5,0.5,10.198039027185569,10.0,10.0,33.0,27.0,32.01562118716424,156.62694531912445,153.73353570382747,147.6651617681029,138.70832707519762
152,24,152,0,5.066666666666652,7.0,56.22277118748239,9.0,14.035668847618199,13.038404810405298,15.132745950421556,13.038404810405298,43.04648650006177,29.017236257093817,25.5,21.0,26.0,10.5,19.5,4.5,1.5,9.055385138137417,11.0,10.5,33.0,28.0,31.016124838541646,156.54072952429985,154.72879499304582,148.66068747318505,138.81282361511128
153,24,153,0,5.099999999999985,7.0,53.23532661682466,9.055385138137417,14.035668847618199,13.038404810405298,15.132745950421556,13.038404810405298,43.104524124504614,29.068883707497267,25.5,23.0,28.0,12.5,17.5,1.5,3.5,10.198039027185569,9.055385138137417,9.5,33.0,28.0,31.016124838541646,155.82361823549087,154.93547043850222,147.8681845428556,138.92443989449805
154,24,154,0,5.133333333333319,7.0,50.35871324805669,10.04987562112089,14.035668847618199,13.038404810405298,14.142135623730951,12.041594578792296,43.104524124504614,29.068883707497267,25.5,23.0,29.0,14.0,17.0,1.0,4.0,10.198039027185569,11.0,11.0,33.0,26.0,31.064449134018133,156.81836627130127,154.82893786369524,148.9731519435633,138.92443989449805
155,24,155,0,5.166666666666652,9.0,51.24451190127583,9.055385138137417,14.035668847618199,13.152946437965905,14.142135623730951,13.038404810405298,45.09988913511872,31.064449134018133,26.5,25.0,30.0,14.5,17.5,1.5,4.5,10.04987562112089,10.04987562112089,10.0,33.0,26.0,31.016124838541646,155.92947123619703,153.9415473483361,148.0979405663698,139.04315876734103
156,24,156,0,5.199999999999985,7.0,48.373546489791295,9.0,14.035668847618199,12.041594578792296,14.142135623730951,14.142135623730951,44.10215414239989,30.066592756745816,26.5,25.0,31.0,14.0,16.0,1.0,5.0,10.04987562112089,10.0,10.0,34.0,27.0,31.016124838541646,156.81836627130127,154.93547043850222,147.97972834141845,138.0507153186828
157,24,157,0,5.233333333333318,4.0,50.35871324805669,9.0,13.152946437965905,12.041594578792296,13.152946437965905,15.033296378372908,41.10960958218893,28.0178514522438,26.0,24.0,30.0,12.0,14.0,0.0,3.0,10.198039027185569,10.0,10.0,33.0,25.0,30.066592756745816,156.92354826475216,155.04837954651444,146.98639392814562,139.04315876734103
158,24,158,0,5.266666666666652,4.0,53.33854141237835,9.055385138137417,12.041594578792296,12.041594578792296,13.038404810405298,15.033296378372908,40.11234224026316,28.071337695236398,26.0,23.0,29.0,11.0,14.0,0.0,2.0,8.06225774829855,8.06225774829855,8.5,33.0,27.0,33.015148038438355,156.92354826475216,154.05518491761322,148.9731519435633,141.0283659410404
159,24,159,0,5.299999999999985,6.082762530298219,56.32051136131489,9.0,13.038404810405298,14.035668847618199,15.132745950421556,14.035668847618199,42.1070065428546,29.068883707497267,26.0,23.0,29.0,12.0,16.0,1.0,2.0,5.0990195135927845,5.0990195135927845,5.5,33.0,27.0,34.0147027033899,155.82361823549087,155.04837954651444,148.9731519435633,140.91131963046828
160,24,160,0,5.333333333333318,10.04987562112089,58.309518948453004,9.0,13.038404810405298,15.033296378372908,17.029386365926403,11.180339887498949,43.18564576337837,30.14962686336267,25.0,22.0,28.0,14.0,18.0,3.0,4.0,3.1622776601683795,3.1622776601683795,3.0,34.0,28.0,33.06055050963308,155.82361823549087,154.82893786369524,149.85659811966906,141.90489773083945
161,24,161,0,5.366666666666651,12.041594578792296,62.20128616033595,9.055385138137417,14.035668847618199,15.033296378372908,17.11724276862369,10.04987562112089,45.044422518220834,31.016124838541646,25.0,22.0,27.0,14.5,20.5,4.5,4.5,3.0,4.47213595499958,3.5,32.0,26.0,32.0624390837628,156.62694531912445,155.72411502397438,150.8509197850646,142.68847185389575
162,24,162,0,5.399999999999984,11.0,62.20128616033595,9.055385138137417,15.033296378372908,16.0312195418814,18.110770276274835,11.0,46.04345773288535,31.016124838541646,25.5,22.0,27.0,13.5,21.5,4.5,4.5,4.123105625617661,4.123105625617661,4.0,32.0,27.0,33.015148038438355,155.54420593516173,154.63505424062166,150.56227947264878,141.59802258506295
163,24,163,0,5.433333333333318,12.0,63.198101237299845,8.06225774829855,15.033296378372908,16.1245154965971,18.027756377319946,11.045361017187261,46.09772228646444,31.064449134018133,25.0,21.0,26.0,12.5,22.5,6.5,3.5,5.0990195135927845,5.0990195135927845,5.5,30.0,26.0,32.01562118716424,157.3848785620779,155.46382215808282,150.4027925272666,142.35167719419397
164,24,164,0,5.466666666666651,12.0,62.12889826803627,9.055385138137417,15.033296378372908,16.1245154965971,18.027756377319946,10.04987562112089,46.09772228646444,31.064449134018133,25.0,22.0,26.0,14.0,22.0,5.0,4.0,6.082762530298219,7.0710678118654755,7.0,31.0,26.0,34.0,157.25775020646836,155.32224567009067,150.33296378372907,142.28492541376264
165,24,165,0,5.499999999999984,12.0,62.12889826803627,9.0,14.035668847618199,15.033296378372908,17.029386365926403,10.04987562112089,45.044422518220834,31.016124838541646,25.0,22.0,26.0,14.0,21.0,5.0,4.0,7.0710678118654755,7.0710678118654755,7.5,31.0,27.0,33.015148038438355,156.32018423735306,154.39235732380018,150.33296378372907,142.28492541376264
166,24,166,0,5.533333333333317,10.0,63.071388124885914,9.0,14.035668847618199,16.0312195418814,17.11724276862369,11.045361017187261,44.04543109109048,30.01666203960727,25.0,22.0,25.0,12.5,20.5,4.5,3.5,7.0710678118654755,7.0,7.5,31.0,27.0,31.016124838541646,157.3848785620779,154.39235732380018,149.33519344079613,143.34922392534952
167,24,167,0,5.56666666666665,12.0,65.12296062065974,9.0,13.038404810405298,17.029386365926403,18.027756377319946,11.045361017187261,45.044422518220834,32.01562118716424,26.0,20.0,24.0,11.0,23.0,8.0,2.0,8.06225774829855,8.06225774829855,8.5,32.0,28.0,33.015148038438355,155.3898323572041,155.46382215808282,149.33519344079613,143.34922392534952
168,24,168,0,5.599999999999984,10.0,64.1248781675256,8.06225774829855,13.038404810405298,16.0312195418814,17.029386365926403,12.0,43.04648650006177,30.01666203960727,25.0,20.0,24.0,10.0,21.0,7.0,2.0,8.06225774829855,9.055385138137417,9.0,31.0,27.0,33.0,156.32018423735306,154.3243337908834,150.33296378372907,143.28293687665675
169,24,169,0,5.633333333333317,9.0,63.12685640834652,9.0,13.038404810405298,16.0,18.027756377319946,10.04987562112089,41.048751503547585,28.0178514522438,23.5,19.0,23.0,11.0,20.0,6.0,2.0,8.06225774829855,8.06225774829855,8.5,31.0,27.0,34.0,156.3873396410336,155.32224567009067,150.33296378372907,143.28293687665675
170,24,170,0,5.66666666666665,10.0,63.12685640834652,9.0,13.038404810405298,16.0312195418814,18.027756377319946,10.04987562112089,42.04759208325728,29.017236257093817,24.0,19.0,23.0,11.0,21.0,6.0,2.0,8.0,8.0,8.5,31.0,27.0,32.01562118716424,156.32018423735306,155.32224567009067,150.33296378372907,142.28492541376264
171,24,171,0,5.699999999999983,9.055385138137417,65.12296062065974,9.0,13.0,16.0312195418814,17.11724276862369,10.04987562112089,41.048751503547585,28.071337695236398,23.5,19.0,23.0,11.0,20.0,6.0,2.0,8.06225774829855,8.06225774829855,8.5,31.0,28.0,32.01562118716424,156.32018423735306,154.39235732380018,150.33296378372907,142.28492541376264
172,24,172,0,5.7333333333333165,8.0,64.07027391856539,8.06225774829855,14.0,16.0312195418814,17.029386365926403,12.0,42.01190307520001,28.0178514522438,24.0,20.0,23.0,9.5,20.5,5.5,1.5,8.06225774829855,9.0,9.0,31.0,27.0,34.0147027033899,156.32018423735306,154.39235732380018,149.40548852033515,142.35167719419397
173,24,173,0,5.76666666666665,8.0,65.06919393998976,9.055385138137417,13.0,16.0312195418814,17.029386365926403,11.045361017187261,41.048751503547585,28.071337695236398,24.0,19.0,22.0,9.5,20.5,6.5,0.5,9.055385138137417,9.055385138137417,8.5,31.0,27.0,33.015148038438355,156.3873396410336,154.39235732380018,150.33296378372907,142.28492541376264
174,24,174,0,5.799999999999983,9.055385138137417,65.12296062065974,8.0,13.0,17.029386365926403,17.11724276862369,11.045361017187261,41.048751503547585,28.071337695236398,23.5,18.0,22.0,9.0,21.0,7.0,1.0,8.06225774829855,9.0,9.0,31.0,27.0,33.015148038438355,155.46382215808282,154.46682491719702,149.40548852033515,141.28694207179942
175,24,175,0,5.833333333333316,10.0,64.1248781675256,8.0,12.041594578792296,17.029386365926403,17.029386365926403,11.045361017187261,41.048751503547585,29.017236257093817,24.0,18.0,22.0,9.0,21.0,7.0,1.0,9.219544457292887,9.055385138137417,9.0,31.0,26.0,33.015148038438355,155.46382215808282,154.46682491719702,149.4824404403407,141.42842712835352
176,24,176,0,5.866666666666649,11.045361017187261,64.19501538281614,7.0,12.041594578792296,16.0312195418814,19.026297590440446,11.045361017187261,41.10960958218893,29.068883707497267,23.5,17.0,22.0,8.5,21.5,7.5,1.5,9.055385138137417,9.055385138137417,9.0,30.0,24.0,30.01666203960727,156.54072952429985,153.55129436120035,147.48898263938224,140.4314779527724
177,24,177,0,5.899999999999983,11.0,65.19202405202648,7.0710678118654755,12.041594578792296,17.029386365926403,18.027756377319946,11.045361017187261,41.10960958218893,29.068883707497267,23.5,16.0,21.0,7.5,22.5,9.5,0.5,9.219544457292887,9.055385138137417,9.0,30.0,24.0,32.01562118716424,155.63097378092831,152.73833834371774,147.57371039585607,139.51702405083043
178,24,178,0,5.933333333333316,11.0,65.12296062065974,7.0710678118654755,12.041594578792296,17.029386365926403,18.027756377319946,11.045361017187261,41.10960958218893,29.068883707497267,23.5,16.0,20.0,7.0,23.0,9.0,1.0,8.06225774829855,9.0,8.5,30.0,24.0,31.016124838541646,156.62694531912445,153.63918770938616,146.57762448614045,139.51702405083043
179,24,179,0,5.966666666666649,12.041594578792296,64.19501538281614,6.0,12.041594578792296,16.0312195418814,18.027756377319946,11.180339887498949,41.19465984809196,29.154759474226502,23.0,14.0,19.0,5.5,24.5,10.5,0.5,9.219544457292887,9.0,9.0,31.0,24.0,32.01562118716424,154.63505424062166,152.64337522473747,146.57762448614045,139.51702405083043
180,24,180,0,5.999999999999982,11.0,64.19501538281614,7.0,11.045361017187261,17.11724276862369,18.027756377319946,10.198039027185569,39.11521443121589,28.071337695236398,22.5,13.0,18.0,5.5,23.5,10.5,1.5,8.246211251235321,8.0,8.5,31.0,24.0,32.01562118716424,154.72879499304582,152.64337522473747,146.57762448614045,138.52075656738234
181,24,181,0,6.033333333333316,11.0,66.18912297349165,6.0,12.165525060596439,17.029386365926403,18.027756377319946,11.180339887498949,40.19950248448356,28.071337695236398,22.5,13.0,18.0,4.5,24.5,10.5,1.5,6.082762530298219,6.0,6.0,31.0,24.0,30.066592756745816,155.63097378092831,152.64337522473747,147.57371039585607,138.52075656738234
182,24,182,0,6.066666666666649,10.0,65.19202405202648,6.082762530298219,12.041594578792296,16.0312195418814,18.110770276274835,11.045361017187261,39.11521443121589,27.073972741361768,22.0,12.0,17.0,3.5,24.5,10.5,2.5,3.1622776601683795,3.1622776601683795,2.5,31.0,24.0,29.068883707497267,156.62694531912445,153.63918770938616,147.48898263938224,139.51702405083043
183,24,183,0,6.099999999999982,10.0,65.27633568147036,6.0,12.165525060596439,16.0312195418814,18.110770276274835,11.180339887498949,39.20459156782532,27.073972741361768,22.0,12.0,18.0,4.0,24.0,10.0,2.0,2.23606797749979,3.1622776601683795,2.5,31.0,24.0,30.066592756745816,155.63097378092831,153.63918770938616,146.57762448614045,139.60659010233005
184,24,184,0,6.133333333333315,9.0,65.19202405202648,6.082762530298219,13.038404810405298,17.029386365926403,18.027756377319946,11.045361017187261,39.11521443121589,26.076809620810597,21.5,12.0,17.0,3.5,24.5,10.5,2.5,4.123105625617661,4.123105625617661,4.0,31.0,24.0,31.064449134018133,155.72411502397438,153.73353570382747,146.57762448614045,139.51702405083043
185,24,185,0,6.166666666666648,8.0,64.19501538281614,7.0710678118654755,13.038404810405298,17.029386365926403,18.027756377319946,11.045361017187261,39.11521443121589,26.076809620810597,22.0,13.0,18.0,4.5,23.5,9.5,1.5,6.082762530298219,7.0710678118654755,6.5,31.0,24.0,32.01562118716424,154.72879499304582,151.64761785138597,146.57762448614045,138.52075656738234
186,24,186,0,6.1999999999999815,10.04987562112089,65.19202405202648,6.0,12.041594578792296,16.0312195418814,18.027756377319946,11.045361017187261,39.11521443121589,27.073972741361768,22.0,12.0,17.0,3.5,24.5,10.5,2.5,7.280109889280518,8.0,7.5,31.0,24.0,32.01562118716424,155.63097378092831,152.64337522473747,146.4923206178399,138.52075656738234
187,24,187,0,6.233333333333315,10.04987562112089,65.19202405202648,6.0,12.041594578792296,16.0312195418814,18.110770276274835,11.180339887498949,39.20459156782532,27.16615541441225,22.0,13.0,18.0,4.5,23.5,9.5,1.5,8.246211251235321,8.0,8.5,30.0,24.0,33.0,155.82361823549087,152.73833834371774,146.66969693839283,138.61096637712328
188,24,188,0,6.266666666666648,9.0,65.19202405202648,7.0710678118654755,13.038404810405298,16.1245154965971,18.027756377319946,11.180339887498949,40.19950248448356,27.16615541441225,22.5,13.0,18.0,4.5,24.5,10.5,2.5,8.06225774829855,9.055385138137417,9.0,31.0,25.0,32.01562118716424,155.63097378092831,152.64337522473747,146.66969693839283,138.52075656738234
189,24,189,0,6.299999999999981,10.04987562112089,64.19501538281614,7.0,12.041594578792296,16.1245154965971,17.11724276862369,10.198039027185569,39.20459156782532,27.16615541441225,22.0,13.0,18.0,5.5,23.5,9.5,1.5,9.219544457292887,9.0,9.5,31.0,25.0,32.01562118716424,155.82361823549087,152.73833834371774,146.66969693839283,138.70832707519762
190,24,190,0,6.333333333333314,10.0,64.19501538281614,7.0,12.165525060596439,16.0312195418814,17.11724276862369,10.198039027185569,39.20459156782532,27.073972741361768,22.0,13.0,18.0,5.5,23.5,9.5,1.5,9.055385138137417,9.0,9.0,31.0,24.0,32.0624390837628,154.72879499304582,151.74320413119,146.66969693839283,138.61096637712328
191,24,191,0,6.366666666666648,11.045361017187261,63.198101237299845,6.0,12.041594578792296,16.0312195418814,17.11724276862369,11.180339887498949,40.19950248448356,28.160255680657446,22.5,14.0,19.0,5.5,23.5,9.5,0.5,9.219544457292887,9.0,9.0,31.0,25.0,33.015148038438355,155.63097378092831,152.64337522473747,146.57762448614045,137.6154061142865
192,24,192,0,6.399999999999981,12.041594578792296,62.289646009589745,7.0710678118654755,12.041594578792296,16.1245154965971,17.029386365926403,11.045361017187261,42.190046219457976,30.14962686336267,24.0,15.0,21.0,7.0,24.0,10.0,0.0,9.055385138137417,9.055385138137417,9.5,31.0,25.0,31.016124838541646,155.82361823549087,152.73833834371774,146.66969693839283,138.61096637712328
193,24,193,0,6.433333333333314,13.038404810405298,62.12889826803627,6.082762530298219,12.041594578792296,15.033296378372908,17.029386365926403,11.045361017187261,42.190046219457976,30.14962686336267,23.5,16.0,20.0,7.0,24.0,11.0,1.0,9.219544457292887,9.0,9.0,31.0,26.0,32.0,155.63097378092831,152.64337522473747,146.57762448614045,137.6154061142865
194,24,194,0,6.466666666666647,14.035668847618199,61.204574992397426,7.0,12.041594578792296,15.033296378372908,17.029386365926403,10.198039027185569,43.18564576337837,31.144823004794873,24.0,16.0,21.0,8.5,24.5,10.5,1.5,9.219544457292887,9.055385138137417,8.5,31.0,25.0,31.016124838541646,155.72411502397438,153.73353570382747,146.57762448614045,138.61096637712328
195,24,195,0,6.4999999999999805,15.033296378372908,63.198101237299845,7.0710678118654755,12.041594578792296,16.0312195418814,17.029386365926403,10.04987562112089,44.181444068749045,32.14031735997639,24.5,16.0,21.0,8.5,25.5,11.5,1.5,9.055385138137417,9.055385138137417,9.0,32.0,26.0,31.0,155.72411502397438,153.63918770938616,146.57762448614045,138.61096637712328
196,24,196,0,6.533333333333314,16.0,62.20128616033595,7.0710678118654755,12.041594578792296,16.0312195418814,18.110770276274835,10.198039027185569,45.17742799230607,33.13608305156178,25.0,17.0,22.0,9.5,25.5,11.5,2.5,9.219544457292887,9.0,9.0,31.0,25.0,32.01562118716424,155.72411502397438,152.64337522473747,146.66969693839283,137.5245432641025
197,24,197,0,6.566666666666647,16.0,61.204574992397426,7.0710678118654755,12.165525060596439,16.0312195418814,18.110770276274835,11.180339887498949,46.2709412050371,34.132096331752024,26.0,19.0,24.0,10.5,24.5,10.5,3.5,9.055385138137417,9.0,9.0,31.0,25.0,32.01562118716424,156.62694531912445,152.64337522473747,146.57762448614045,137.5245432641025
198,24,198,0,6.59999999999998,19.026297590440446,61.29437168288782,7.0,11.045361017187261,17.029386365926403,18.110770276274835,11.180339887498949,48.16637831516918,37.12142238654117,27.5,20.0,26.0,12.0,25.0,12.0,5.0,9.055385138137417,9.055385138137417,9.0,31.0,25.0,32.01562118716424,155.63097378092831,153.63918770938616,145.58159224297555,137.5245432641025
199,24,199,0,6.633333333333313,19.0,60.29925372672534,7.0710678118654755,12.165525060596439,16.0312195418814,19.1049731745428,11.045361017187261,49.16299421312742,37.05401462729781,27.5,21.0,27.0,13.0,25.0,11.0,6.0,8.246211251235321,8.06225774829855,8.5,31.0,25.0,31.016124838541646,155.63097378092831,152.64337522473747,146.57762448614045,137.6154061142865
200,24,200,0,6.666666666666647,21.0,60.207972893961475,7.0710678118654755,12.041594578792296,16.0312195418814,19.026297590440446,11.045361017187261,51.088159097779204,39.05124837953327,28.5,23.0,28.0,14.5,25.5,11.5,7.5,6.082762530298219,6.082762530298219,6.0,31.0,26.0,33.015148038438355,154.82893786369524,153.83432646844463,147.8681845428556,138.81282361511128
201,24,201,0,6.69999999999998,22.0,59.21148537234985,7.0710678118654755,13.038404810405298,18.027756377319946,19.1049731745428,10.198039027185569,52.15361924162119,39.11521443121589,28.0,24.0,29.0,16.5,25.5,10.5,9.5,3.1622776601683795,3.1622776601683795,3.0,32.0,26.0,33.015148038438355,156.81836627130127,153.9415473483361,147.8681845428556,138.92443989449805
202,24,202,0,6.733333333333313,26.0,59.21148537234985,8.06225774829855,14.035668847618199,17.029386365926403,19.026297590440446,10.198039027185569,58.137767414994535,44.10215414239989,31.0,27.0,32.0,19.5,28.5,12.5,10.5,3.1622776601683795,3.1622776601683795,3.0,31.0,26.0,33.015148038438355,156.71949463930773,154.82893786369524,147.8681845428556,139.8070098385628
203,24,203,0,6.766666666666646,27.018512172212592,58.215118311311535,8.0,14.035668847618199,17.029386365926403,19.026297590440446,11.180339887498949,60.13318551349163,46.09772228646444,32.5,29.0,34.0,20.5,28.5,12.5,12.5,4.0,3.605551275463989,3.5,32.0,26.0,33.015148038438355,156.81836627130127,154.82893786369524,147.8681845428556,138.81282361511128
204,24,204,0,6.799999999999979,28.0,56.22277118748239,9.0,14.142135623730951,17.029386365926403,19.026297590440446,10.44030650891055,61.204574992397426,47.095647357266465,33.0,31.0,36.0,23.5,27.5,11.5,13.5,5.0,5.0990195135927845,4.5,31.0,26.0,33.015148038438355,155.72411502397438,153.9415473483361,145.8800877433243,137.71347065556077
205,24,205,0,6.833333333333313,30.0,55.14526271584895,9.055385138137417,14.035668847618199,16.0312195418814,19.026297590440446,10.198039027185569,63.12685640834652,49.09175083453431,34.0,32.0,36.0,24.0,29.0,14.0,14.0,6.082762530298219,7.0710678118654755,6.5,31.0,25.0,32.0624390837628,157.71493271088823,154.63505424062166,148.66068747318505,138.61096637712328
206,24,206,0,6.866666666666646,25.019992006393608,56.22277118748239,8.06225774829855,13.038404810405298,16.0312195418814,17.029386365926403,10.198039027185569,56.22277118748239,43.18564576337837,30.5,30.0,35.0,22.5,23.5,8.5,13.5,6.082762530298219,7.280109889280518,7.0,31.0,25.0,31.064449134018133,156.71949463930773,154.72879499304582,149.6562728387955,139.70325694127536
207,24,207,0,6.899999999999979,19.0,57.3149195236284,9.055385138137417,12.165525060596439,15.033296378372908,17.029386365926403,9.219544457292887,49.25444142409901,37.12142238654117,27.5,26.0,32.0,20.0,20.0,6.0,11.0,7.0,7.0710678118654755,7.0,30.0,25.0,30.01666203960727,157.53729717117784,155.63097378092831,150.56227947264878,140.51334456200237
208,24,208,0,6.933333333333312,8.06225774829855,58.215118311311535,9.0,12.0,14.035668847618199,15.033296378372908,9.219544457292887,38.118237105091836,26.1725046566048,22.0,23.0,28.0,16.5,12.5,0.5,7.5,6.0,6.082762530298219,6.5,30.0,24.0,28.0178514522438,156.54072952429985,154.5477272560163,149.4824404403407,140.51334456200237
209,24,209,0,6.9666666666666455,4.123105625617661,59.30430001273095,9.0,11.045361017187261,14.142135623730951,15.132745950421556,9.219544457292887,33.24154027718932,22.20360331117452,20.0,21.0,27.0,15.0,9.0,4.0,5.0,7.0,7.0710678118654755,7.0,30.0,24.0,30.01666203960727,158.45504094221806,156.46085772486356,150.47923444781344,143.34922392534952
210,24,210,0,6.999999999999979,3.0,59.21148537234985,9.0,12.041594578792296,15.033296378372908,15.033296378372908,9.219544457292887,33.13608305156178,21.095023109728988,19.5,22.0,27.0,15.5,8.5,4.5,6.5,7.0,9.055385138137417,9.0,30.0,25.0,29.017236257093817,157.45793088949188,154.39235732380018,149.40548852033515,141.35416513141735
211,24,211,0,7.033333333333312,4.0,59.21148537234985,10.0,13.038404810405298,14.035668847618199,15.033296378372908,9.219544457292887,36.124783736376884,23.08679276123039,21.0,22.0,27.0,15.5,11.5,2.5,5.5,7.0,8.06225774829855,8.0,29.0,25.0,30.0,157.31814898478814,154.3243337908834,150.26975743641833,142.22517358048822
212,24,212,0,7.066666666666645,9.0,60.207972893961475,9.0,13.038404810405298,14.035668847618199,16.1245154965971,9.055385138137417,40.049968789001575,27.018512172212592,22.5,23.0,28.0,16.5,14.5,0.5,6.5,8.06225774829855,8.0,8.0,29.0,25.0,29.0,157.20368952413298,154.1590088188167,150.11995203836165,143.0873858870865
213,24,213,0,7.099999999999978,10.0,60.13318551349163,9.0,13.038404810405298,14.035668847618199,15.033296378372908,9.055385138137417,41.048751503547585,28.0178514522438,23.0,24.0,28.0,17.0,15.0,1.0,8.0,7.0710678118654755,8.06225774829855,8.0,29.0,25.0,30.01666203960727,157.20368952413298,155.15798400340216,150.08331019803634,143.05593311708537
214,24,214,0,7.133333333333312,10.0,59.07622195096772,9.0,14.0,15.033296378372908,16.0312195418814,10.198039027185569,43.04648650006177,29.068883707497267,24.0,26.0,29.0,17.5,15.5,0.5,7.5,8.0,9.0,9.0,29.0,26.0,30.01666203960727,157.05094714773293,156.05127362504928,150.02999700059985,143.01398533010678
215,24,215,0,7.166666666666645,10.0,58.077534382926416,9.0,14.0,15.033296378372908,15.132745950421556,10.04987562112089,43.01162633521314,29.017236257093817,24.0,26.0,29.0,17.5,15.5,0.5,8.5,8.0,9.0,8.5,28.0,26.0,30.0,157.0286598045083,156.01281998605114,151.0,143.0
216,24,216,0,7.199999999999978,11.0,57.07889277132134,9.0,14.0,15.0,16.0312195418814,9.055385138137417,43.01162633521314,29.017236257093817,23.5,26.0,29.0,18.5,15.5,0.5,9.5,8.0,9.0,8.5,28.0,26.0,31.0,157.00318468107582,155.00322577288512,149.0,143.01398533010678
217,24,217,0,7.233333333333311,10.04987562112089,57.07889277132134,9.0,14.035668847618199,15.033296378372908,15.033296378372908,9.055385138137417,42.01190307520001,28.0,23.0,26.0,29.0,18.5,14.5,0.5,9.5,9.055385138137417,9.0,9.0,28.0,26.0,31.016124838541646,158.00316452527144,155.00322577288512,150.0133327407934,143.0314650697531
218,24,218,0,7.266666666666644,11.0,56.0357029044876,8.0,14.0,15.0,16.0312195418814,9.055385138137417,42.01190307520001,28.0178514522438,22.5,26.0,28.0,18.0,15.0,0.0,10.0,8.0,9.0,8.5,28.0,27.0,30.0,155.0,154.00324671902212,149.03019828209315,141.05672617780408
219,24,219,0,7.299999999999978,8.0,55.0,9.0,14.0,14.0,15.033296378372908,10.0,41.0,27.0,23.0,27.0,27.0,17.0,14.0,0.0,8.0,8.0,9.0,8.5,28.0,27.0,30.01666203960727,157.00318468107582,154.02921800749363,149.08386901338454,142.12670403551894
220,24,220,0,7.333333333333311,4.123105625617661,54.00925846556311,10.04987562112089,13.0,13.0,14.035668847618199,12.0,39.0,26.0,24.0,26.0,27.0,14.5,12.5,1.5,4.5,8.0,8.0,8.0,29.0,28.0,28.0,157.0,155.00322577288512,150.02999700059985,143.0314650697531
221,24,221,0,7.366666666666644,2.23606797749979,57.0350769263968,9.0,13.0,13.0,14.0,14.0,38.01315561749642,25.019992006393608,24.0,25.0,27.0,12.0,12.0,2.0,3.0,7.0,7.0710678118654755,7.5,29.0,26.0,27.018512172212592,157.00318468107582,155.0,151.0132444522665,143.01398533010678
222,24,222,0,7.399999999999977,3.1622776601683795,57.0087712549569,9.0,12.0,13.0,14.0,14.0,38.01315561749642,26.019223662515376,24.5,25.0,26.0,11.5,12.5,0.5,2.5,4.0,4.123105625617661,3.5,29.0,28.0,29.0,157.00318468107582,155.0,150.0133327407934,142.01408380861386
223,24,223,0,7.4333333333333105,9.0,59.00847396772772,9.0,12.0,13.0,15.0,13.038404810405298,43.01162633521314,31.016124838541646,26.5,26.0,27.0,13.5,16.5,3.5,4.5,3.0,4.123105625617661,4.0,29.0,28.0,29.017236257093817,157.00318468107582,154.0,150.00333329629711,142.00352108310554
224,24,224,0,7.466666666666644,11.0,59.00847396772772,10.0,14.0,14.0,16.0,12.041594578792296,47.01063709417264,33.015148038438355,27.5,27.0,28.0,15.5,19.5,4.5,5.5,2.0,3.1622776601683795,3.0,29.0,28.0,30.01666203960727,155.00322577288512,153.0,149.00335566691106,141.01418368376991
225,24,225,0,7.499999999999977,10.04987562112089,57.0350769263968,9.055385138137417,14.0,15.0,16.0,12.0,45.0,31.0,26.0,26.0,28.0,15.0,18.0,3.0,6.0,5.0,5.0,5.0,29.0,29.0,32.01562118716424,157.0286598045083,154.01298646542764,149.00335566691106,141.0
226,24,226,0,7.53333333333331,9.0,57.0087712549569,10.0,13.0,13.0,14.0,10.0,42.0,29.0,24.5,25.0,26.0,15.5,16.5,2.5,5.5,6.0,6.082762530298219,6.0,29.0,29.0,30.01666203960727,156.02884348735012,154.01298646542764,149.00335566691106,141.0
227,24,227,0,7.566666666666643,9.0,58.034472514187634,9.0,14.0,14.0,16.0312195418814,11.0,43.0,29.0,24.5,24.0,26.0,14.0,18.0,3.0,5.0,7.0,8.06225774829855,8.0,30.0,29.0,31.016124838541646,156.02884348735012,154.02921800749363,149.01342221424215,140.00357138301865
228,24,228,0,7.599999999999976,9.055385138137417,56.0357029044876,9.0,13.038404810405298,14.035668847618199,15.033296378372908,11.045361017187261,42.01190307520001,29.0,24.5,24.0,26.0,14.0,17.0,3.0,4.0,8.0,9.0,8.5,30.0,29.0,30.066592756745816,155.15798400340216,153.16004700965587,148.08443537387717,141.05672617780408
229,24,229,0,7.63333333333331,8.06225774829855,55.00909015790027,9.0,13.038404810405298,14.0,15.033296378372908,11.045361017187261,41.012193308819754,28.0,24.0,24.0,25.0,13.5,16.5,2.5,4.5,8.0,8.0,8.5,30.0,27.0,30.01666203960727,156.20499351813308,153.16004700965587,148.12157169028418,139.05754204644924
230,24,230,0,7.666666666666643,6.082762530298219,55.036351623268054,9.0,14.035668847618199,14.0,15.033296378372908,12.041594578792296,41.012193308819754,27.0,24.0,24.0,26.0,13.0,16.0,1.0,4.0,9.055385138137417,9.0,9.5,30.0,28.0,31.0,155.2063143045411,154.1590088188167,147.12239802287073,138.05795884337854
231,24,231,0,7.699999999999976,4.123105625617661,54.037024344425184,10.0,13.0,13.0,14.035668847618199,11.045361017187261,38.0,25.0,23.0,23.0,25.0,13.0,14.0,0.0,3.0,8.0,10.0,9.5,30.0,27.0,31.0,157.20368952413298,154.1590088188167,148.12157169028418,140.12851244482687
232,24,232,0,7.733333333333309,4.0,55.08175741568164,9.0,14.0,14.0,15.0,12.041594578792296,39.01281840626232,25.019992006393608,23.0,23.0,26.0,12.5,14.5,0.5,3.5,9.0,9.055385138137417,9.0,30.0,27.0,31.0,156.259399717265,153.20900756809309,148.16544806398016,139.17614738165446
233,24,233,0,7.766666666666643,4.123105625617661,56.00892785976178,10.0,13.0,13.038404810405298,14.035668847618199,12.041594578792296,39.0,26.0,24.0,24.0,25.0,12.5,14.5,0.5,2.5,9.0,10.0,9.5,30.0,27.0,31.0,157.20368952413298,155.15798400340216,148.12157169028418,139.0898989862312
234,24,234,0,7.799999999999976,6.0,57.0350769263968,10.0,14.0,14.035668847618199,16.0,11.045361017187261,41.012193308819754,27.018512172212592,24.0,23.0,25.0,13.0,17.0,2.0,3.0,9.055385138137417,9.0,9.5,31.0,28.0,31.0,157.25775020646836,154.26276284314372,147.16657229140046,139.12943613772032
235,24,235,0,7.833333333333309,8.06225774829855,58.137767414994535,10.04987562112089,15.033296378372908,14.0,16.0312195418814,11.045361017187261,44.04543109109048,29.017236257093817,25.0,23.0,27.0,14.0,19.0,3.0,4.0,7.0,7.0710678118654755,7.0,30.0,27.0,31.0,155.32224567009067,153.26447729333762,146.27713423498562,138.2316895650198
236,24,236,0,7.866666666666642,10.0,59.07622195096772,9.0,15.0,15.0,16.0312195418814,12.041594578792296,46.010868281309364,31.016124838541646,26.0,25.0,28.0,14.5,19.5,3.5,5.5,3.1622776601683795,3.1622776601683795,3.0,31.0,26.0,30.066592756745816,158.3161394173064,154.3243337908834,147.27525250360293,139.2300254973761
237,24,237,0,7.899999999999975,12.0,60.07495318350236,9.0,14.035668847618199,15.0,17.029386365926403,12.041594578792296,47.042533945356304,33.015148038438355,27.0,25.0,28.0,14.5,20.5,4.5,5.5,4.0,4.123105625617661,4.0,30.0,24.0,28.071337695236398,156.32018423735306,153.32644912082193,146.27713423498562,138.2316895650198
238,24,238,0,7.933333333333309,10.0,58.137767414994535,10.04987562112089,15.0,15.0,17.029386365926403,11.045361017187261,46.04345773288535,31.064449134018133,26.0,24.0,28.0,15.0,20.0,3.0,5.0,4.0,4.47213595499958,3.5,32.0,29.0,33.0,157.25775020646836,154.3243337908834,148.27339613025663,139.17614738165446
239,24,239,0,7.966666666666642,7.0,58.137767414994535,10.04987562112089,14.0,14.035668847618199,16.0312195418814,13.0,44.01136216933077,30.01666203960727,26.5,24.0,28.0,13.0,18.0,3.0,3.0,5.0990195135927845,6.0,5.5,31.0,28.0,32.0,156.54072952429985,154.5477272560163,148.48568954616468,139.51702405083043
240,24,240,0,7.999999999999975,4.0,58.137767414994535,9.0,11.045361017187261,13.038404810405298,15.033296378372908,15.033296378372908,39.05124837953327,28.0178514522438,26.0,23.0,27.0,10.0,14.0,1.0,1.0,7.0,7.0710678118654755,7.0,30.0,27.0,32.0,156.54072952429985,154.63505424062166,150.56227947264878,141.59802258506295
241,24,241,0,8.033333333333308,1.4142135623730951,58.215118311311535,10.0,12.041594578792296,12.041594578792296,14.142135623730951,14.035668847618199,37.12142238654117,25.079872407968907,24.5,22.0,27.0,10.5,12.5,0.5,0.5,8.06225774829855,8.0,7.5,31.0,27.0,32.0,157.71493271088823,154.72879499304582,150.74813431681335,142.68847185389575
242,24,242,0,8.066666666666642,2.0,58.215118311311535,9.055385138137417,11.045361017187261,12.041594578792296,13.038404810405298,14.0,36.05551275463989,25.019992006393608,24.0,22.0,27.0,10.5,11.5,0.5,0.5,8.06225774829855,8.06225774829855,8.0,30.0,26.0,32.01562118716424,158.61904047118682,154.72879499304582,149.75313018431368,142.68847185389575
243,24,243,0,8.099999999999975,4.0,58.077534382926416,9.055385138137417,11.045361017187261,13.0,14.035668847618199,15.0,39.05124837953327,28.0178514522438,26.0,24.0,27.0,10.5,13.5,1.5,1.5,8.0,8.06225774829855,8.0,31.0,26.0,32.0,156.81836627130127,154.82893786369524,150.8509197850646,142.79005567615695
244,24,244,0,8.133333333333308,12.0,56.22277118748239,10.0,13.038404810405298,13.0,14.142135623730951,13.152946437965905,48.093658625644196,35.05709628591621,29.0,26.0,31.0,15.5,19.5,4.5,5.5,8.06225774829855,8.06225774829855,8.0,32.0,27.0,32.01562118716424,156.81836627130127,153.9415473483361,149.09057649630307,140.91131963046828
245,24,245,0,8.166666666666641,12.0,56.142675390472796,10.0,13.038404810405298,14.035668847618199,15.033296378372908,13.152946437965905,48.093658625644196,35.05709628591621,29.0,27.0,31.0,16.0,19.0,5.0,6.0,9.055385138137417,9.055385138137417,9.0,32.0,27.0,33.015148038438355,156.81836627130127,153.9415473483361,148.9731519435633,140.80127840328723
246,24,246,0,8.199999999999974,11.0,56.142675390472796,9.0,14.035668847618199,14.035668847618199,16.0312195418814,12.165525060596439,46.09772228646444,32.0624390837628,26.5,27.0,31.0,17.0,17.0,2.0,8.0,8.06225774829855,9.055385138137417,9.0,32.0,27.0,33.015148038438355,156.71949463930773,153.73353570382747,148.66068747318505,140.80127840328723
247,24,247,0,8.233333333333308,12.0,55.14526271584895,8.06225774829855,12.041594578792296,15.033296378372908,16.0312195418814,11.045361017187261,43.104524124504614,31.064449134018133,25.0,25.0,29.0,16.0,16.0,2.0,7.0,8.06225774829855,9.0,8.5,31.0,26.0,32.0,155.82361823549087,152.9477034806342,147.8681845428556,139.91783303067555
248,24,248,0,8.26666666666664,11.0,54.147945482723536,8.0,12.041594578792296,15.033296378372908,15.033296378372908,10.198039027185569,41.10960958218893,29.068883707497267,23.5,24.0,28.0,16.0,15.0,2.0,8.0,8.06225774829855,9.055385138137417,9.0,31.0,25.0,31.016124838541646,156.81836627130127,153.9415473483361,147.8681845428556,139.91783303067555
249,24,249,0,8.299999999999974,11.0,53.150729063673246,8.06225774829855,12.0,14.035668847618199,16.0312195418814,9.055385138137417,40.049968789001575,28.071337695236398,22.5,23.0,27.0,16.0,15.0,2.0,8.0,9.055385138137417,10.04987562112089,10.0,31.0,26.0,32.0624390837628,155.72411502397438,152.8397853963424,145.8800877433243,138.81282361511128
250,24,250,0,8.333333333333307,11.0,54.147945482723536,8.0,12.041594578792296,14.035668847618199,15.033296378372908,9.219544457292887,40.11234224026316,28.071337695236398,22.5,23.0,27.0,16.0,15.0,2.0,7.0,9.055385138137417,9.055385138137417,9.0,32.0,26.0,30.01666203960727,154.82893786369524,152.9477034806342,146.87409574189726,138.92443989449805
251,24,251,0,8.36666666666664,11.0,52.23983154643591,8.0,13.038404810405298,13.038404810405298,15.132745950421556,10.198039027185569,42.1070065428546,29.068883707497267,23.5,23.0,28.0,15.5,16.5,2.5,6.5,8.06225774829855,10.04987562112089,10.0,33.0,27.0,30.01666203960727,154.82893786369524,153.83432646844463,146.87409574189726,139.91783303067555
252,24,252,0,8.399999999999974,10.0,52.23983154643591,8.0,13.038404810405298,14.035668847618199,14.035668847618199,11.180339887498949,42.1070065428546,29.068883707497267,24.0,23.0,28.0,14.5,16.5,1.5,6.5,9.055385138137417,9.055385138137417,9.0,33.0,26.0,29.017236257093817,156.81836627130127,153.9415473483361,147.8681845428556,138.81282361511128
253,24,253,0,8.433333333333307,9.0,52.23983154643591,9.055385138137417,14.0,13.038404810405298,15.033296378372908,10.04987562112089,42.04759208325728,28.071337695236398,23.5,22.0,27.0,14.5,17.5,2.5,5.5,9.055385138137417,10.0,9.5,32.0,25.0,28.0178514522438,155.82361823549087,152.8397853963424,146.98639392814562,138.0507153186828
254,24,254,0,8.46666666666664,9.0,52.23983154643591,8.0,14.035668847618199,13.038404810405298,15.132745950421556,11.180339887498949,42.1070065428546,28.071337695236398,23.5,23.0,28.0,14.5,16.5,1.5,5.5,9.055385138137417,9.055385138137417,9.0,33.0,26.0,29.068883707497267,155.82361823549087,152.9477034806342,146.87409574189726,137.81872151489435
255,24,255,0,8.499999999999973,8.0,53.23532661682466,9.0,13.038404810405298,14.035668847618199,15.132745950421556,11.045361017187261,41.048751503547585,28.0178514522438,24.0,23.0,28.0,14.5,15.5,0.5,5.5,9.055385138137417,9.0,9.0,33.0,26.0,29.017236257093817,155.72411502397438,152.8397853963424,145.7737973711325,137.81872151489435
256,24,256,0,8.533333333333307,8.0,53.23532661682466,9.0,13.038404810405298,14.035668847618199,16.0312195418814,10.04987562112089,40.049968789001575,27.018512172212592,23.0,22.0,27.0,14.5,15.5,0.5,5.5,6.082762530298219,6.082762530298219,6.0,33.0,25.0,29.068883707497267,154.82893786369524,152.9477034806342,145.8800877433243,137.93114224133723
257,24,257,0,8.56666666666664,10.0,54.230987451824994,8.0,12.041594578792296,14.035668847618199,15.132745950421556,10.198039027185569,40.11234224026316,28.071337695236398,23.0,22.0,27.0,14.5,15.5,1.5,5.5,3.1622776601683795,4.47213595499958,3.5,34.0,28.0,30.01666203960727,154.93547043850222,153.9415473483361,148.0979405663698,140.03570973148243
258,24,258,0,8.599999999999973,8.0,55.326304774492215,8.0,13.038404810405298,14.035668847618199,16.1245154965971,11.045361017187261,40.049968789001575,27.018512172212592,23.0,22.0,28.0,14.0,15.0,0.0,5.0,3.0,3.1622776601683795,2.5,34.0,28.0,30.01666203960727,155.82361823549087,152.9477034806342,147.8681845428556,138.92443989449805
259,24,259,0,8.633333333333306,5.0,55.326304774492215,9.0,13.038404810405298,14.035668847618199,16.1245154965971,10.198039027185569,37.12142238654117,24.08318915758459,21.5,21.0,27.0,14.0,13.0,1.0,5.0,4.123105625617661,5.385164807134504,4.5,33.0,26.0,30.066592756745816,156.16017418023074,154.434452114805,148.49242404917499,139.5886814895821
260,24,260,0,8.66666666666664,4.123105625617661,55.57877292636101,9.055385138137417,13.152946437965905,15.033296378372908,16.1245154965971,10.198039027185569,36.22154055254967,23.08679276123039,21.0,20.0,28.0,14.0,12.0,3.0,5.0,6.082762530298219,6.082762530298219,6.0,34.0,27.0,32.01562118716424,157.40711546813887,153.5838533179839,148.6371420607918,140.57738082636197
261,24,261,0,8.699999999999973,3.0,54.45181356024793,9.055385138137417,12.041594578792296,15.033296378372908,16.1245154965971,11.180339887498949,35.22782990761707,23.194827009486403,21.5,21.0,28.0,13.5,10.5,2.5,4.5,7.0710678118654755,8.06225774829855,7.5,33.0,26.0,32.0624390837628,157.54364474646383,154.719100307622,148.78844041120936,139.90353819685905
262,24,262,0,8.733333333333306,5.0,54.45181356024793,8.0,12.165525060596439,14.035668847618199,16.1245154965971,11.180339887498949,36.22154055254967,24.08318915758459,21.5,21.0,28.0,13.5,11.5,2.5,4.5,7.0710678118654755,7.0710678118654755,7.0,33.0,26.0,32.0624390837628,156.69716015295236,154.8709139896837,148.94629904767692,140.8900280360537
263,24,263,0,8.766666666666639,6.0,52.46903848937962,9.0,11.180339887498949,14.142135623730951,15.297058540778355,11.180339887498949,37.21558813185679,26.076809620810597,23.0,22.0,29.0,14.5,11.5,1.5,4.5,8.246211251235321,8.06225774829855,8.5,34.0,27.0,32.0624390837628,157.83535725559088,155.0290295396317,150.2664300500947,140.24621207005913
264,24,264,0,8.799999999999972,11.0,50.48762224545735,8.0,12.041594578792296,13.038404810405298,15.297058540778355,13.152946437965905,44.10215414239989,32.0624390837628,26.5,25.0,32.0,15.5,15.5,1.5,7.5,8.06225774829855,8.06225774829855,8.0,33.0,26.0,32.0624390837628,157.68639763784319,156.01602481796542,148.94629904767692,139.08630414242805
265,24,265,0,8.833333333333306,14.0,50.48762224545735,9.055385138137417,12.041594578792296,13.038404810405298,15.132745950421556,12.165525060596439,47.16990566028302,35.12833614050059,28.0,26.0,33.0,17.5,17.5,3.5,8.5,9.219544457292887,9.055385138137417,9.0,34.0,27.0,32.0624390837628,157.54364474646383,153.73028328862208,148.94629904767692,138.91724155050014
266,24,266,0,8.866666666666639,14.0,51.35172830587107,9.055385138137417,13.038404810405298,13.038404810405298,15.132745950421556,13.038404810405298,49.09175083453431,36.05551275463989,29.0,27.0,33.0,17.0,19.0,4.0,8.0,9.219544457292887,9.055385138137417,9.0,34.0,26.0,33.015148038438355,156.28499608087785,154.5736070614903,148.78844041120936,138.91724155050014
267,24,267,0,8.899999999999972,14.035668847618199,54.589376255824725,9.0,13.038404810405298,14.142135623730951,15.132745950421556,13.152946437965905,49.16299421312742,36.124783736376884,29.0,25.0,33.0,16.0,20.0,5.0,6.0,8.06225774829855,9.055385138137417,9.5,33.0,25.0,31.064449134018133,156.28499608087785,154.434452114805,147.648230602334,138.6001443000692
268,24,268,0,8.933333333333305,12.0,58.54912467321779,8.06225774829855,13.038404810405298,15.132745950421556,16.1245154965971,13.152946437965905,46.17358552246078,33.13608305156178,27.0,21.0,29.0,12.0,21.0,6.0,3.0,9.219544457292887,8.06225774829855,9.0,33.0,26.0,31.064449134018133,156.16017418023074,155.42522317822161,148.49242404917499,140.57738082636197
269,24,269,0,8.966666666666638,8.0,61.5223536610881,8.0,14.142135623730951,16.0312195418814,17.11724276862369,13.152946437965905,43.18564576337837,29.068883707497267,25.0,19.0,27.0,10.0,20.0,4.0,2.0,9.055385138137417,9.055385138137417,9.0,33.0,25.0,29.068883707497267,157.2768260107,154.434452114805,149.4824404403407,140.57738082636197
270,24,270,0,8.999999999999972,9.0,62.39390995922599,8.0,13.152946437965905,16.0312195418814,17.11724276862369,12.165525060596439,42.190046219457976,29.068883707497267,24.5,19.0,26.0,10.5,19.5,4.5,2.5,6.082762530298219,6.082762530298219,6.0,32.0,22.0,28.160255680657446,157.15279189374905,154.30165261590687,149.34523762075577,141.4213562373095
271,24,271,0,9.033333333333305,9.0,63.387695966961914,8.06225774829855,12.041594578792296,16.0312195418814,17.11724276862369,12.165525060596439,41.19465984809196,29.154759474226502,24.5,17.0,24.0,8.5,20.5,6.5,0.5,2.23606797749979,3.605551275463989,3.0,34.0,27.0,31.016124838541646,155.16765126791086,153.44380078712857,149.4824404403407,142.55525244620065
272,24,272,0,9.066666666666638,10.04987562112089,63.387695966961914,8.06225774829855,12.041594578792296,16.1245154965971,18.110770276274835,11.40175425099138,41.19465984809196,29.154759474226502,24.0,18.0,25.0,10.5,19.5,5.5,1.5,3.1622776601683795,3.1622776601683795,3.0,33.0,26.0,32.01562118716424,157.2768260107,154.30165261590687,150.3362896974646,142.41137595009747
273,24,273,0,9.099999999999971,10.0,63.28506932918696,8.0,12.041594578792296,16.1245154965971,18.110770276274835,11.40175425099138,41.19465984809196,29.154759474226502,24.0,18.0,24.0,10.0,20.0,6.0,1.0,4.0,4.47213595499958,4.0,33.0,27.0,32.01562118716424,155.2932709424333,153.5838533179839,149.77650015940418,141.718029904455
274,24,274,0,9.133333333333304,9.0,63.28506932918696,8.06225774829855,12.041594578792296,17.029386365926403,18.110770276274835,11.180339887498949,40.19950248448356,28.160255680657446,23.5,18.0,24.0,10.0,19.0,5.0,2.0,6.082762530298219,6.082762530298219,6.0,33.0,27.0,31.016124838541646,157.15279189374905,153.3101431738944,148.49242404917499,141.56623891309678
275,24,275,0,9.166666666666638,9.0,62.289646009589745,8.0,12.041594578792296,16.1245154965971,18.110770276274835,11.180339887498949,40.11234224026316,28.071337695236398,23.5,18.0,24.0,10.0,19.0,5.0,1.0,7.0710678118654755,7.0710678118654755,7.0,33.0,27.0,33.015148038438355,157.15279189374905,154.30165261590687,149.34523762075577,143.4015341619468
276,24,276,0,9.19999999999997,11.0,62.289646009589745,8.0,12.041594578792296,16.0312195418814,18.110770276274835,12.165525060596439,43.104524124504614,31.064449134018133,25.5,19.0,25.0,10.0,21.0,7.0,2.0,8.246211251235321,8.06225774829855,8.0,32.0,26.0,33.015148038438355,157.15279189374905,153.3101431738944,148.35430563350698,140.4314779527724
277,24,277,0,9.233333333333304,11.0,62.289646009589745,8.0,12.041594578792296,16.0312195418814,18.027756377319946,11.180339887498949,42.1070065428546,30.066592756745816,24.5,18.0,24.0,10.0,21.0,8.0,2.0,7.0710678118654755,8.06225774829855,8.0,32.0,26.0,33.015148038438355,156.16017418023074,154.30165261590687,149.21461054467824,141.2834031300209
278,24,278,0,9.266666666666636,12.041594578792296,60.40695324215582,8.0,13.038404810405298,16.0312195418814,17.11724276862369,11.180339887498949,44.181444068749045,31.144823004794873,25.0,20.0,27.0,12.5,20.5,6.5,3.5,8.246211251235321,9.055385138137417,9.0,33.0,26.0,33.015148038438355,157.0350279396288,154.17522498767434,150.4725888658795,142.41137595009747
279,24,279,0,9.29999999999997,7.0,61.29437168288782,9.0,13.038404810405298,15.033296378372908,17.11724276862369,13.152946437965905,42.1070065428546,29.068883707497267,25.5,20.0,26.0,10.0,19.0,5.0,1.0,8.06225774829855,8.06225774829855,8.0,33.0,27.0,31.016124838541646,156.16017418023074,154.30165261590687,150.20652449211386,142.27438279606065
280,24,280,0,9.333333333333304,3.0,59.30430001273095,9.055385138137417,11.045361017187261,13.038404810405298,14.142135623730951,14.035668847618199,37.12142238654117,26.076809620810597,24.5,20.0,26.0,9.0,14.0,1.0,0.0,9.055385138137417,8.06225774829855,8.0,32.0,26.0,31.016124838541646,156.16017418023074,153.44380078712857,149.6262009141447,141.56623891309678
281,24,281,0,9.366666666666635,1.0,59.30430001273095,9.055385138137417,11.045361017187261,13.038404810405298,14.142135623730951,14.035668847618199,35.12833614050059,24.08318915758459,23.5,19.0,25.0,8.0,13.0,0.0,1.0,8.06225774829855,9.055385138137417,9.0,33.0,27.0,32.01562118716424,156.28499608087785,154.434452114805,149.4824404403407,143.69411957348845
282,24,282,0,9.39999999999997,2.23606797749979,59.30430001273095,9.0,11.045361017187261,14.035668847618199,15.132745950421556,14.035668847618199,36.124783736376884,25.079872407968907,24.0,20.0,26.0,9.0,13.0,0.0,0.0,8.06225774829855,8.06225774829855,8.0,32.0,27.0,32.01562118716424,156.16017418023074,154.30165261590687,149.34523762075577,142.41137595009747
283,24,283,0,9.433333333333303,10.0,60.29925372672534,8.0,12.041594578792296,14.035668847618199,16.1245154965971,14.142135623730951,44.10215414239989,32.0624390837628,27.0,21.0,27.0,10.0,20.0,6.0,2.0,6.082762530298219,6.082762530298219,6.0,32.0,26.0,31.064449134018133,156.16017418023074,153.5838533179839,149.77650015940418,140.73023839957068
284,24,284,0,9.466666666666637,10.0,60.29925372672534,9.0,13.038404810405298,15.033296378372908,17.029386365926403,13.152946437965905,45.09988913511872,32.0624390837628,27.0,21.0,27.0,11.0,21.0,7.0,2.0,4.123105625617661,4.123105625617661,4.0,33.0,27.0,33.015148038438355,155.04837954651444,153.44380078712857,149.4824404403407,141.4213562373095
285,24,285,0,9.49999999999997,8.0,62.289646009589745,9.0,14.035668847618199,15.0,17.11724276862369,13.152946437965905,44.10215414239989,30.066592756745816,26.0,20.0,26.0,10.0,21.0,5.0,1.0,3.1622776601683795,4.123105625617661,3.5,33.0,27.0,32.0624390837628,156.16017418023074,154.434452114805,149.4824404403407,141.56623891309678
286,24,286,0,9.533333333333305,9.0,61.29437168288782,8.0,13.038404810405298,16.0312195418814,18.027756377319946,12.165525060596439,42.1070065428546,29.068883707497267,24.5,19.0,25.0,10.0,20.0,6.0,2.0,3.0,3.605551275463989,3.0,32.0,27.0,32.01562118716424,155.92947123619703,154.17522498767434,149.21461054467824,141.2834031300209
287,24,287,0,9.566666666666636,9.0,60.207972893961475,9.0,13.038404810405298,16.0,17.029386365926403,11.180339887498949,42.1070065428546,29.068883707497267,24.5,20.0,25.0,11.5,19.5,4.5,2.5,4.123105625617661,4.123105625617661,4.0,32.0,27.0,31.016124838541646,156.92354826475216,155.04837954651444,149.21461054467824,141.1523999087511
288,24,288,0,9.59999999999997,9.0,59.21148537234985,8.0,13.038404810405298,16.0312195418814,17.029386365926403,11.180339887498949,41.10960958218893,28.071337695236398,23.5,20.0,25.0,11.5,18.5,3.5,3.5,5.0990195135927845,6.082762530298219,6.5,31.0,24.0,30.066592756745816,157.8131806916013,154.93547043850222,147.8681845428556,140.03570973148243
289,24,289,0,9.633333333333304,6.0,55.226805085936306,9.0,14.035668847618199,14.0,15.033296378372908,11.180339887498949,40.11234224026316,26.076809620810597,23.0,20.0,25.0,11.5,17.5,2.5,2.5,6.324555320336759,7.0710678118654755,7.0,32.0,25.0,30.14962686336267,157.91770008456936,155.04837954651444,148.9731519435633,141.0283659410404
290,24,290,0,9.666666666666636,3.1622776601683795,57.21887800367987,10.04987562112089,13.038404810405298,14.035668847618199,14.142135623730951,12.041594578792296,38.05259518088089,25.019992006393608,23.5,20.0,25.0,10.5,15.5,0.5,0.5,7.0710678118654755,8.06225774829855,8.0,32.0,26.0,30.066592756745816,156.62694531912445,154.72879499304582,147.8681845428556,139.8070098385628
291,24,291,0,9.699999999999967,3.0,57.14017850864661,9.0,13.038404810405298,14.0,14.035668847618199,13.038404810405298,38.05259518088089,25.019992006393608,23.5,21.0,25.0,10.0,15.0,0.0,1.0,8.06225774829855,8.06225774829855,8.0,32.0,27.0,31.016124838541646,155.63097378092831,154.82893786369524,147.8681845428556,139.8070098385628
292,24,292,0,9.733333333333302,3.0,57.14017850864661,9.0,13.038404810405298,14.0,15.132745950421556,13.038404810405298,38.05259518088089,25.019992006393608,23.5,21.0,25.0,10.0,15.0,0.0,1.0,8.06225774829855,8.06225774829855,8.0,31.0,26.0,31.016124838541646,155.63097378092831,153.73353570382747,147.763324272297,139.8070098385628
293,24,293,0,9.766666666666636,5.0,58.137767414994535,10.0,14.0,14.035668847618199,15.033296378372908,12.041594578792296,41.012193308819754,27.018512172212592,24.5,21.0,25.0,11.0,18.0,3.0,1.0,8.246211251235321,8.0,8.5,31.0,26.0,30.01666203960727,155.63097378092831,153.63918770938616,147.6651617681029,139.70325694127536
294,24,294,0,9.799999999999969,7.0,59.135437767890075,9.0,14.035668847618199,15.0,17.029386365926403,12.041594578792296,42.04759208325728,28.0178514522438,24.5,21.0,25.0,11.0,19.0,4.0,2.0,8.246211251235321,9.055385138137417,9.0,31.0,26.0,31.016124838541646,155.54420593516173,152.64337522473747,147.6651617681029,138.61096637712328
295,24,295,0,9.833333333333302,10.0,60.07495318350236,9.0,14.035668847618199,16.0,17.0,11.045361017187261,44.04543109109048,30.01666203960727,25.0,21.0,24.0,11.5,21.5,6.5,2.5,8.06225774829855,8.06225774829855,8.0,31.0,25.0,31.064449134018133,155.54420593516173,152.55490814785344,147.57371039585607,138.52075656738234
296,24,296,0,9.866666666666635,10.0,61.07372593840988,9.0,15.033296378372908,16.0312195418814,17.029386365926403,11.045361017187261,45.044422518220834,30.01666203960727,25.0,21.0,24.0,11.5,22.5,6.5,2.5,7.0710678118654755,8.06225774829855,8.0,31.0,26.0,31.016124838541646,155.54420593516173,152.55490814785344,147.57371039585607,138.61096637712328
297,24,297,0,9.899999999999968,14.0,62.07253821135398,8.0,14.035668847618199,16.0,18.027756377319946,11.045361017187261,47.042533945356304,33.015148038438355,26.0,21.0,24.0,11.5,24.5,9.5,3.5,8.06225774829855,8.06225774829855,8.0,32.0,25.0,31.144823004794873,155.54420593516173,153.55129436120035,146.57762448614045,138.52075656738234
298,24,298,0,9.933333333333302,14.0,62.12889826803627,8.0,14.035668847618199,17.0,19.0,11.045361017187261,47.042533945356304,33.015148038438355,26.0,21.0,25.0,12.0,24.0,8.0,4.0,5.0990195135927845,6.082762530298219,5.5,30.0,21.0,29.154759474226502,155.63097378092831,153.63918770938616,147.57371039585607,138.52075656738234
299,24,299,0,9.966666666666637,15.0,62.12889826803627,8.06225774829855,14.035668847618199,17.029386365926403,19.026297590440446,10.04987562112089,47.095647357266465,33.06055050963308,25.5,20.0,24.0,12.0,25.0,9.0,4.0,3.1622776601683795,3.1622776601683795,3.0,32.0,25.0,30.14962686336267,155.54420593516173,152.55490814785344,147.57371039585607,138.52075656738234
300,24,300,0,9.999999999999968,16.0,63.071388124885914,8.0,14.035668847618199,16.0312195418814,18.027756377319946,10.04987562112089,48.041648597857254,34.0147027033899,26.0,21.0,24.0,12.5,25.5,10.5,4.5,4.123105625617661,4.123105625617661,4.0,32.0,25.0,29.154759474226502,154.46682491719702,152.47294842036735,145.34441853748632,138.36184445142382
301,24,301,0,10.0333333333333,17.0,61.1310068623117,7.0,12.041594578792296,16.0312195418814,18.027756377319946,10.0,46.010868281309364,34.0,25.5,20.0,24.0,12.0,24.0,10.0,5.0,3.1622776601683795,4.123105625617661,4.0,31.0,24.0,28.160255680657446,155.46382215808282,152.47294842036735,146.4137971640651,137.44089638822936
302,24,302,0,10.066666666666634,16.0,60.07495318350236,7.0,13.038404810405298,17.029386365926403,18.027756377319946,9.055385138137417,45.044422518220834,32.01562118716424,24.0,19.0,22.0,11.5,24.5,9.5,4.5,2.0,3.605551275463989,3.0,32.0,24.0,28.160255680657446,155.46382215808282,153.55129436120035,146.57762448614045,137.5245432641025
303,24,303,0,10.099999999999968,15.0,60.13318551349163,6.0,13.038404810405298,16.0,18.027756377319946,9.055385138137417,43.04648650006177,30.01666203960727,22.5,19.0,23.0,12.0,22.0,8.0,6.0,4.0,4.123105625617661,4.0,31.0,24.0,28.071337695236398,156.46085772486356,152.47294842036735,146.4923206178399,137.3644786689776
304,24,304,0,10.1333333333333,14.0,59.135437767890075,6.0,13.038404810405298,17.11724276862369,18.110770276274835,8.06225774829855,41.048751503547585,28.0178514522438,21.0,19.0,23.0,13.0,20.0,5.0,6.0,6.082762530298219,5.0990195135927845,5.5,31.0,24.0,30.14962686336267,154.39235732380018,152.47294842036735,145.49570440394453,136.36715146984628
305,24,305,0,10.166666666666634,13.0,58.215118311311535,7.0,12.041594578792296,17.029386365926403,18.110770276274835,8.06225774829855,40.049968789001575,28.0178514522438,21.5,18.0,23.0,12.5,19.5,5.5,5.5,6.082762530298219,7.0,7.0,31.0,26.0,30.01666203960727,156.3873396410336,152.47294842036735,146.4923206178399,137.44089638822936
306,24,306,0,10.199999999999967,13.0,58.137767414994535,7.0710678118654755,13.038404810405298,17.029386365926403,18.027756377319946,8.0,41.048751503547585,28.0178514522438,21.5,19.0,23.0,13.0,20.0,5.0,6.0,7.0710678118654755,7.0710678118654755,7.5,31.0,25.0,31.144823004794873,155.46382215808282,152.47294842036735,146.4923206178399,137.44089638822936
307,24,307,0,10.2333333333333,13.0,58.215118311311535,7.0,13.038404810405298,16.0312195418814,17.029386365926403,8.0,41.012193308819754,28.0,21.5,18.0,23.0,12.5,20.5,5.5,5.5,8.06225774829855,7.0710678118654755,7.5,32.0,26.0,31.064449134018133,155.46382215808282,152.55490814785344,146.57762448614045,137.5245432641025
308,24,308,0,10.266666666666634,13.0,57.21887800367987,7.0,13.038404810405298,16.0312195418814,16.0312195418814,8.06225774829855,41.048751503547585,28.0178514522438,21.5,18.0,23.0,12.5,20.5,5.5,5.5,8.06225774829855,8.06225774829855,8.5,32.0,25.0,31.144823004794873,155.54420593516173,152.55490814785344,146.57762448614045,137.5245432641025
309,24,309,0,10.299999999999969,13.0,59.135437767890075,7.0,13.038404810405298,16.1245154965971,18.110770276274835,9.055385138137417,42.04759208325728,29.017236257093817,22.5,19.0,23.0,12.0,21.0,6.0,4.0,8.06225774829855,8.06225774829855,8.5,32.0,25.0,30.066592756745816,155.54420593516173,152.64337522473747,146.66969693839283,138.61096637712328
310,24,310,0,10.3333333333333,12.0,60.13318551349163,7.0,12.041594578792296,16.0312195418814,18.027756377319946,10.04987562112089,41.048751503547585,29.017236257093817,23.0,19.0,23.0,11.0,20.0,6.0,4.0,8.06225774829855,8.06225774829855,8.5,32.0,25.0,30.14962686336267,155.63097378092831,153.63918770938616,146.66969693839283,138.70832707519762
311,24,311,0,10.366666666666632,11.0,62.12889826803627,8.0,12.041594578792296,16.0312195418814,18.110770276274835,10.04987562112089,41.048751503547585,29.017236257093817,23.5,19.0,23.0,11.0,20.0,6.0,3.0,8.06225774829855,8.06225774829855,8.5,31.0,25.0,32.0624390837628,155.72411502397438,153.73353570382747,147.6651617681029,138.70832707519762
312,24,312,0,10.399999999999968,11.0,62.12889826803627,7.0710678118654755,13.0,16.0312195418814,18.027756377319946,10.04987562112089,41.048751503547585,28.071337695236398,22.5,18.0,22.0,10.0,21.0,6.0,2.0,9.055385138137417,8.06225774829855,8.5,31.0,25.0,31.016124838541646,155.54420593516173,152.64337522473747,146.66969693839283,139.60659010233005
313,24,313,0,10.4333333333333,11.0,63.12685640834652,7.0710678118654755,12.041594578792296,17.029386365926403,19.026297590440446,11.045361017187261,41.10960958218893,29.068883707497267,23.5,19.0,23.0,10.0,20.0,7.0,3.0,8.06225774829855,8.0,8.5,31.0,26.0,33.015148038438355,155.63097378092831,152.64337522473747,147.57371039585607,139.51702405083043
314,24,314,0,10.466666666666631,11.0,62.20128616033595,8.06225774829855,12.041594578792296,17.029386365926403,19.1049731745428,10.04987562112089,41.10960958218893,29.068883707497267,23.5,18.0,23.0,10.5,20.5,7.5,2.5,7.0710678118654755,7.0710678118654755,7.0,31.0,26.0,33.015148038438355,155.54420593516173,152.64337522473747,147.6651617681029,139.70325694127536
315,24,315,0,10.499999999999966,11.0,64.19501538281614,8.06225774829855,13.038404810405298,17.029386365926403,18.027756377319946,10.04987562112089,42.1070065428546,29.068883707497267,23.5,18.0,23.0,10.5,21.5,6.5,1.5,3.0,3.1622776601683795,3.0,32.0,25.0,30.14962686336267,155.46382215808282,153.46986674914396,149.56603892595405,142.59382875847047
316,24,316,0,10.5333333333333,13.038404810405298,63.12685640834652,8.0,13.038404810405298,17.029386365926403,19.026297590440446,10.04987562112089,44.10215414239989,31.064449134018133,24.5,20.0,24.0,12.0,22.0,7.0,3.0,3.0,3.1622776601683795,3.0,32.0,26.0,31.064449134018133,154.5477272560163,152.64337522473747,149.56603892595405,141.59802258506295
317,24,317,0,10.566666666666633,15.0,64.19501538281614,8.0,12.041594578792296,17.029386365926403,19.026297590440446,10.198039027185569,45.09988913511872,33.06055050963308,25.5,20.0,25.0,12.5,22.5,8.5,4.5,3.0,4.47213595499958,3.5,30.0,24.0,32.0624390837628,155.54420593516173,153.55129436120035,148.48568954616468,142.50614021858848
318,24,318,0,10.599999999999966,17.029386365926403,64.1248781675256,8.06225774829855,13.0,17.029386365926403,19.026297590440446,11.045361017187261,49.09175083453431,36.124783736376884,27.5,24.0,28.0,15.0,23.0,8.0,7.0,4.0,5.0990195135927845,4.5,28.0,21.0,27.073972741361768,156.62694531912445,154.46682491719702,149.4824404403407,142.35167719419397
319,24,319,0,10.6333333333333,18.027756377319946,63.12685640834652,8.0,13.038404810405298,18.0,19.0,11.180339887498949,50.15974481593781,37.12142238654117,28.0,25.0,29.0,16.0,23.0,9.0,8.0,6.0,6.082762530298219,6.0,30.0,22.0,30.066592756745816,155.54420593516173,153.46986674914396,148.33745312630927,142.28492541376264
320,24,320,0,10.666666666666632,17.029386365926403,64.07027391856539,9.0,14.035668847618199,17.0,19.026297590440446,11.180339887498949,51.15662224971465,37.12142238654117,28.5,27.0,30.0,17.5,22.5,7.5,8.5,6.0,7.0710678118654755,6.5,27.0,19.0,28.160255680657446,156.46085772486356,154.39235732380018,150.26975743641833,143.22360140703069
321,24,321,0,10.699999999999966,18.0,64.1248781675256,9.055385138137417,14.035668847618199,17.029386365926403,19.026297590440446,11.045361017187261,52.08646657242167,38.05259518088089,29.0,26.0,30.0,17.0,24.0,9.0,8.0,6.0,6.082762530298219,6.0,30.0,26.0,34.0147027033899,156.20499351813308,154.1590088188167,150.16324450410627,143.17122615944868
322,24,322,0,10.7333333333333,18.0,63.071388124885914,9.055385138137417,14.035668847618199,16.0312195418814,19.026297590440446,11.045361017187261,52.08646657242167,38.05259518088089,29.0,28.0,31.0,18.5,22.5,7.5,8.5,6.0,7.0710678118654755,7.0,29.0,24.0,32.0624390837628,156.259399717265,154.26276284314372,150.16324450410627,143.1258187749506
323,24,323,0,10.766666666666632,19.026297590440446,63.071388124885914,9.0,13.0,17.0,19.026297590440446,10.04987562112089,51.03920062069938,38.05259518088089,28.5,27.0,30.0,18.5,22.5,8.5,9.5,6.0,7.0710678118654755,7.0,29.0,25.0,33.0,155.2063143045411,154.1590088188167,150.16324450410627,142.12670403551894
324,24,324,0,10.799999999999963,18.0,63.071388124885914,9.0,13.038404810405298,17.0,19.026297590440446,10.198039027185569,50.08991914547278,37.05401462729781,28.0,27.0,30.0,18.5,21.5,7.5,9.5,7.0710678118654755,7.0,7.0,28.0,25.0,33.0,154.11683879446787,154.11683879446787,149.12075643584967,143.0873858870865
325,24,325,0,10.833333333333298,19.0,64.1248781675256,8.06225774829855,13.038404810405298,16.0312195418814,18.027756377319946,11.045361017187261,51.088159097779204,38.05259518088089,28.5,27.0,31.0,18.0,22.0,8.0,9.0,7.0,7.0710678118654755,7.0,28.0,23.0,30.01666203960727,154.3243337908834,153.26447729333762,149.21461054467824,142.12670403551894
326,24,326,0,10.866666666666632,17.0,64.07027391856539,9.055385138137417,14.035668847618199,17.029386365926403,19.026297590440446,10.04987562112089,50.08991914547278,36.05551275463989,27.5,27.0,30.0,18.5,21.5,6.5,8.5,7.0710678118654755,8.06225774829855,8.0,30.0,26.0,33.015148038438355,154.26276284314372,153.20900756809309,149.164338901763,142.12670403551894
327,24,327,0,10.899999999999965,17.0,65.06919393998976,9.055385138137417,13.038404810405298,17.029386365926403,18.027756377319946,10.04987562112089,49.09175083453431,36.05551275463989,27.5,25.0,28.0,16.5,22.5,8.5,7.5,8.0,8.06225774829855,8.0,29.0,25.0,33.0,156.259399717265,154.20765220960988,150.16324450410627,142.12670403551894
328,24,328,0,10.933333333333298,16.0,65.06919393998976,8.06225774829855,12.041594578792296,16.0,18.027756377319946,11.045361017187261,47.095647357266465,35.05709628591621,27.0,25.0,28.0,15.5,20.5,7.5,7.5,7.0,7.0,7.0,29.0,24.0,30.066592756745816,157.25775020646836,154.1590088188167,149.12075643584967,142.08800090085018
329,24,329,0,10.966666666666631,15.0,64.07027391856539,8.0,12.041594578792296,17.0,19.0,11.045361017187261,46.04345773288535,34.0147027033899,26.5,24.0,27.0,14.5,20.5,7.5,6.5,7.0,7.0710678118654755,7.0,28.0,21.0,28.071337695236398,157.25775020646836,155.2063143045411,150.08331019803634,144.03124660989366
330,24,330,0,10.999999999999964,15.033296378372908,64.07027391856539,8.0,11.0,16.0312195418814,18.0,11.045361017187261,45.044422518220834,34.058772731852805,26.5,23.0,26.0,13.5,20.5,8.5,5.5,5.0,5.0,5.0,27.0,21.0,26.076809620810597,156.20499351813308,154.20765220960988,149.12075643584967,143.1258187749506
331,24,331,0,11.033333333333298,15.0,65.06919393998976,9.0,12.041594578792296,16.0312195418814,17.029386365926403,10.04987562112089,46.04345773288535,34.0147027033899,26.5,23.0,26.0,14.5,21.5,7.5,5.5,3.0,4.123105625617661,3.5,30.0,26.0,29.068883707497267,155.2063143045411,154.20765220960988,150.16324450410627,143.1258187749506
332,24,332,0,11.066666666666633,13.0,65.06919393998976,9.0,14.035668847618199,16.0,17.029386365926403,10.04987562112089,46.04345773288535,32.01562118716424,25.5,22.0,25.0,13.5,22.5,7.5,4.5,3.0,4.123105625617661,4.0,30.0,26.0,30.066592756745816,155.11608556174951,154.11683879446787,150.11995203836165,143.1258187749506
333,24,333,0,11.099999999999964,13.038404810405298,64.03124237432849,9.0,14.0,16.0,18.027756377319946,10.04987562112089,46.04345773288535,32.0624390837628,25.5,22.0,24.0,13.0,23.0,8.0,4.0,4.0,4.123105625617661,4.0,30.0,27.0,32.01562118716424,157.1146078504478,153.11760186209813,149.12075643584967,142.12670403551894
334,24,334,0,11.133333333333296,11.0,63.0317380372777,9.055385138137417,14.0,16.0,17.029386365926403,10.04987562112089,44.04543109109048,30.066592756745816,24.5,21.0,23.0,12.0,22.0,7.0,3.0,4.0,5.0,5.0,30.0,28.0,33.015148038438355,155.11608556174951,153.11760186209813,148.08443537387717,141.05672617780408
335,24,335,0,11.16666666666663,11.0,63.0317380372777,7.0,12.0,16.0,18.027756377319946,11.045361017187261,41.012193308819754,29.017236257093817,23.5,19.0,21.0,9.0,21.0,8.0,2.0,6.082762530298219,6.0,6.5,30.0,27.0,32.01562118716424,156.20499351813308,154.20765220960988,147.16657229140046,140.1748907615055
336,24,336,0,11.199999999999964,9.0,63.0317380372777,8.0,12.041594578792296,17.0,17.0,11.045361017187261,40.049968789001575,28.0178514522438,23.5,19.0,21.0,9.0,20.0,6.0,2.0,7.0,8.06225774829855,8.0,30.0,28.0,31.016124838541646,158.07909412695912,155.11608556174951,149.08386901338454,141.088624630053
337,24,337,0,11.233333333333295,9.0,62.03224967708329,7.0,13.0,16.0,17.0,11.045361017187261,40.01249804748511,27.018512172212592,22.5,19.0,21.0,9.0,20.0,6.0,2.0,8.06225774829855,8.0,8.5,30.0,28.0,32.0,158.2024020045208,155.2063143045411,149.21461054467824,140.1748907615055
338,24,338,0,11.26666666666663,10.0,63.0317380372777,8.0,12.0,16.0312195418814,18.027756377319946,11.045361017187261,41.012193308819754,29.017236257093817,24.0,20.0,22.0,10.0,20.0,7.0,2.0,8.06225774829855,9.0,9.0,30.0,28.0,32.0,157.15597347857954,154.1590088188167,148.16544806398016,139.12943613772032
339,24,339,0,11.299999999999963,10.04987562112089,61.00819617067857,8.0,13.038404810405298,15.0,17.0,11.045361017187261,42.01190307520001,29.0,24.0,21.0,22.0,10.5,20.5,6.5,3.5,9.055385138137417,9.0,9.0,31.0,28.0,31.016124838541646,157.15597347857954,155.2063143045411,148.12157169028418,140.12851244482687
340,24,340,0,11.333333333333297,11.0,59.033888572581766,8.0,12.0,16.0312195418814,17.029386365926403,11.045361017187261,42.01190307520001,30.01666203960727,24.5,22.0,24.0,12.0,19.0,5.0,4.0,9.055385138137417,10.0,10.0,31.0,29.0,30.0,156.1569723067145,153.11760186209813,147.16657229140046,138.13037319865606
341,24,341,0,11.36666666666663,6.082762530298219,58.077534382926416,8.06225774829855,13.038404810405298,15.0,16.0312195418814,12.0,39.01281840626232,26.0,23.0,22.0,25.0,11.5,15.5,1.5,3.5,9.0,9.055385138137417,9.0,30.0,28.0,31.016124838541646,156.20499351813308,154.1590088188167,147.2175261305528,139.17614738165446
342,24,342,0,11.399999999999965,2.0,56.08029957123981,10.0,14.0,15.0,16.0312195418814,11.045361017187261,37.013511046643494,23.021728866442675,22.0,21.0,24.0,11.5,14.5,0.5,2.5,9.0,10.0,10.0,31.0,29.0,32.0,156.20499351813308,154.20765220960988,147.2175261305528,139.2300254973761
343,24,343,0,11.433333333333296,2.0,56.08029957123981,10.0,13.0,14.035668847618199,15.033296378372908,11.045361017187261,36.013886210738214,23.021728866442675,22.0,22.0,25.0,12.5,12.5,1.5,2.5,9.055385138137417,10.0,10.0,31.0,28.0,31.016124838541646,156.20499351813308,154.26276284314372,148.27339613025663,140.22838514366484
344,24,344,0,11.46666666666663,3.1622776601683795,55.036351623268054,10.04987562112089,13.038404810405298,13.038404810405298,14.035668847618199,12.0,38.01315561749642,25.0,23.5,24.0,26.0,13.0,13.0,1.0,3.0,9.055385138137417,9.055385138137417,9.5,31.0,27.0,32.0,157.20368952413298,154.26276284314372,148.21605850919124,139.2300254973761
345,24,345,0,11.499999999999964,4.0,50.08991914547278,10.0,13.038404810405298,12.0,13.038404810405298,12.0,39.01281840626232,26.0,24.0,24.0,27.0,13.5,13.5,0.5,3.5,9.055385138137417,10.0,9.5,31.0,28.0,33.0,156.32018423735306,154.3243337908834,148.33745312630927,140.28898745090436
346,24,346,0,11.533333333333296,4.0,48.093658625644196,11.0,13.0,11.045361017187261,13.038404810405298,13.0,41.0,28.0,26.0,26.0,29.0,14.5,13.5,0.5,3.5,8.06225774829855,9.0,9.0,32.0,30.0,34.0147027033899,156.3873396410336,154.39235732380018,148.4082207965583,140.28898745090436
347,24,347,0,11.56666666666663,5.0,48.093658625644196,10.0,13.0,11.0,12.041594578792296,13.038404810405298,41.012193308819754,28.0178514522438,25.5,26.0,29.0,14.5,13.5,0.5,4.5,8.06225774829855,9.0,9.0,31.0,28.0,33.0,156.46085772486356,153.46986674914396,148.48568954616468,140.4314779527724
348,24,348,0,11.599999999999962,4.0,47.16990566028302,11.0,14.035668847618199,11.0,12.041594578792296,12.0,41.012193308819754,27.0,25.0,25.0,29.0,15.0,14.0,1.0,4.0,7.0710678118654755,7.0,7.0,32.0,28.0,32.01562118716424,158.45504094221806,155.46382215808282,149.4824404403407,142.50614021858848
349,24,349,0,11.633333333333296,4.0,46.17358552246078,11.0,14.035668847618199,10.0,12.041594578792296,12.041594578792296,41.048751503547585,27.018512172212592,25.0,26.0,30.0,16.0,13.0,2.0,5.0,4.123105625617661,4.123105625617661,4.0,32.0,28.0,31.016124838541646,157.62296786953354,155.63097378092831,149.75313018431368,140.69825869569246
350,24,350,0,11.666666666666629,4.0,47.095647357266465,10.04987562112089,14.0,11.045361017187261,12.041594578792296,13.0,41.012193308819754,27.018512172212592,25.0,25.0,28.0,13.5,14.5,0.5,2.5,4.123105625617661,4.123105625617661,3.5,32.0,27.0,30.0,156.71949463930773,153.73353570382747,149.75313018431368,140.80127840328723
351,24,351,0,11.699999999999962,4.0,47.16990566028302,11.0,14.035668847618199,10.0,12.041594578792296,11.045361017187261,40.049968789001575,26.019223662515376,24.0,24.0,28.0,15.0,14.0,1.0,4.0,4.0,4.123105625617661,4.0,32.0,27.0,29.017236257093817,155.82361823549087,154.93547043850222,149.96666296213968,140.91131963046828
352,24,352,0,11.733333333333295,3.1622776601683795,48.25971404805462,10.0,14.0,11.045361017187261,12.041594578792296,13.038404810405298,40.049968789001575,26.076809620810597,24.5,23.0,28.0,12.5,14.5,0.5,2.5,5.0,6.082762530298219,5.5,31.0,25.0,30.01666203960727,156.92354826475216,154.93547043850222,149.09057649630307,141.0283659410404
353,24,353,0,11.766666666666628,6.0,51.24451190127583,9.055385138137417,14.035668847618199,13.038404810405298,14.035668847618199,13.0,42.04759208325728,28.0178514522438,25.0,23.0,28.0,12.5,16.5,1.5,2.5,6.082762530298219,6.082762530298219,6.0,30.0,25.0,31.064449134018133,156.62694531912445,153.73353570382747,147.763324272297,139.8070098385628
354,24,354,0,11.799999999999962,11.0,54.147945482723536,8.0,13.038404810405298,14.035668847618199,16.0312195418814,12.041594578792296,44.04543109109048,31.016124838541646,25.5,23.0,27.0,13.0,19.0,5.0,4.0,7.0710678118654755,7.0710678118654755,7.5,31.0,24.0,31.016124838541646,155.72411502397438,153.73353570382747,146.76852523616907,138.61096637712328
355,24,355,0,11.833333333333297,10.0,58.137767414994535,8.0,13.038404810405298,15.033296378372908,16.0312195418814,12.041594578792296,43.04648650006177,30.01666203960727,25.0,21.0,25.0,11.0,20.0,6.0,3.0,8.246211251235321,8.06225774829855,8.0,30.0,24.0,30.0,154.63505424062166,152.73833834371774,146.87409574189726,138.81282361511128
356,24,356,0,11.866666666666628,11.0,60.207972893961475,7.0,12.041594578792296,16.0312195418814,18.110770276274835,11.180339887498949,41.10960958218893,29.068883707497267,23.5,18.0,23.0,9.5,20.5,6.5,2.5,8.246211251235321,8.0,8.0,30.0,24.0,30.0,154.72879499304582,152.8397853963424,146.87409574189726,137.81872151489435
357,24,357,0,11.89999999999996,10.0,60.13318551349163,7.0,13.038404810405298,16.0312195418814,18.110770276274835,10.198039027185569,40.11234224026316,27.073972741361768,22.0,18.0,22.0,10.0,20.0,6.0,3.0,8.06225774829855,9.055385138137417,8.5,30.0,24.0,30.01666203960727,154.63505424062166,152.8397853963424,145.7737973711325,137.81872151489435
358,24,358,0,11.933333333333294,10.0,59.21148537234985,8.0,12.041594578792296,17.029386365926403,19.026297590440446,9.219544457292887,39.11521443121589,27.073972741361768,22.0,17.0,22.0,10.5,19.5,5.5,2.5,9.219544457292887,8.0,8.5,29.0,24.0,32.01562118716424,153.63918770938616,151.74320413119,144.6789549312546,136.7186892857008
359,24,359,0,11.966666666666628,10.0,57.14017850864661,7.0,12.041594578792296,17.029386365926403,18.110770276274835,10.04987562112089,39.05124837953327,27.018512172212592,22.0,19.0,23.0,11.0,18.0,5.0,4.0,9.055385138137417,9.0,9.0,30.0,24.0,31.0,155.63097378092831,152.64337522473747,146.57762448614045,137.5245432641025
360,24,360,0,11.99999999999996,10.0,57.14017850864661,8.06225774829855,13.038404810405298,16.0312195418814,17.029386365926403,9.055385138137417,40.11234224026316,27.073972741361768,22.0,18.0,22.0,11.0,20.0,6.0,3.0,9.219544457292887,9.0,9.0,31.0,25.0,31.0,155.54420593516173,153.55129436120035,146.57762448614045,136.444127759314
361,24,361,0,12.033333333333294,7.0,56.142675390472796,9.0,13.038404810405298,14.035668847618199,16.0312195418814,10.04987562112089,39.05124837953327,26.019223662515376,22.5,19.0,23.0,11.0,18.0,3.0,2.0,9.055385138137417,9.0,8.5,30.0,25.0,31.0,155.72411502397438,152.8397853963424,146.87409574189726,137.71347065556077
362,24,362,0,12.066666666666627,7.0,55.14526271584895,9.0,13.038404810405298,14.035668847618199,17.029386365926403,10.04987562112089,39.05124837953327,26.019223662515376,22.5,19.0,23.0,11.0,18.0,3.0,2.0,9.055385138137417,9.0,9.5,31.0,26.0,30.01666203960727,155.54420593516173,153.55129436120035,146.57762448614045,137.6154061142865
363,24,363,0,12.09999999999996,5.0,54.147945482723536,9.055385138137417,14.0,15.033296378372908,16.1245154965971,12.041594578792296,40.049968789001575,26.076809620810597,23.5,21.0,25.0,11.0,17.0,2.0,2.0,9.055385138137417,10.0,9.5,30.0,25.0,31.0,155.54420593516173,153.63918770938616,146.57762448614045,138.61096637712328
364,24,364,0,12.133333333333294,5.0,53.23532661682466,10.0,15.033296378372908,14.0,15.033296378372908,10.04987562112089,40.049968789001575,25.019992006393608,22.5,20.0,25.0,12.5,17.5,1.5,2.5,8.246211251235321,9.0,9.0,30.0,25.0,30.01666203960727,155.63097378092831,153.63918770938616,146.57762448614045,138.52075656738234
365,24,365,0,12.166666666666629,5.0,52.15361924162119,10.04987562112089,14.0,13.038404810405298,14.035668847618199,11.0,40.01249804748511,26.019223662515376,23.5,21.0,25.0,12.0,17.0,1.0,2.0,9.055385138137417,9.0,9.0,30.0,25.0,30.0,154.63505424062166,153.63918770938616,146.66969693839283,138.61096637712328
366,24,366,0,12.19999999999996,4.0,52.15361924162119,10.0,14.035668847618199,14.035668847618199,15.033296378372908,11.045361017187261,39.05124837953327,25.019992006393608,23.0,21.0,25.0,12.0,16.0,1.0,2.0,8.06225774829855,8.0,8.5,30.0,25.0,30.01666203960727,154.63505424062166,152.73833834371774,146.66969693839283,137.6154061142865
367,24,367,0,12.233333333333292,6.082762530298219,53.150729063673246,9.055385138137417,14.035668847618199,13.0,14.035668847618199,11.0,40.01249804748511,26.0,23.0,21.0,25.0,12.0,17.0,2.0,3.0,9.055385138137417,9.055385138137417,9.0,30.0,25.0,30.0,155.54420593516173,153.63918770938616,146.66969693839283,139.60659010233005
