,video_id,frame_seq,gap,time_seconds,m1,m3,m4,m5,m6,m7,m8,m9,m10,m11,m12,m13,m14,m15,m16,m17,e1,e2,e3,b1,b2,b3,m_0_16,m_1_15,m_2_14,m_3_13,label_measures
0,19,249,1,8.299999999999974,8.88834024284386,133.32510364265897,22.220850607109824,35.55336097137579,35.553360971375675,40.24367206887861,44.44170121421965,111.10425303554912,75.55089206417333,71.10218302266867,85.18704343076092,83.68064124807734,39.99497795025116,26.663318633500808,8.686919253475821,17.976399380024986,13.332510364265849,13.332510364265849,13.331659316750349,65.45317483760505,67.96384514207773,66.810526591246,400.0000000000002,395.6309971931011,382.2244677673445,364.5303282340773,{}
1,19,250,0,8.333333333333307,8.986495300827741,134.87229618273176,26.959485902483,36.2257206845732,40.43922885372461,40.43922885372461,40.43922885372461,112.42102029610118,76.38521005703534,71.89080198852707,81.26009329882152,84.98738629964726,42.68516368068788,29.231167711954413,6.612115665848137,15.82823055145127,13.479742951241498,13.479742951241612,13.479525372848912,66.78492116547841,63.54268684284239,67.5483236300991,399.99999999999983,395.5078993177162,382.0317591303465,368.6928055414753,{}
2,19,251,0,8.36666666666664,8.986495300827741,134.87229618273176,26.959485902483,36.2257206845732,40.43922885372461,40.43922885372461,40.43922885372461,112.42102029610118,76.38521005703534,71.89080198852707,81.26009329882152,84.98738629964726,42.68516368068788,29.231167711954413,6.612115665848137,15.82823055145127,13.479742951241498,13.479742951241612,13.479525372848912,66.78492116547841,63.54268684284239,67.5483236300991,399.99999999999983,395.5078993177162,382.0317591303465,368.6928055414753,{}
3,19,252,0,8.399999999999974,10.047207186066464,139.29067716282918,26.9594859024831,35.945981203310645,40.439228853724536,40.68808799552845,40.439228853724536,112.42102029610118,76.51725027668839,71.9037474428186,85.78583269049295,84.98069771822372,44.94471191973901,26.972021571019468,8.869470742901285,18.08956478017808,8.986495300827663,13.47974295124155,13.492503809479672,66.77425850658722,68.04689120469016,62.90546710579398,399.99999999999983,395.5078993177162,386.5237779423492,373.0478103001224,{}
4,19,253,0,8.433333333333307,8.988196697826432,139.3170488163101,22.470491744566136,35.95278679130584,40.446885140219,40.446885140219,44.94098348913227,112.35245872283068,76.39967193152484,71.9043723434836,85.77609735483486,84.9708099478089,40.4332209366446,26.97712813537123,8.871149983851069,18.09298964495531,13.482295046739592,13.482295046739592,13.495058320968042,66.81287777002876,68.05977440026254,67.56111243276906,400.0,395.5827801172233,386.5185856021736,368.6256604689542,{}
5,19,254,0,8.46666666666664,8.988196697826456,139.31704881630998,22.470491744566143,35.95278679130594,35.9527867913056,40.44688514021872,44.940983489132286,112.35245872283085,76.39967193152489,71.90442602200892,85.76735561523526,84.98026620609608,40.43354464691015,26.976854748723326,8.873798338521397,18.064971438792327,13.482295046739573,14.211586811367756,13.507469860066522,66.80103985307403,68.04514891913277,67.41147523369855,400.0000000000002,395.58278011722336,386.59695779430814,368.5434666308216,{}
6,19,255,0,8.499999999999973,8.986495300827716,134.87229618273153,22.46623825206923,35.945981203310744,40.43922885372477,40.6880879955285,40.43922885372454,107.83794360993224,71.89196240662149,67.39431363861411,77.15044285106092,80.10295563903844,38.19011106188134,29.20420257673277,6.482691121428616,15.930732042956263,13.479742951241514,13.479742951241514,13.4788627277228,66.16196047493656,68.67801485077814,63.065736071547406,399.9999999999998,395.63549486231983,386.65433824938026,368.69280554147525,{}
7,19,256,0,8.533333333333307,8.886694914058898,137.7437711679107,22.65671538906564,35.546779656235024,39.99012711326453,44.65508928456918,44.4334745702937,111.1725178565044,75.66748060380985,71.14017372077967,85.23979659901363,83.64748946158102,40.01313742129048,26.68398573858872,8.654959763141619,18.003343602262248,13.330042371088291,13.330042371088176,11.107626402251752,65.41300450065921,67.92987707273016,66.79815923361244,400.0,395.5577615776534,382.3603113555346,369.03866468378266,{}
8,19,257,0,8.56666666666664,10.04720718606664,134.7974295124152,22.46623825206916,35.945981203310794,40.43922885372467,44.93247650413855,44.93247650413844,112.42102029610128,76.51725027668836,71.89196240662147,85.371705357863,85.371705357863,40.43922885372456,26.959485902483152,8.986495300827642,17.972990601655397,13.47974295124152,13.47974295124152,13.47974295124152,67.39871475620771,67.39871475620771,63.06573607154728,399.99999999999983,395.63549486231983,386.6543382493804,364.2025990064162,{}
9,19,258,0,8.599999999999973,13.479742951241407,139.2906771628291,22.911157448865072,31.452733552897147,40.43922885372468,44.93247650413856,44.93247650413844,112.42102029610132,81.0031739846259,74.16305111724762,85.78111607503013,84.98518234311575,40.45140627842261,26.97188339922764,8.870809818594125,18.088235939796164,13.47974295124152,13.47974295124152,13.479522879194974,66.78140763578381,68.03949643784199,67.54832363009882,400.0,399.9999999999998,391.0158249921884,368.69280554147537,{}
10,19,259,0,8.633333333333306,17.777777777777715,128.96549447597255,22.222222222222285,35.55555555555554,35.55555555555566,40.0,40.0,115.55555555555554,80.0,71.11111111111109,84.44444444444446,80.0,42.22222222222217,33.33333333333337,2.222222222222172,19.999999999999886,13.333333333333371,13.333333333333371,13.333333333333258,62.22222222222217,62.22222222222217,66.81465057054633,400.0,395.5805235565624,386.6922086072213,360.0274337969535,{}
11,19,260,0,8.66666666666664,18.529642184483105,130.3288521184836,22.47049174456617,35.952786791305925,35.9527867913057,40.44688514021891,40.446885140219024,116.93295010171438,81.01851016992343,71.90557358261162,80.89377028043805,80.89377028043805,40.446885140219024,35.952786791305925,0.0,17.97639339565285,13.482295046739637,14.21158681136785,13.482295046739637,67.41147523369841,67.41147523369841,67.56111243276912,400.0,399.9747530532775,386.51858560217374,368.6256604689541,{}
12,19,261,0,8.699999999999973,22.915495177113744,134.89783131208543,26.964590093479348,31.458688442392475,40.44688514021897,40.44688514021897,35.95278679130583,116.9329501017143,85.50605258713023,74.13830551472392,80.50048256946752,85.77834608100045,47.18723515756517,33.679039932503656,2.377651383908301,20.11858863307032,13.482295046739615,17.976393395652973,15.71601436726212,63.49113036150823,62.26311261377509,67.56111243276912,400.00000000000006,395.5061885297907,382.1040885164598,364.1329147455786,{}
13,19,262,0,8.733333333333306,17.773389828117494,128.9336629329786,22.216737285146863,35.82341246381786,35.54677965623499,39.99012711326436,39.99012711326436,115.61245129471632,79.98025422652871,71.09232935201362,79.61295411993876,84.81419439238391,42.22413899565368,33.28532405506974,2.339251278310712,19.90323852998472,13.33004237108812,17.773389828117494,15.538378602857392,62.78079967041799,61.526229152441374,66.79815923361237,400.00000000000006,395.6825235304728,382.5409926481976,365.03120260414687,{}
14,19,263,0,8.766666666666639,17.976393395652902,130.40631355303026,26.964590093479355,35.95278679130592,35.952786791305805,40.695791398076665,35.952786791305805,116.846557071744,80.89377028043806,71.9008781683724,84.66328404325861,81.65885449122288,47.21063018305449,33.677857756364574,2.478012408302789,20.042369789433792,13.48229504673962,13.482295046739736,13.481414656569768,64.09449711009188,66.12312902984252,58.595873530904655,400.0,400.0757312808529,386.59695779430825,368.7626094874874,{}
15,19,264,0,8.799999999999972,22.91549517711369,130.3288521184836,22.47049174456617,35.95278679130581,40.44688514021914,44.94098348913235,40.446885140219024,121.4238509432326,85.50605258713018,74.15262275706823,85.38786862935137,85.38786862935137,44.94098348913235,35.95278679130581,4.494098348913326,22.47049174456617,13.482295046739637,13.482295046739637,13.482295046739637,62.9173768847852,62.9173768847852,67.56111243276912,400.0,400.0757312808528,386.7275428200874,364.2715528296978,{}
16,19,265,0,8.833333333333306,26.66502072853177,124.51609829050082,22.66091017085657,39.99753109279777,39.99753109279754,44.44170121421962,39.99753109279766,128.9575343800185,88.99443732798144,75.55089206417335,84.43923230701728,88.88340242843924,46.66378627493066,42.219616153508696,2.222085060711038,24.442935667820848,14.053699892960536,17.77668048568796,15.554595424976924,62.21838169990747,66.66255182132943,62.37690012675782,400.00000000000006,400.00000000000006,386.7449518998564,364.53032823407744,{}
17,19,266,0,8.866666666666639,26.66502072853177,128.9575343800185,22.22085060710981,35.830044996191106,35.553360971375696,39.99753109279754,39.99753109279766,124.51609829050082,88.88340242843924,75.55089206417335,84.43923230701728,88.88340242843924,46.66378627493066,37.77544603208662,2.222085060711038,24.442935667820848,13.332510364266,13.332510364266,13.332510364266,62.21838169990747,62.21838169990747,66.81052659124599,400.00000000000006,395.5561072664698,382.3019692654409,360.08749571088623,{}
18,19,267,0,8.899999999999972,26.66502072853177,128.9575343800185,22.66091017085657,39.99753109279777,39.99753109279754,44.44170121421962,39.99753109279766,128.9575343800185,88.99443732798144,75.55089206417335,84.43923230701728,88.88340242843924,46.66378627493066,42.219616153508696,2.222085060711038,24.442935667820848,14.053699892960536,17.77668048568796,15.554595424976924,62.21838169990747,62.21838169990747,66.81052659124575,400.00000000000006,395.6309971931008,382.4311035266023,360.4164429436526,{}
19,19,268,0,8.933333333333305,31.10919084995373,128.880933521237,22.22085060710981,35.55336097137581,39.99753109279777,44.44170121421962,39.99753109279766,128.880933521237,93.3275725498612,77.77297712488439,88.88340242843924,88.88340242843924,48.88587133564158,39.99753109279777,0.0,26.66502072853177,13.332510364266,13.332510364266,13.332510364266,62.21838169990747,62.21838169990747,62.21838169990747,400.00000000000006,395.55610726647,382.4311035266023,364.66575578574,{}
20,19,269,0,8.966666666666638,26.66502072853177,124.43676339981516,22.22085060710981,39.99753109279777,39.99753109279777,44.44170121421962,39.99753109279766,128.880933521237,88.88340242843924,75.55089206417335,88.88340242843924,88.88340242843924,48.88587133564158,39.99753109279777,0.0,26.66502072853177,13.332510364266,17.77668048568796,15.554595424976924,66.66255182132943,62.21838169990747,62.37690012675782,400.00000000000006,400.00000000000006,377.8590145604341,360.08749571088623,{}
21,19,270,0,8.999999999999972,26.66666666666663,128.8888888888889,22.222222222222285,40.0,40.0,44.44444444444457,40.24615616949962,128.96549447597255,88.99993064222573,75.55555555555566,88.88888888888891,88.88888888888891,48.888888888888914,40.0,0.0,26.66666666666663,13.333333333333371,17.77777777777783,15.555555555555657,62.22222222222217,62.22222222222217,66.81465057054633,400.0,395.5805235565622,386.7688243082555,364.5528294117313,{}
22,19,271,0,9.033333333333305,31.11111111111109,124.52378423219456,22.222222222222285,40.24615616949951,40.24615616949963,40.0,40.0,133.40738684269888,93.33333333333336,77.77777777777783,88.88888888888891,93.33333333333336,51.111111111111086,42.22222222222217,2.2222222222222854,24.444444444444343,17.77777777777783,17.77777777777783,15.555555555555657,62.22222222222217,62.22222222222217,66.81465057054633,400.0,400.0246905959928,386.6922086072215,364.4715437079273,{}
23,19,272,0,9.066666666666638,30.76923076923081,127.47252747252776,21.97802197802186,35.164835164835225,39.80389071708728,39.80389071708752,39.56043956043964,127.47252747252752,92.3076923076923,76.92177687699018,87.55282643872704,88.29393325913668,48.36360888362253,39.5469932615091,0.1149993342014568,21.86265120208145,13.186813186813138,17.582417582417445,15.371577671597606,62.12519587639986,60.92409171918416,61.53846153846138,400.00000000000006,395.6288148751575,386.8381610319439,360.4663619089389,{}
24,19,273,0,9.099999999999971,26.966292134831413,130.33707865168537,26.966292134831527,40.44943820224729,40.449438202247066,40.44943820224729,40.44943820224717,134.83146067415743,94.38202247191012,80.89371242667698,89.17097239249517,90.643613736107,49.46043685096254,44.91556098016076,4.265581822875674,22.241962362137087,18.53081180052888,17.97752808988761,15.703942603860469,64.13606955109424,61.64781348775,67.4157303370786,399.9999999999999,404.5193500408917,391.0370648837072,368.5393258426968,{}
25,19,274,0,9.133333333333304,35.55336097137568,128.9575343800186,22.22085060710979,39.99753109279781,39.99753109279757,44.44170121421958,40.24367206887877,137.84093528974043,97.87269442008706,79.93834280953456,88.10684956192267,94.0405761650726,51.13022858688248,46.63498116025403,1.9393781754884003,28.65399145373885,13.332510364266009,13.332510364266009,15.55355609613548,63.395832279540855,60.92986797693311,66.66255182132959,399.9999999999999,399.97531092797686,386.6683409277488,360.00521193884555,{}
26,19,275,0,9.166666666666638,31.10919084995373,128.95753438001873,22.22085060710981,39.99753109279766,39.99753109279754,44.44170121421962,40.24367206887878,133.39915258124344,93.43332620707532,77.77297712488439,88.88340242843924,93.3275725498612,51.107956396352506,42.219616153508696,2.222085060711038,24.44293566782073,17.77668048568796,13.332510364266,15.554595424976924,62.21838169990747,62.21838169990747,71.10672194275139,400.00000000000006,395.5311408065552,382.2244677673444,360.00521193884555,{}
27,19,276,0,9.19999999999997,31.4586884423926,125.91497995162496,26.964590093479387,40.69579139807672,40.44688514021891,40.44688514021891,36.23257923514137,135.12222486553776,94.48300707857172,78.64672110598144,89.88196697826459,94.3760653271778,56.17622936141538,42.69393431467563,2.247049174456606,29.211639267936,18.529642184483105,17.97639339565285,17.97639339565285,67.41147523369841,67.41147523369841,72.04587727423487,400.0,395.5061885297906,386.51858560217374,364.04970655283,{}
28,19,277,0,9.233333333333304,31.10919084995368,128.9575343800186,22.22085060710979,39.99753109279781,35.553360971375795,39.99753109279757,39.997531092797686,133.32510364265897,93.32757254986116,77.76778048067672,88.15822381822704,94.09195042137696,51.13022858688248,42.191107989929606,1.990752431792771,28.705365710043225,17.77668048568801,18.32378282883693,17.749805553145507,63.395832279540855,60.92986797693311,66.66255182132913,399.9999999999999,395.55610726647,382.2244677673442,359.97777983517904,{}
29,19,278,0,9.266666666666636,35.95505617977527,121.3483146067416,22.471910112359584,35.95505617977527,35.95505617977538,40.69836017140405,40.449438202247165,134.83146067415728,98.87640449438202,80.89353284120011,93.70425834861884,95.09897443208786,53.95484996975336,40.420938344980186,0.2324526805782625,31.27779957557265,17.97752808988769,17.977528089887695,17.976340631377866,64.1569398395726,61.62578842883249,67.41573033707841,400.0,400.025248540344,386.5429831774297,364.0726858620878,{}
30,19,279,0,9.29999999999997,31.46067415730328,121.34831460674154,22.47191011235965,35.955056179775326,35.95505617977521,40.44943820224726,40.44943820224714,130.3370786516854,94.38202247191008,78.64660765120902,89.21793738094937,90.596806476133,49.46054513649085,40.42129217917659,0.2298115158639575,26.785808904583742,17.97752808988772,17.977528089887606,15.703786917368006,64.14294753890817,61.69162470302604,63.08165774210414,400.00000000000006,395.5311534146839,382.1282074426964,364.1558993070499,{}
31,19,280,0,9.333333333333304,22.470491744566097,116.84655707174396,22.47049174456621,35.95278679130578,35.95278679130566,40.44688514021904,40.44688514021904,121.34065542065711,85.38786862935135,74.14761024327231,86.06139117030966,84.7028021172265,44.9379456019833,35.95035648158637,0.2612671255928944,22.67798650146608,13.482295046739567,14.211586811367765,13.53363710571341,61.711295065048944,64.16720604562249,67.41147523369864,400.00000000000006,395.5061885297905,382.1040885164601,364.13291474557855,{}
32,19,281,0,9.366666666666635,22.4704917445662,116.84655707174412,22.4704917445662,40.44688514021902,35.95278679130564,40.4468851402189,40.44688514021902,125.83475376957044,85.38786862935142,74.14794243877805,85.98838677101742,84.6755869729866,44.88765463266861,40.494824539257706,0.2524614996212904,22.62055036606921,13.48229504673967,14.211586811367823,13.531936379702074,66.19540520070689,68.7200201969199,67.56111243276908,400.0,395.50618852979056,382.10408851646,364.1329147455787,{}
33,19,282,0,9.39999999999997,22.47191011235953,116.94033106748472,22.471910112359648,36.234866284487865,35.95505617977521,40.44943820224725,40.44943820224714,121.4315153807308,85.39325842696631,74.15229054059387,86.06682348157722,89.20222688709919,47.1878212531052,33.75784333278625,2.0380122135892407,24.926457073899314,13.48314606741579,13.48314606741579,15.755402112747674,61.66293364193143,59.67717815176752,63.08165774210424,400.00000000000006,400.0252485403438,386.5429831774295,359.6629037976191,{}
34,19,283,0,9.433333333333303,27.26568642395301,122.77971342155104,22.72140535329408,36.35424856527053,36.354248565270986,36.35424856527076,40.89852963592946,127.23986997844708,90.88562141317657,77.24773361596544,87.0108085200336,90.15264911416192,47.6858698439396,38.64983243272752,2.038301542471686,25.173673190143973,13.632843211976448,14.370278511270383,13.683884240542284,66.91341496751033,64.86213061266608,63.61993498922388,399.99999999999983,395.5874323378396,386.50439571774297,368.3391402646524,{}
35,19,284,0,9.466666666666637,26.959485902482964,112.421020296101,22.466238252069264,35.945981203310694,35.945981203310694,36.22572068457308,40.68808799552838,125.89114520743844,89.97721408016449,76.43133497431165,86.02992614009031,89.24647530734592,47.15052628508806,38.21566748715577,2.0167252715332324,24.889963794239748,8.986495300827729,14.20889666650786,13.529929036868792,66.16901144068675,64.17781433714754,63.06573607154734,400.00000000000006,400.00000000000006,386.6543382493805,364.20259900641616,{}
36,19,285,0,9.49999999999997,22.471910112359488,116.94033106748472,22.47191011235972,40.6983601714041,35.9550561797755,35.9550561797755,40.44943820224712,125.92292787525304,85.39325842696633,74.1524609192096,86.0553754252021,89.2140776565659,47.18792967586069,38.25111360663641,1.990239210818572,24.92293102063809,13.483146067415785,13.48314606741567,13.4822656216744,66.23002483485413,64.2012648651164,62.92134831460684,400.00000000000006,395.531153414684,382.0489085366904,364.0726858620879,{}
37,19,286,0,9.533333333333305,26.95948590248309,121.40086633547207,22.46623825206924,36.22572068457321,36.22572068457296,40.4392288537244,35.94598120331067,121.40086633547196,85.37170535786301,71.88090125378938,81.89063202049033,84.25513535120706,47.13243305895412,38.30495395761136,1.8127858868829207,20.49236219954537,13.479742951241548,13.479742951241548,13.517077373930874,65.57555903854484,64.78739126163919,62.90546710579388,400.0,395.50789931771664,386.5237779423492,368.55588244634566,{}
38,19,287,0,9.566666666666636,26.665020728531807,115.63385638354644,22.660910170856635,31.1091908499538,31.10919084995368,39.99753109279766,39.99753109279766,120.07486452102287,88.99443732798147,75.59698078904466,85.09768242874884,88.21350393424325,46.6607040208055,33.38015334164925,1.966543081336568,24.594558276976272,14.05369989296058,13.332510364265962,13.331629720230126,65.4322516153826,63.4912480545828,62.37690012675786,400.0000000000001,391.1879615120419,377.9896666906687,360.08749571088606,{}
39,19,288,0,9.59999999999997,26.660084742176288,124.41372879682262,22.216737285146817,35.546779656235024,35.546779656234904,35.54677965623513,40.23622252596451,124.49304900175429,88.977963486358,75.60228008141678,90.00271438263906,87.85796884841432,48.869558958403104,35.5414974242932,0.3063922191749952,26.96251528739492,17.773389828117566,17.773389828117566,15.587704150525155,60.35926717746338,64.1125718623565,71.09355931247003,400.00000000000006,395.5577615776537,382.2312009985344,360.1579120593542,{}
40,19,289,0,9.633333333333304,22.71407752217724,127.2799299782227,27.632867932437748,36.34252403548349,40.8853395399191,41.136944004165024,36.34252403548349,122.74011600270508,86.4329596858556,75.00299913698598,82.48405106117127,85.58939336932372,47.69651801405951,38.66279493579782,2.5279026227520944,20.64667675131068,13.628446513306251,13.62844651330614,13.62757657544546,66.95733952040962,64.8272286809331,63.59941706209623,400.00000000000006,404.5402076051269,386.3797450241032,368.2203480081158,{}
41,19,290,0,9.666666666666636,22.71407752217724,127.2799299782227,27.632867932437748,36.34252403548349,40.8853395399191,41.136944004165024,36.34252403548349,122.74011600270508,86.4329596858556,75.00299913698598,82.48405106117127,85.58939336932372,47.69651801405951,38.66279493579782,2.5279026227520944,20.64667675131068,13.628446513306251,13.62844651330614,13.62757657544546,66.95733952040962,64.8272286809331,63.59941706209623,400.00000000000006,404.5402076051269,386.3797450241032,368.2203480081158,{}
42,19,291,0,9.699999999999967,26.666666666666533,124.52378423219484,22.222222222222264,40.00000000000003,35.5555555555553,40.00000000000003,40.24615616949969,128.96549447597252,88.99993064222568,75.57998334174545,84.82838375066058,88.55343391536258,46.665887063317655,42.22151686681116,2.3249451027967325,24.54679608532888,13.33333333333338,17.777777777777878,15.55529568777274,66.07468292147155,62.86343277948709,57.7777777777778,400.00000000000006,395.65541810588553,382.4547096562828,360.2468289628347,{}
43,19,292,0,9.733333333333302,31.452733552896827,121.31768656117364,22.46623825206923,35.94598120331086,36.22572068457328,40.43922885372477,40.68808799552839,130.38162863369024,94.46512216682768,78.67804729353622,90.57795753029734,89.1915602211601,49.39682264407372,40.46226220741176,4.724020460763768,22.64448938257442,17.9729906016552,17.9729906016552,15.725339849009742,66.26465657190977,64.13371255971731,62.90546710579388,400.0000000000002,395.63549486231983,386.65433824938026,364.20259900641616,{}
44,19,293,0,9.766666666666636,31.45273355289672,121.31768656117364,22.46623825206937,36.22572068457325,35.94598120331073,40.43922885372463,40.68808799552831,130.6136934188652,94.46512216682764,78.67852143951075,90.58613064235476,89.18370774823575,49.39645082619245,40.51443916343828,4.726684569067629,27.13948008063676,17.97299060165525,17.97299060165525,15.751286764503448,66.25149634995614,64.14786200877768,62.90546710579366,400.0000000000003,395.50789931771646,386.65433824938026,364.2025990064163,{}
45,19,294,0,9.799999999999969,35.95278679130578,130.40631355303026,22.915495177113783,35.9527867913059,35.95278679130556,40.446885140218974,40.446885140218974,134.89783131208546,98.97224957182053,80.95861392146185,91.01780467676178,93.29005842605534,51.71292100218261,42.72602976902135,2.591390511834902,29.47547138830896,13.482295046739583,13.482295046739695,13.518633261247032,65.64004931948227,64.82305920737679,62.91737688478518,400.0,395.50618852979056,382.10408851646,359.780572135068,{}
46,19,295,0,9.833333333333302,35.535818914814435,128.8939066300589,22.209886821759003,35.812366423512046,35.81236642351184,44.419773643517786,40.22381580909401,133.55512444864863,97.8244039548704,80.02089791467506,89.98800556071069,92.1828349646304,51.03623902173456,42.30856445085351,2.6467060459032155,24.69828617469716,17.76790945740716,18.31474185982513,15.583288767830368,64.91530731122714,64.11484011685639,62.34612331465764,399.99999999999983,395.560516027486,382.24241171616296,360.0468584622954,{}
47,19,296,0,9.866666666666635,35.53581891481446,133.33333333333306,22.209886821758968,35.81236642351196,39.977796279166135,44.64132002356977,39.977796279166135,133.3333333333333,97.72350201573956,79.94299793086793,90.00814198330795,92.084242192558,51.07469312249896,42.27097704529956,2.6148350736757493,29.183661802179017,17.76790945740729,18.314741859825293,15.583891444117285,64.80586222798172,64.22770773932984,66.7775622243244,399.99999999999983,395.4357925446354,382.2424117161632,360.0468584622954,{}
48,19,297,0,9.899999999999968,36.63716527236559,136.63104832368796,22.72140535329407,36.35424856527049,41.15021527076356,45.44281070658836,40.898529635929485,136.40414911095058,100.07740937812513,81.82373337833849,87.47775207847951,94.26767972740733,49.97999374661879,45.5129360828505,4.926526452041571,23.024491501251305,13.632843211976532,13.632843211976532,15.94101434870447,61.92618224172497,65.52535441653254,63.61993498922367,399.99999999999983,399.99999999999983,386.5043957177431,363.7980116611282,{}
49,19,298,0,9.933333333333302,36.62534949972551,131.81995076459225,27.256893026612733,40.88533953991915,40.88533953991893,45.42815504435451,40.88533953991893,145.44106031318185,104.58346683338488,86.34273923733326,96.90594669721976,98.48787631681635,56.82189133615293,47.73855352040516,2.73010434349726,29.980117790740792,13.628446513306194,18.171262017741668,18.166675631495536,61.3380452501624,61.59319518880704,63.76145405608141,400.0000000000002,395.4598522937768,386.3797450241032,363.6806839541196,{}
50,19,299,0,9.966666666666637,36.35424856527059,136.40414911095098,27.64178262374707,31.80996749461171,40.898529635929805,45.44281070658835,36.35424856527059,131.86247744594633,100.07740937812513,81.82155833627792,91.27144484655798,95.04107170585009,56.80259650988046,38.65158498876872,2.40120067064504,29.640627633337544,14.37027851127048,18.17712428263529,18.18974056418665,62.9992434018676,64.23857278026503,63.61993498922386,399.9999999999998,395.58743233783946,381.9629759848876,359.2569627817616,{}
51,19,300,0,9.999999999999968,31.778074178358143,135.1222248655379,26.964590093479423,35.95278679130571,35.9527867913056,44.94098348913212,40.44688514021908,134.89783131208543,98.97224957182068,83.15236030307517,90.2678985119577,98.4811150289255,53.92828958310952,40.47204491222806,4.623162756406373,27.06745569113923,17.976393395652913,17.976393395652913,15.729084461740284,62.32230017435006,63.56203096936406,62.917376884785135,400.0,400.0,386.5969577943085,364.2715528296977,{}
52,19,301,0,10.0333333333333,36.22572068457328,134.87229618273176,22.4662382520692,31.45273355289683,40.43922885372458,44.93247650413862,40.43922885372458,130.3816286336901,98.95351488075354,80.90525283905038,91.02003248302732,93.17542840202624,51.664580492149184,38.26476971861348,2.635815491305948,29.513342914967325,13.479742951241562,18.526134664714764,15.801908635070504,61.10417587234326,60.351085731970215,58.41221945538008,399.99999999999966,395.5078993177161,391.1448859010701,364.20259900641616,{}
53,19,302,0,10.066666666666634,35.95278679130574,134.89783131208537,27.33653304424449,31.4586884423926,40.44688514021889,44.94098348913215,35.95278679130597,130.40631355303046,98.97224957182064,80.9396137920877,90.64215424665964,93.6039823854237,56.172602631732616,38.24843579197068,2.502234117231751,29.414017378070863,18.52964218448325,18.529642184483084,15.753861738081469,66.1815391006595,64.1388990049602,58.42327853587216,399.9999999999999,400.0757312808528,386.59695779430825,368.6256604689543,{}
54,19,303,0,10.099999999999968,35.54677965623491,133.3744589421994,26.66008474217636,35.82341246381769,35.54677965623492,44.43347457029381,35.82341246381772,133.59631846722434,97.85457711617974,80.0462032690159,90.10751187449124,92.19817340290172,55.53319684840312,42.28362941210173,2.6133269105131376,29.190861590431155,17.773389828117455,18.320390896651777,17.809822895146795,60.47238470927277,59.71451990522405,62.20686439841138,400.0,395.5577615776535,386.9795967388996,360.15791205935443,{}
55,19,304,0,10.1333333333333,35.82341246381776,128.93366293297854,22.21673728514685,35.54677965623507,39.99012711326444,44.43347457029392,39.99012711326444,133.37445894219928,97.8545771161798,79.99187867884518,89.25519027507971,92.94492448732468,51.11061405271664,42.2240710908311,6.781835418281162,28.998192822995293,18.3203908966518,17.773389828117477,20.00771368611686,61.60816772699104,62.88138587065305,66.65021185544043,400.0000000000001,395.5577615776536,386.80098879893535,364.5982521744274,{}
56,19,305,0,10.166666666666634,35.54677965623503,133.3744589421993,27.02782742071416,35.546779656235024,39.99012711326445,44.65508928456895,35.54677965623503,133.3744589421992,97.85457711617975,80.00473549116157,89.25294191861906,92.92122491498492,55.5409045224402,42.23692041590232,6.794073436931171,28.984602267059472,17.77338982811746,17.773389828117573,20.007642117502428,61.61165455163712,58.434198153376656,62.20686439841121,400.00000000000017,395.5577615776536,382.3603113555346,364.5982521744274,{}
57,19,306,0,10.199999999999967,35.55336097137563,128.9575343800187,27.032831492856484,35.55336097137587,35.55336097137575,39.99753109279764,35.55336097137564,133.39915258124358,97.8726944200871,80.06102343823011,90.04578052389911,92.21524345088994,55.582685713808814,42.25225086121441,7.018081878277826,29.15705897660644,17.77668048568799,17.776680485687876,15.591381156024909,64.92705916440207,64.16905404533304,66.6625518213294,400.00000000000017,395.5561072664698,391.3141633934138,369.1069904160959,{}
58,19,307,0,10.2333333333333,40.4468851402192,130.40631355303037,22.91549517711348,35.95278679130583,40.69579139807667,44.94098348913198,40.4468851402192,139.3895154265767,103.46191368780816,83.16554236241984,94.76639087291768,98.50270019048789,56.18834396807529,42.70627678019957,2.3645873653154013,29.328721741066943,17.976393395652973,17.976393395652973,17.989153602427336,62.36762476251829,63.5695144730654,63.07767619397378,399.99999999999983,400.00000000000006,386.5969577943083,368.6256604689541,{}
59,19,308,0,10.266666666666634,40.4468851402192,130.40631355303037,22.91549517711348,35.95278679130583,40.69579139807667,44.94098348913198,40.4468851402192,139.3895154265767,103.46191368780816,83.16554236241984,94.76639087291768,98.50270019048789,56.18834396807529,42.70627678019957,2.3645873653154013,29.328721741066943,17.976393395652973,17.976393395652973,17.989153602427336,62.36762476251829,63.5695144730654,63.07767619397378,399.99999999999983,400.00000000000006,386.5969577943083,368.6256604689541,{}
60,19,309,0,10.299999999999969,39.99753109279759,128.95753438001856,22.66091017085669,35.55336097137576,35.55336097137576,44.44170121421964,35.553360971375646,133.39915258124347,97.87269442008709,77.79777333147479,89.27399056686374,92.95997377914136,55.56423629571577,42.231956591733024,6.783777614085238,28.97810206247982,18.323782828837004,17.776680485687994,17.77637293864359,61.61604561232741,62.87084840799639,62.37690012675791,400.00000000000006,395.5561072664702,386.74495189985663,360.08749571088595,{}
61,19,310,0,10.3333333333333,35.945981203310645,130.38162863369,27.331358447287887,35.945981203310765,35.94598120331088,44.932476504138656,35.945981203310765,134.87229618273173,98.95351488075352,80.9030786651183,90.25303318179328,93.9930149884633,56.17764338768893,42.69812562614902,6.8566333122282686,29.296524152248367,17.97299060165544,17.972990601655436,17.97269034871988,62.307058015287,59.06054603033044,67.54832363009913,399.99999999999983,399.99999999999983,391.0158249921882,368.55588244634544,{}
62,19,311,0,10.366666666666632,35.945981203310645,130.38162863369,27.331358447287887,35.945981203310765,35.94598120331088,44.932476504138656,35.945981203310765,134.87229618273173,98.95351488075352,80.9030786651183,90.25303318179328,93.9930149884633,56.17764338768893,42.69812562614902,6.8566333122282686,29.296524152248367,17.97299060165544,17.972990601655436,17.97269034871988,62.307058015287,59.06054603033044,67.54832363009913,399.99999999999983,399.99999999999983,391.0158249921882,368.55588244634544,{}
63,19,312,0,10.399999999999968,35.8322566591046,133.40738684269897,26.66666666666676,35.55555555555559,39.99999999999991,44.66611387164861,40.000000000000014,137.84944372685183,102.31879496196748,84.46440778494593,94.09340135462378,97.00508641282886,55.55188597891072,42.2705155379756,6.921637287487215,29.091309485047987,17.7777777777778,17.77777777777791,15.55452807409506,60.99213964029354,63.495167146469726,62.38075043385858,400.0,391.1363628211875,382.3255674241168,360.10972264808265,{}
64,19,313,0,10.4333333333333,40.69579139807672,130.3288521184836,26.964590093479387,35.95278679130581,40.44688514021891,44.94098348913212,40.44688514021914,143.88135031666624,107.95194682134996,87.63491780380798,98.87016367609112,98.87016367609112,58.42327853587199,44.94098348913224,8.988196697826424,31.4586884423926,17.976393395652963,17.976393395652963,15.729344221196245,67.41147523369841,62.9173768847852,62.9173768847852,400.0,400.00000000000006,386.5969577943084,359.780572135068,{}
65,19,314,0,10.466666666666631,40.69836017140411,134.83146067415714,26.96629213483141,35.9550561797754,40.449438202247165,44.94382022471905,40.449438202247165,143.89043230186178,107.95876089406116,87.64044943820215,98.87640449438196,98.87640449438196,58.42696629213481,44.94382022471916,8.988764044943764,31.4606741573034,14.212483865925211,18.53081180052881,15.7303370786517,62.92134831460669,62.92134831460669,67.41573033707868,400.0,395.53115341468407,382.12820744269607,359.66290379761904,{}
66,19,315,0,10.499999999999966,40.22381580909416,133.33333333333303,26.65186418611077,35.53581891481426,39.97779627916611,44.64132002356968,35.535818914814364,137.77292446271147,102.2619985129828,82.18810491371471,93.66732333764104,97.33447523009907,59.965680945685904,42.2238967899209,6.791978505045449,33.417567245356395,13.32593209305533,18.314741859825293,17.780521675755836,61.56683177197033,62.83225742500156,66.77756222432406,400.00000000000017,395.5605160274859,382.242411716163,355.46922123619873,{}
67,19,316,0,10.5333333333333,40.43922885372454,139.58026308282732,22.91115744886517,35.945981203310744,40.43922885372454,45.15658002155254,40.43922885372454,139.3631300557197,103.44232913760808,83.17100153611057,90.68065362727044,98.07477260933548,53.94112493513455,44.95521644998598,4.77536850925037,31.68174591620937,14.208896666507655,14.20889666650773,11.258059630678872,66.21330852342317,64.13371255971731,62.90546710579388,400.0,395.5078993177164,386.5237779423492,364.20259900641616,{}
68,19,317,0,10.566666666666633,40.43922885372456,130.38162863369027,26.95948590248304,36.22572068457331,40.43922885372467,44.93247650413855,40.43922885372467,143.85411467576546,107.83794360993228,87.61832918306993,98.85144830910464,103.3446959595184,60.65884328058689,42.6858526789315,2.246623825206825,33.699357378103855,13.47974295124152,17.972990601655397,15.726366776448458,62.90546710579383,62.90546710579383,62.90546710579383,399.99999999999983,395.63549486231966,382.16385406847024,364.0639871654276,{}
69,19,318,0,10.599999999999966,49.98709177724709,136.328432119765,27.26568642395296,36.35424856527061,36.35424856527084,40.89852963592966,36.35424856527061,149.96127533174126,113.60702676647064,88.61348087784711,95.42990248383536,95.42990248383536,59.07565391856474,54.53137284790592,13.632843211976478,31.809967494611783,13.632843211976478,18.73655084682125,15.904983747305891,63.61993498922368,63.61993498922368,68.31552416184412,399.99999999999983,395.4569055806194,386.2906211462357,363.6560749339199,{}
70,19,319,0,10.6333333333333,31.45273355289683,134.872296182732,22.46623825206931,36.22572068457339,40.43922885372458,40.439228853724586,44.93247650413839,134.87229618273187,98.85144830910454,83.11258600910958,91.02003248302732,93.17542840202624,47.17200827544059,42.7573419353223,7.128387708014543,25.02077069825873,14.208896666507709,13.479742951241564,15.724002758480085,61.02626999575296,64.7657520720885,62.90546710579389,399.9999999999999,400.1261630688995,386.65433824938015,364.0639871654277,{}
71,19,320,0,10.666666666666632,31.77205883158137,134.8722961827319,22.46623825206936,35.945981203310815,40.43922885372449,44.932476504138265,44.93247650413839,134.8722961827318,98.95351488075354,83.14558427224267,90.64253139323978,93.56816929411671,47.17591115164009,42.73521076638053,7.000633548526821,24.92016569139787,17.972990601655354,17.972990601655354,17.997897443787338,61.64737005419192,64.20730321745918,67.39871475620764,399.99999999999983,399.99999999999983,386.5237779423493,364.2025990064163,{}
72,19,321,0,10.699999999999966,9.090322183061796,140.9732838262049,22.72580545765461,32.13914229406756,40.90644982377798,40.90644982377821,49.99677200683989,113.71989417787454,81.81289964755629,77.26263483802677,87.18819306603564,90.11362075429088,38.65743730908719,25.02285469061178,6.5822122985744045,16.142092065551196,18.180644366123595,18.740179265829475,18.231683271447764,62.37429749601347,64.93404672323675,59.08709418990158,400.00000000000017,395.5334876241831,381.9017344771337,363.72649860077166,{}
73,19,322,0,10.7333333333333,4.494098348913242,143.8813503166662,22.47049174456621,31.45868844239258,35.95278679130571,40.44688514021895,45.16512943566273,103.46191368780816,72.0458772742348,69.68404052248945,76.8530704111754,80.49108557856835,33.70514052143437,24.71710304905196,6.60727754666209,11.342047286577897,18.52964218448323,17.97639339565297,17.98945000052754,57.83374111693741,59.06424624708495,58.595873530904726,400.0000000000002,400.0,395.50618852979056,368.5434666308216,{}
74,19,323,0,10.766666666666632,8.988764044943759,143.82022471910108,22.47191011235963,31.46067415730339,35.95505617977527,40.44943820224715,45.16798031964443,107.95876089406126,76.53656793674787,71.95800782153833,81.7920926524024,80.10020709010325,35.952568198858216,26.96442614914372,8.776656354427132,13.693698769859113,17.977528089887638,18.530811800528745,15.75568429891132,57.20688057524205,59.69183749486899,62.92134831460701,400.0000000000001,400.10098460145736,386.5429831774296,368.56672959228587,{}
75,19,324,0,10.799999999999963,9.090909090909102,140.98238562973495,22.727272727272705,32.141217326661284,40.90909090909103,40.9090909090908,45.45454545454552,109.18556499513024,77.27272727272732,72.71595105571657,83.08866760337025,85.14717062957993,38.67044970665211,25.03620888370552,11.000960977730529,16.267520668163,18.74138920735305,18.18181818181809,18.17898776392917,57.23707765084157,56.4617972903211,63.79849476190096,400.0000000000001,400.0000000000001,386.3903734064255,368.2098754741571,{}
76,19,325,0,10.833333333333298,27.959337398003235,119.59701691308776,27.578920523763006,41.36838078564457,32.17540727772352,37.05806094706959,36.77189403168416,133.37734209227452,92.04457551758895,78.16847121439537,92.95782305755654,95.4694744997555,57.447346816253685,39.14435492363327,1.897098429746052,30.11309761019448,18.38594701584219,18.95180039333165,16.16541619713189,62.49736939684533,66.26484656014384,64.35081455544727,400.0,404.5952864701756,390.7284113085085,372.42890327796925,{}
77,19,326,0,10.866666666666632,27.959337398003235,119.59701691308776,27.578920523763006,41.36838078564457,32.17540727772352,37.05806094706959,36.77189403168416,133.37734209227452,92.04457551758895,78.16847121439537,92.95782305755654,95.4694744997555,57.447346816253685,39.14435492363327,1.897098429746052,30.11309761019448,18.38594701584219,18.95180039333165,16.16541619713189,62.49736939684533,66.26484656014384,64.35081455544727,400.0,404.5952864701756,390.7284113085085,372.42890327796925,{}
78,19,327,0,10.899999999999965,31.80996749461181,118.23866556280694,27.26568642395285,41.15021527076312,36.354248565271,40.89852963592951,36.35424856527078,136.40414911095075,95.42990248383543,79.5128250202032,91.9020326396302,94.385157407703,56.79487501443066,43.2433536737783,2.5887896518206617,29.850329658747228,18.17712428263539,18.17712428263528,15.90256500404064,66.33113077266785,65.51222792362262,63.61993498922363,399.9999999999999,399.99999999999966,390.9138387467197,363.57088630004085,{}
79,19,328,0,10.933333333333298,40.86689482678495,136.52536488774513,23.153454909080104,40.86689482678494,41.1183857840323,45.63413444784648,40.86689482678506,145.37544709667,104.53628581285255,84.07027480120405,91.98261688098025,98.70089075302894,54.48100218114541,50.01964843798805,9.47381588988128,27.555420178325,18.163064367460017,18.163064367460013,18.19969894635085,61.75038445676057,60.910600222754624,63.57072528610999,400.0,400.0,386.3922476864216,363.5166157095261,{}
80,19,329,0,10.966666666666631,40.86689482678495,136.52536488774513,23.153454909080104,40.86689482678494,41.1183857840323,45.63413444784648,40.86689482678506,145.37544709667,104.53628581285255,84.07027480120405,91.98261688098025,98.70089075302894,54.48100218114541,50.01964843798805,9.47381588988128,27.555420178325,18.163064367460017,18.163064367460013,18.19969894635085,61.75038445676057,60.910600222754624,63.57072528610999,400.0,400.0,386.3922476864216,363.5166157095261,{}
81,19,330,0,10.999999999999964,36.34252403548368,140.9005328040324,22.71407752217726,36.62534949972544,41.136944004165095,45.65473078927571,40.88533953991893,136.36015770492685,99.94194109757989,81.74831674281722,92.42499748700573,93.67326613122692,52.17497343770776,43.30429839154112,7.39665568969292,25.350477040616965,13.628446513306312,18.171262017741785,15.895506033325546,61.13860465950791,61.69634171330881,59.23106752581489,400.0000000000001,395.4598522937765,386.2461928632494,363.6806839541198,{}
82,19,331,0,11.033333333333298,31.799708531048083,145.65374537973494,22.71407752217731,32.12255648865678,40.88533953991896,45.65473078927575,40.88533953991896,127.27992997822216,95.39912559314436,79.47778213373465,87.98005650152959,93.6834455184354,49.95746305549051,36.438318719120616,0.528091575639337,27.671998563506463,13.62844651330632,18.17126201774176,15.895556426746907,61.15300445904643,61.46985940443005,63.59941706209639,400.0000000000002,395.3293676324578,386.166039396569,367.9960968618541,{}
83,19,332,0,11.066666666666633,31.79970853104821,145.65374537973483,22.71407752217726,32.12255648865684,40.885339539919045,45.654730789275945,40.88533953991893,127.2799299782223,95.3991255931444,79.47753016662773,87.98965996392246,93.6732661312268,49.95730467616613,36.43882084832524,0.531178146477032,27.67438143145409,13.628446513306312,18.171262017741785,15.895506033325546,61.13860465950791,61.48387045471793,63.599417062096194,400.0000000000001,395.329367632458,386.16603939656886,367.9960968618544,{}
84,19,333,0,11.099999999999964,27.569820671823148,142.74021531564182,23.429842265313248,41.35473100773484,41.6092240621234,46.17887810807167,36.75976089576413,128.74119002469018,87.42526876953052,73.65233620581796,85.9625000475836,88.67490902966756,50.59685985810438,41.41639868797438,0.9389108014905788,23.89006372681615,13.78491033591158,18.37988044788195,16.065807047727844,64.05458134613639,64.88916872523907,68.92455167955788,400.00000000000006,404.5922716856231,390.81564693153433,367.8559852229458,{}
85,19,334,0,11.133333333333296,22.714077522177263,140.90053280403262,18.730508162480984,40.88533953991882,41.13694400416485,45.42815504435452,40.88533953991893,122.74011600270502,81.89677118107407,70.50061949116582,83.4480868115437,84.69635545576477,43.19806276224574,38.65648960986675,1.7927262443600966,20.915139517533703,18.171262017741668,14.365643983942704,15.94862384797318,65.57394218259128,61.590106084013314,63.76145405608158,400.00000000000034,399.8709968683194,386.2461928632492,368.0802070523233,{}
86,19,335,0,11.16666666666663,18.17126201774176,140.9005328040325,27.25689302661269,40.88533953991904,40.88533953991893,45.42815504435457,36.6253494997254,122.74011600270516,81.896771181074,72.78554410504705,83.82472845658356,84.32057834471402,47.61463794179235,38.663242592910365,1.6832798833903553,21.021425520478942,14.365643983942794,13.628446513306235,15.89329378270827,65.11291952029148,62.16391755404175,63.59941706209643,400.0000000000001,399.8709968683193,386.1660393965687,367.9960968618543,{}
87,19,336,0,11.199999999999964,18.17712428263537,140.94598898897615,22.72140535329407,36.63716527236559,40.89852963592944,45.442810706588375,40.89852963592944,118.23866556280689,81.79705927185888,72.67917422098094,83.82882026624497,84.37081694900087,43.2177831083211,34.13288633069874,1.690513462881427,21.02172848117493,18.17712428263537,13.63284321197644,13.627345166433996,65.29769558916257,62.14895295600934,63.78202425826736,400.0,399.9999999999998,386.3708004713762,372.7418674389406,{}
88,19,337,0,11.233333333333295,13.483146067415674,134.90634624542614,22.91694163412494,35.95505617977536,40.44943820224748,44.94382022471937,44.94382022471903,116.94033106748486,81.02362416773005,74.24100796424989,82.42688605978628,83.82132586154955,38.19215679273941,33.80225371311417,1.7301382725581789,16.1393495574456,17.97752808988768,13.48314606741568,13.479584750378535,60.52901658024405,60.99382984749843,63.0816577421044,400.0,395.50561797752806,382.0224719101121,364.0726858620878,{}
89,19,338,0,11.26666666666663,13.483146067415674,134.90634624542614,22.91694163412494,35.95505617977536,40.44943820224748,44.94382022471937,44.94382022471903,116.94033106748486,81.02362416773005,74.24100796424989,82.42688605978628,83.82132586154955,38.19215679273941,33.80225371311417,1.7301382725581789,16.1393495574456,17.97752808988768,13.48314606741568,13.479584750378535,60.52901658024405,60.99382984749843,63.0816577421044,400.0,395.50561797752806,382.0224719101121,364.0726858620878,{}
90,19,339,0,11.299999999999963,13.635483274592584,140.97328382620492,22.72580545765464,36.36128873224711,40.906449823777976,45.45161091530906,45.45161091530906,118.1741883798034,81.81289964755629,74.98401377095183,82.97604031707203,85.0915767557509,38.5889517055316,34.12281922387604,1.841300233665038,16.25828929725435,13.635483274592698,13.635483274592811,15.944876491524155,61.82067593028307,60.95879071452509,63.632255281432506,400.00000000000017,404.5448709532602,390.9895410045539,372.7309228720826,{}
91,19,340,0,11.333333333333297,18.177124282635365,127.32099199496264,22.721405353294085,36.63716527236537,36.354248565270495,40.89852963592946,45.4428107065883,122.77971342155064,86.34134034251774,77.20741247865215,88.47061147553791,88.65227597548756,43.14531873807027,34.21780616911008,1.4922441067302543,21.0601059584626,14.370278511270463,9.088562141317572,11.431887461124688,60.00118912626692,62.77806076835623,68.1642160598825,399.9999999999999,399.9225531632999,386.2906211462357,363.5708863000411,{}
92,19,341,0,11.36666666666663,18.53081180052873,130.41454497570265,22.471910112359552,35.95505617977517,40.6983601714044,40.44943820224708,44.943820224719104,121.4315153807306,85.51144984467612,76.43215727803727,86.56267013025774,88.77009705525529,42.72947833387957,33.74209728210394,1.892080221426568,16.08268188212446,8.988764044943823,8.988764044943936,9.026799389721871,61.01958714100135,60.46773040975211,71.91011235955057,400.0,395.5056179775281,382.0224719101122,359.5786505882177,{}
93,19,342,0,11.399999999999965,22.46623825206919,134.87229618273153,26.95948590248316,36.225720684573126,40.43922885372463,44.93247650413837,40.43922885372452,125.89114520743838,89.86495300827686,78.6263282223922,86.16328986264512,89.06109874725746,47.17579693343532,38.24310165609836,1.9806124945284864,20.43088190664685,13.479742951241468,14.208896666507773,11.28550340842105,61.678134057802254,59.73739966719029,67.39871475620734,400.0000000000001,399.92428305450056,386.4454205854724,368.4463073339349,"{'neutral': (['m1', 'm3', 'm12', 'e1', 'e2'], 4.0826906333553055, 60)}"
94,19,343,0,11.433333333333296,8.983661784975732,134.82976983887693,26.95098535492755,40.426478032391095,35.934647139902935,40.42647803239121,45.14234178061195,121.36258764420504,80.97763301789168,76.45978706039386,87.40887057831424,87.96026327346135,42.654163488876975,33.674339596481786,6.209732019156263,16.23982771183148,13.475492677463768,13.475492677463777,13.469735838592785,59.839235820960766,61.65095467644392,63.04585092646148,400.00000000000017,395.51074773802617,382.0433546632772,364.0877629326152,"{'neutral': (['m1', 'm3', 'm12', 'e1', 'e2'], 4.0826906333553055, 60)}"
95,19,344,0,11.46666666666663,8.983661784975753,134.8297698388771,26.950985354927585,40.426478032390975,35.93464713990299,40.42647803239098,45.14234178061188,121.36258764420494,80.97763301789166,76.45940241218784,87.39709091020984,87.97138481702723,42.65437471543703,33.674506354292134,6.212815901024555,16.236855001837057,13.47549267746374,13.475492677463732,13.53506321294617,59.98760899392539,61.63217790890246,62.885632494830695,400.00000000000006,395.51074773802617,382.0433546632773,364.0877629326153,"{'neutral': (['m1', 'm3', 'm12', 'e1', 'e2'], 4.0826906333553055, 60)}"
96,19,345,0,11.499999999999964,4.594970111970576,147.11082247118978,27.95011202493444,32.16479078379359,41.354731007734514,41.35473100773474,45.94970111970521,110.37496971847222,78.24952137663009,75.92838510189051,85.27992974444464,84.94640414676792,39.18925772702744,25.25815007021833,6.272846817844993,12.250651760822052,9.189940223941038,13.784910335911508,13.777172765573596,60.59903551635921,63.39551937380338,64.32958156758741,400.00000000000006,399.8680172861423,395.2742749550968,367.7124652669457,"{'neutral': (['m1', 'm3', 'm12', 'e1', 'e2'], 4.0826906333553055, 60)}"
97,19,346,0,11.533333333333296,0.0,145.48798132621437,27.265686423952893,27.2656864239529,41.150215270763134,40.89852963592953,45.6694595475353,100.077409378125,72.85036750374746,72.8323992960469,80.29569782656267,78.99092535619275,34.05456147665393,20.43273688599232,10.438179762959066,7.724253024589757,9.088562141317562,10.161321382858675,9.263884539626249,63.90775559871702,63.5946102058283,59.07565391856486,399.99999999999983,399.9225531632997,386.26389100600034,368.0867667233652,"{'neutral': (['m1', 'm3', 'm12', 'e1', 'e2'], 4.0826906333553055, 60)}"
98,19,347,0,11.56666666666663,4.544281070658885,145.700735007495,22.72140535329409,31.80996749461186,36.637165272365536,40.89852963592941,45.66945954753526,104.61720670161544,72.8503675037475,70.56170103890554,80.27869204426327,83.5479600460659,36.32520002002866,22.70325001251797,12.895446007110197,9.807804005407776,9.088562141317656,9.088562141317665,9.172113005057328,63.750726035150365,63.38747403495006,59.25017617151171,399.99999999999983,395.37856884263664,381.7466582691175,363.57088630004097,"{'neutral': (['m1', 'm3', 'm12', 'e1', 'e2'], 4.0826906333553055, 60)}"
99,19,348,0,11.599999999999962,6.35240816804258,144.0190543649572,22.4591544624395,31.44281624741539,40.67525870686152,40.67525870686151,45.14234178061194,103.7019689333608,72.42859683401473,69.81682678063657,79.14936369378427,83.08714298203233,36.07005828035142,22.44534194301343,8.348092091085732,9.765692634854986,4.491830892487831,6.352408168042974,6.891113754433945,63.55575771232225,62.29566834008301,67.37746338731863,399.9999999999997,399.8738767113531,386.3235711671555,359.3745442455578,"{'neutral': (['m1', 'm3', 'm12', 'e1', 'e2'], 4.0826906333553055, 60)}"
100,19,349,0,11.633333333333296,9.088562141317546,136.404149110951,22.72140535329415,31.80996749461192,40.89852963592946,45.4428107065883,50.193224988997024,113.6978760626897,81.92319205190392,77.37399960064477,89.24296934034555,88.20742164493538,38.59406603278558,24.972630962390667,10.60772575170131,16.82101192416212,9.08856214131766,10.161321382858668,11.53706342706937,68.18683286700616,68.02751783694305,68.31552416184394,399.9999999999997,404.4665441518637,386.2638910060003,368.1148167723084,"{'neutral': (['m1', 'm3', 'm12', 'e1', 'e2'], 4.0826906333553055, 60)}"
101,19,350,0,11.666666666666629,9.08856214131763,136.40414911095104,22.721405353294145,36.35424856527055,36.35424856527054,40.89852963592941,50.193224988997,118.23866556280676,81.92319205190398,77.38048550810618,89.62623764854322,87.83160155899645,38.58467592525619,29.50592864872533,10.503899465288669,16.732342364303918,13.632843211976503,13.632843211976391,11.454000924460388,63.0233967917319,64.07906507970063,68.16421605988242,399.99999999999983,399.9225531632999,386.2906211462354,368.1148167723085,"{'neutral': (['m1', 'm3', 'm12', 'e1', 'e2'], 4.0826906333553055, 60)}"
102,19,351,0,11.699999999999962,27.24459655118998,136.52536488774504,27.24459655118999,36.60882660734995,36.32612873491991,45.63413444784639,41.11838578403257,131.99500146737049,95.46414018811284,81.84967611958461,89.27415067783352,92.93482910585897,50.08942384263082,40.8346100703692,5.259002812092945,23.58817437776997,9.081532183730031,10.15346165133614,9.25481377226174,68.08346287616473,67.85144804621939,63.73268917991064,399.99999999999983,399.6906019905744,386.0719445799612,363.2896660287752,"{'neutral': (['m1', 'm3', 'm12', 'e1', 'e2'], 4.0826906333553055, 60)}"
103,19,352,0,11.733333333333295,13.47549267746372,139.24675766712514,26.95098535492744,36.2142984170074,35.934647139903326,40.42647803239104,36.21429841700738,112.65454566176972,76.49312375858054,69.74649980342713,83.80737387759564,78.30474146263703,44.97197505958116,31.507008182424443,3.867057342309636,18.752058391068545,8.983661784975888,10.04403921903649,11.398310002414291,63.06473187097754,62.78579658726983,67.52702508830188,400.0,395.383192425347,381.9113013757739,359.3745442455581,"{'neutral': (['m1', 'm3', 'm12', 'e1', 'e2'], 4.0826906333553055, 60)}"
104,19,353,0,11.766666666666628,13.469549042837723,143.74532657247494,26.93909808567554,36.19832537890205,40.408647128513145,40.40864712851315,36.198325378902126,112.6048571290837,76.45938494175955,69.71612449356098,79.47893095829,78.25539385566071,42.79830823571797,33.6472703223036,6.015724087926969,16.594221954408795,13.469549042837713,14.19815134356949,13.637340623055024,67.49846349504548,67.26905028830242,62.85789553324305,400.00000000000006,395.33629983979694,381.7428517844136,359.3002031847011,"{'neutral': (['m1', 'm3', 'm12', 'e1', 'e2'], 4.0826906333553055, 60)}"
105,19,354,0,11.799999999999962,9.085631008870951,145.65374537973491,27.25689302661275,36.62534949972547,40.88533953991883,45.65473078927575,36.34252403548347,109.12217305449272,72.68504807096717,68.10440728880917,79.7578280915609,83.99543565619797,45.55428131984797,27.241762915523736,13.015508948528009,18.91789091355804,13.62844651330631,10.15804427715772,9.2319307658164,69.0124660526601,67.49903477957548,59.05660155766074,399.99999999999983,399.8709968683192,386.24619286324906,363.5387930026172,"{'neutral': (['m1', 'm3', 'm12', 'e1', 'e2'], 4.0826906333553055, 60)}"
106,19,355,0,11.833333333333297,13.47549267746363,139.31918771502296,27.322740645261508,35.93464713990331,40.42647803239111,40.4264780323911,35.9346471399032,112.38557302411924,76.49312375858048,69.74766615862416,83.85712377281322,82.74797079765779,47.39694399647635,29.083022778790223,10.407981987797712,21.18998067651989,13.475492677463745,8.983661784975828,9.06668071551644,67.65833148449383,67.52936020831294,62.8856324948308,399.9999999999999,395.6892560958151,382.0433546632777,359.59904812142673,"{'neutral': (['m1', 'm3', 'm12', 'e1', 'e2'], 4.0826906333553055, 60)}"
107,19,356,0,11.866666666666628,13.469549042837723,139.25773821050532,26.93909808567554,36.19832537890203,35.91879744756739,40.40864712851338,36.19832537890214,112.6048571290837,76.45938494175957,69.71612449356098,83.78680117379702,82.74169656530125,47.19539469829181,29.25018385972976,10.591243044634211,20.99130841698264,13.4695490428376,13.469549042837826,11.304973021168053,67.676895989179,67.44748278243605,62.85789553324305,400.00000000000006,395.514729462917,382.0595632756584,359.44043979407064,{}
108,19,357,0,11.89999999999996,13.784910335911448,133.33333333333331,23.42984226531332,41.6092240621236,41.35473100773434,41.35473100773457,41.354731007734685,119.82216082317,78.24952137662999,71.34719384964171,85.5191602713304,84.90354544034312,43.88820732580882,34.52573177120894,6.258750781705203,21.64912155638968,9.189940223940928,9.189940223941042,11.478651536118946,69.15406601424922,68.94886107058676,64.32958156758728,400.0,395.40779101192095,386.2235700740703,363.2642833556442,{}
109,19,358,0,11.933333333333294,22.97485055985255,137.92566493311529,27.56982067182304,41.354731007734834,36.7597608957639,41.35473100773461,37.04583338843468,128.7411900246902,87.42526876953053,75.8996663758603,88.89877784362488,90.46371941838493,52.82939864472087,39.04781638957638,1.8930744855967987,25.6700900246924,13.78491033591146,14.5305713342257,13.88254622770978,71.0786366858739,66.83814983813716,73.51952179152848,400.0,399.8680172861423,386.0868779550926,363.118948569529,{}
110,19,359,0,11.966666666666628,22.97485055985255,137.92566493311529,27.56982067182304,41.354731007734834,36.7597608957639,41.35473100773461,37.04583338843468,128.7411900246902,87.42526876953053,75.8996663758603,88.89877784362488,90.46371941838493,52.82939864472087,39.04781638957638,1.8930744855967987,25.6700900246924,13.78491033591146,14.5305713342257,13.88254622770978,71.0786366858739,66.83814983813716,73.51952179152848,400.0,399.8680172861423,386.0868779550926,363.118948569529,{}
111,19,360,0,11.99999999999996,27.256893026612683,136.58698374089153,18.17126201774183,36.62534949972538,36.625349499725374,40.88533953991893,41.13694400416492,122.9920631361208,86.43295968585565,72.80816446912809,84.59467922732563,88.25700985241099,45.39226690246744,36.49435094715409,0.902687125901366,23.418283151954824,9.085631008870864,10.15804427715774,11.52860415079715,63.75550214937482,63.52338260271438,68.1422325665316,399.99999999999983,390.7877659731808,381.62354198305417,358.9111756956179,{}
112,19,361,0,12.033333333333294,31.442816247415426,139.3191877150229,22.903933372554743,40.42647803239124,40.67525870686144,44.9183089248792,35.93464713990316,130.34051823423422,89.94884352480685,74.23725942167096,88.22934601252643,86.98853833371481,51.704719977718014,42.728664428867205,3.0756190336502414,25.51575790577704,13.475492677463786,13.475492677463786,13.55648389510236,63.069990312365576,62.96438965884977,58.39380160234276,399.9999999999998,395.51074773802617,381.8320474819228,359.374544245558,{}
113,19,362,0,12.066666666666627,27.256893026612723,141.12006116276402,27.632867932437847,40.88533953991893,41.13694400416493,45.42815504435429,36.34252403548344,131.8199507645921,90.96980958341608,77.34838511464852,84.64243228624696,88.02708007450667,50.02194580090827,45.48284450347455,5.365585059683099,23.5219902494174,13.62844651330619,13.628446513306317,13.617303892300695,63.86226912111749,63.41623026530044,59.05660155766081,400.00000000000017,395.4598522937767,381.70464932171575,358.9974144159434,{}
114,19,363,0,12.09999999999996,22.70383045932499,140.83696796790164,27.620401842445176,36.32612873491988,40.86689482678499,45.63413444784641,40.86689482678488,127.22250984125904,90.9287701286749,79.58833405784776,89.5385145140998,87.57207568875367,47.73202508723841,38.66018730630742,3.211850081398893,21.35552564326042,9.081532183729996,13.62229827559488,13.607756671396146,67.54061885455974,68.74670133410552,63.73268917991081,400.0,395.4639712759173,390.74340988829744,368.054231772674,{}
115,19,364,0,12.133333333333294,4.540766091864859,145.37544709666997,27.244596551190003,36.60882660734981,40.86689482678501,40.86689482678501,45.40766091864998,113.60993132136517,77.19302356170483,74.82705405891215,85.52755208572296,82.72504069774868,38.7765666590617,29.477324326237976,5.885273914745994,12.483914364612474,13.622298275594895,14.359163172354725,11.56672881945724,66.82715791505859,69.22203128296371,68.26268244387258,400.00000000000017,395.1510216321187,386.0719445799612,363.3747887696698,{}
116,19,365,0,12.166666666666629,4.5428155044353975,140.90053280403237,22.71407752217724,32.122556488657104,40.88533953991895,41.136944004164846,49.970970548789865,109.1221730544928,77.22786357540251,74.83575680471301,85.76218961642041,82.30902452970156,34.14510253658568,25.07410171177208,10.179106039208593,12.49839602282566,9.085631008870797,14.365643983942856,11.596449918085682,61.847732896457046,60.86847712559654,68.29349187044575,400.0000000000002,395.45985229377686,386.2461928632491,368.0802070523233,{}
117,19,366,0,12.19999999999996,4.590126927370905,142.36794980408882,27.540761564225647,32.130888491596664,41.31114234633848,46.130204705235634,46.13020470523586,110.25863243215866,78.16704491484242,75.8671051851685,85.85405039564569,84.01469083677705,38.872662226513626,25.323577025269746,10.530981136339731,12.396247167868523,9.180253854741924,10.263835834953538,9.37814310296426,64.01489394316252,60.20664246212459,64.26177698319312,400.0,395.17767362528673,386.007569304937,367.4682581215551,{}
118,19,367,0,12.233333333333292,9.081532183729882,141.0563972902145,23.15345490908004,36.32612873491999,40.86689482678499,45.40766091865,45.40766091864999,113.60993132136528,77.32646017566658,72.78445572214957,80.46667673316904,83.03615679828818,36.39222786107473,31.85630897060946,3.59202825429918,14.551647307562234,13.622298275594993,13.622298275595115,13.607756671396146,63.42420691350151,64.00102896893634,63.57072528611022,400.0,400.00000000000017,390.74340988829744,367.9141540390476,{}
119,19,368,0,12.266666666666628,4.487306256846971,139.1788510511365,27.295218361121822,40.385756311623325,40.3857563116232,40.38575631162343,44.8730625684704,116.75622513910758,76.41607199008705,74.16282741188684,83.67360316833867,82.40019386203562,38.202279189095634,33.718817256486545,5.889518041652309,12.044329688784272,13.461918770541027,14.190108330361186,13.636091321663343,62.9807019409119,62.92764321981588,62.82228759585852,400.0000000000001,395.2906770411498,381.6585211688196,359.0966656811189,{}
120,19,369,0,12.29999999999996,13.61440561168975,140.75536801823705,22.69067601948285,36.305081631172726,40.84321683506916,40.84321683506916,45.60769435099069,118.07875488091996,81.81239586318667,75.01368372520756,85.56248299906497,82.8276091132501,38.63986104386993,33.87336655716422,5.977652921852382,17.151566226753175,18.15254081558642,13.614405611689762,13.59623017519391,62.58954235822012,60.01094698016607,63.53389285455213,400.00000000000006,395.0524241343046,385.8482572079645,367.6169636285621,{}
121,19,370,0,12.333333333333291,18.15254081558635,136.21967070540757,22.690676019482726,41.09456208022338,36.58761571044158,40.84321683506919,40.8432168350693,122.61366124562625,81.68643367013837,72.5109648212981,85.36901381577252,82.78686463245594,43.29052151213398,38.52145006131468,1.554559202200835,17.04745430210039,13.614405611689774,14.35084357410581,15.980341629403028,62.52489808173709,64.84356265451117,68.22313152530475,400.00000000000006,395.4692561406666,385.98167177479786,363.3059967365944,{}
122,19,371,0,12.366666666666626,18.15254081558635,136.21967070540757,22.690676019482726,41.09456208022338,36.58761571044158,40.84321683506919,40.8432168350693,122.61366124562625,81.68643367013837,72.5109648212981,85.36901381577252,82.78686463245594,43.29052151213398,38.52145006131468,1.554559202200835,17.04745430210039,13.614405611689774,14.35084357410581,15.980341629403028,62.52489808173709,64.84356265451117,68.22313152530475,400.00000000000006,395.4692561406666,385.98167177479786,363.3059967365944,{}
123,19,372,0,12.39999999999996,13.604777627475626,136.1233373893146,22.6746293791259,36.56174128033108,36.27940700660152,40.81433288242655,45.34925875825179,117.99525065602384,81.62866576485332,74.74909665522739,84.63327472534013,82.98591171365467,38.50711039814746,34.182782492473166,1.4414426352246892,16.679550493315332,13.604777627475512,13.604777627475524,13.590744846405071,63.21755557342931,64.04123707927192,68.17488474523212,400.00000000000017,399.7171236265823,390.240845809084,367.4409523589292,{}
124,19,373,0,12.433333333333293,10.140402531267782,127.70467215606654,27.209555254951084,36.27940700660129,32.066768389743466,36.561741280331184,45.34925875825184,117.9952506560236,81.7545388785806,77.09753825440566,85.37646853675801,91.71502453418395,43.27034655385694,29.429009988048847,10.5427002814331,16.88125627885904,18.13970350330088,14.340694787641397,13.841336565807753,66.49015883014181,65.32593425918606,63.65071784157732,400.00000000000006,395.1895838682283,386.1350244013212,367.7766171235302,{}
125,19,374,0,12.466666666666626,9.069851751650368,127.30143568315464,27.58487719514927,36.27940700660136,32.06676838974338,36.27940700660147,45.34925875825184,117.99525065602376,81.7545388785807,77.22523011800638,85.0524653062381,87.51320145237116,40.99481707281279,31.70161141454423,8.350796070387787,14.52881447982827,13.604777627475611,13.604777627475489,15.850805707272116,62.51316932942336,60.23567949204494,63.65071784157721,400.00000000000017,395.1895838682283,385.8952799596231,358.71808323399955,{}
126,19,375,0,12.49999999999996,9.076270407793135,127.1487980129723,23.14003995999096,36.30508163117255,31.76694642727597,36.58761571044166,49.91948724286236,118.07875488091976,81.81239586318662,77.28163981294028,90.03021297908322,87.18549004118347,38.77252004248396,29.448150412701807,5.742125930204793,16.9102974641811,13.614405611689826,14.35084357410588,15.988396512084137,61.89906392651994,65.4813076260973,63.69576290761065,400.0,395.2348422296452,381.4463940389169,358.6275522037306,{}
127,19,376,0,12.533333333333292,10.026983827409376,121.15650656307652,26.905220936853983,40.35783140528103,31.70810695628631,36.15280432797272,45.06568732902675,121.4052030407836,81.21237926996383,76.46164946052954,88.23299331480723,87.08711028474488,42.65810007368782,33.69937820229063,5.989843111689993,16.406961566803034,17.936813957902654,14.180296518418093,13.646425176198136,66.87790048182558,67.71126995823465,62.778848852659415,400.0,395.2463545489255,381.57910588830913,358.9884269897572,{}
128,19,377,0,12.566666666666626,18.15254081558636,127.3915258152212,27.60439877568921,40.84321683506919,32.08946176616653,36.30508163117249,40.8432168350693,127.14879801297243,86.34391089499043,77.28003627211751,89.6638129676154,92.0878713846064,50.088424464130526,36.255482410649165,8.352462154197383,19.07628580327741,18.15254081558636,14.35084357410581,13.7143739787374,62.52489808173709,64.84356265451117,59.17004387275493,400.00000000000006,395.4692561406664,386.4082888398349,358.97194493885684,{}
129,19,378,0,12.59999999999996,18.92557815654218,124.0184002591724,27.540761564225665,41.31114234633849,36.721015418967625,41.31114234633838,41.56536716027935,128.85100304222766,87.69425181516851,78.26431112290504,90.2488594306734,89.20672479521534,48.25083362171108,39.08004882967953,1.3547750260956946,21.57218695398319,18.360507709483816,14.51525583976244,13.964604115138854,63.98706661712879,64.82077432549522,64.26177698319329,399.99999999999983,400.00000000000006,386.0075693049369,363.084552707857,{}
130,19,379,0,12.633333333333292,22.95063463685481,133.19279750157082,27.540761564225622,46.13020470523582,36.72101541896773,45.90126927370938,37.00678638587027,133.42986585439786,87.3331208980537,75.86827968109048,85.92662453313358,84.36287658512174,48.25090066704797,48.2509006670482,3.246764807313184,21.58767294331801,18.360507709483866,14.515255839762489,16.15431142903924,64.11366586849181,64.69675832368262,64.26177698319313,399.9999999999999,399.762900496176,386.007569304937,363.08455270785686,{}
131,19,380,0,12.666666666666623,27.540761564225743,133.1927975015708,23.405146772532103,36.72101541896749,36.72101541896773,41.31114234633871,41.311142346338606,128.60549439802344,91.9172200893811,78.16492057635332,90.8693396378584,88.61659728880807,48.48634986153797,38.84670818188079,1.4669019947302786,26.273262512762017,13.770380782112866,13.770380782112866,11.460171833831964,68.15855339801305,70.07076492685815,64.42550152111369,400.0,395.1776736252865,386.007569304937,367.668880357524,{}
132,19,381,0,12.699999999999958,22.96424666558009,128.681770357781,27.55709599869591,41.5900195928028,36.74279466492788,46.15756454436368,36.74279466492799,128.6817703577809,87.264137329204,75.72146103908483,89.94791735551883,89.39721582068921,52.95913093279023,39.00802538377093,1.5603210153508371,26.15832290441108,18.371397332464056,18.371397332463943,18.44850141679524,64.61564675335251,64.24851239679924,64.46371230662028,400.0,400.0,385.908682043732,362.95135335801774,{}
133,19,382,0,12.733333333333292,27.24459655118989,118.1472085434015,27.620401842445112,40.86689482678505,31.78536264305517,40.86689482678505,36.326128734920005,131.7604824758472,90.92877012867484,77.32063208764475,89.13497150622084,88.18560494579947,52.37338858324097,43.09069332578838,1.4240498406319375,25.79112489144495,13.622298275594948,13.622298275594948,13.607587366038388,58.6497563993596,59.493637786400654,68.11149137797494,400.0,395.4639712759172,381.5324498771743,358.8354589473262,{}
134,19,383,0,12.766666666666625,31.78536264305494,118.1472085434015,22.703830459324948,40.86689482678505,36.60882660735004,40.86689482678505,36.608826607349926,131.7604824758472,90.92877012867484,75.05270085997165,89.13497150622084,88.18560494579947,52.16241823648068,43.09069332578838,1.4240498406319375,25.79112489144495,13.622298275594948,13.622298275594948,13.607587366038388,63.185618854705695,64.02950024174675,59.02995919424505,400.0,400.2318915457752,390.9280525468098,368.25025108298354,{}
135,19,384,0,12.799999999999958,36.3261287349201,118.14720854340143,23.15345490908004,40.86689482678488,31.78536264305521,40.86689482678499,36.32612873491999,136.2986411804199,95.464140188113,77.32037461261507,89.11900756469265,88.2013361128644,52.37282071505547,47.62714834988651,3.106973344047105,25.7865677963739,13.622298275595004,13.622298275594993,13.607756671396146,63.21445343879782,59.674863553174646,63.57072528610998,400.0,395.4639712759173,381.66752952377743,358.979079308869,{}
136,19,385,0,12.833333333333291,18.93680292298476,128.68177035778092,27.55709599869609,41.33564399804385,32.149945331811644,36.74279466492776,41.33564399804386,128.68177035778078,87.38491819992082,78.10819917103584,89.91841816602562,89.42578554054853,48.36874541197256,39.00872552790816,1.5686459916505555,21.37766314241287,18.371397332463992,14.52386484263185,16.153164509064027,64.66451410209572,63.83481704866051,64.46371230662035,400.0000000000001,404.822609002256,390.8242224339911,367.6862036626832,{}
137,19,386,0,12.866666666666625,18.93680292298476,128.68177035778092,27.55709599869609,41.33564399804385,32.149945331811644,36.74279466492776,41.33564399804386,128.68177035778078,87.38491819992082,78.10819917103584,89.91841816602562,89.42578554054853,48.36874541197256,39.00872552790816,1.5686459916505555,21.37766314241287,18.371397332463992,14.52386484263185,16.153164509064027,64.66451410209572,63.83481704866051,64.46371230662035,400.0000000000001,404.822609002256,390.8242224339911,367.6862036626832,{}
138,19,387,0,12.899999999999958,8.97969936189182,125.79594140364732,26.9390980856756,40.40864712851345,35.91879744756731,40.40864712851334,49.38834649040516,125.71579106648602,85.30714393797257,80.70688341039386,93.1935103979838,91.10806121425276,42.829912610877614,33.39325505449449,6.02173451802355,16.866070273425294,13.469549042837862,13.46954904283785,13.451147235065603,61.62502337925412,64.15363051452812,63.01804329734135,400.00000000000006,395.5147294629167,381.7428517844138,354.8117736681332,{}
139,19,388,0,12.933333333333293,27.228811223379505,131.91852449096908,27.22881122337939,41.09456208022316,40.84321683506914,40.84321683506914,41.09456208022327,136.44626305060987,95.4088289360564,81.7953308913053,88.71769838891578,93.1734751689869,49.9683538907974,45.43300966822494,5.092316320081295,23.55196298037584,13.614405611689753,14.350843574105868,13.685600110218388,64.37006098352731,62.61957724849936,63.53389285455211,399.99999999999983,395.234842229645,381.4463940389172,358.77108935264533,{}
140,19,389,0,12.966666666666624,32.14994533181197,133.50900315040522,23.41902837254997,41.59001959280289,41.59001959280289,41.33564399804427,41.33564399804393,138.0913304918901,96.55912762936067,80.50596319767135,91.35935971765387,92.84358488277962,50.83471190555849,45.98447609809375,5.512836327609989,24.383699141352395,13.778547999347944,13.778547999347817,13.75558679821927,62.947049413817126,65.96850778568034,64.46371230661985,400.0,399.81538257678767,386.0453110733425,362.95135335801774,{}
141,19,390,0,12.999999999999956,36.74279466492792,137.8620062309785,22.964246665579992,41.3356439980439,41.33564399804389,45.92849333116021,41.590019592802825,142.45238828053826,101.1470144067606,82.79816460641803,95.53026059651664,92.9996576668076,52.74725481612302,48.16053700602538,3.242335003689732,30.999885888935864,13.778547999348046,13.778547999347806,13.760153430292805,63.581398608939935,65.32118812311478,64.46371230662011,400.0,404.4055347289973,386.0453110733424,362.9513533580177,{}
142,19,391,0,13.03333333333329,36.32612873491996,131.99500146737057,22.703830459325022,36.60882660734995,41.11838578403253,40.86689482678506,36.32612873491997,131.76048247584723,95.35608792916494,77.04097835819925,90.37748385550094,91.180263798057,54.52429577586168,40.92882900676784,1.2818582953717623,28.757649232531207,13.622298275595057,14.359163172354672,16.146235296247823,61.4256136691256,66.0351243070279,63.57072528610996,400.0,395.2814474275416,386.071944579961,363.2896660287752,{}
143,19,392,0,13.066666666666624,31.766946427276032,136.8230830529722,27.228811223379505,41.094562080223206,40.84321683506912,49.91948724286222,36.30508163117258,136.21967070540768,95.30083928182812,79.25914184532246,90.63393494430636,95.63155571090796,56.89999476974549,43.02639128746068,1.1192588175201763,31.15704196678189,13.614405611689858,14.350843574105822,13.873603482284691,61.35100076499998,61.507176413956245,63.53389285455208,400.00000000000017,399.768242810557,390.5170159021249,363.1642519702704,{}
144,19,393,0,13.099999999999955,31.41114379792914,130.20922581286527,26.9238375410822,40.385756311623126,40.38575631162312,40.63428638852359,35.898450054776184,134.61918770541064,94.23343139378753,78.39392594889023,93.52257832499174,90.40515904749212,56.12664539532079,42.425718654712455,3.4186824849891764,30.55856795969271,17.949225027388092,13.461918770541049,13.569942737351766,60.90756151417543,60.04306709268383,62.982344638950046,400.00000000000006,395.2906770411499,386.0126799423368,359.0966656811189,{}
145,19,394,0,13.13333333333329,32.17540727772352,151.75369063872728,23.437575652415298,41.36838078564465,41.622957839459474,46.1941201714329,41.36838078564477,137.97118946316417,96.63560002331346,80.55732708362405,90.35291122730835,88.95168859483454,48.31623225308681,48.31623225308658,7.888364449483333,21.48541369793565,13.789460261881626,14.535367377309347,13.960329190204448,64.7157267664868,64.06701258478574,68.9473013094079,399.99999999999983,404.5169499074736,390.7284113085084,363.1224535628807,{}
146,19,395,0,13.166666666666623,35.94598120331069,148.54924089879717,22.91115744886524,35.94598120331069,40.68808799552852,44.93247650413849,40.439228853724536,134.8722961827317,98.95351488075356,80.99987850846185,88.8284750137899,90.91610074854395,49.47672991367381,44.98833458395234,5.636589483836247,23.381408229246745,13.47974295124154,13.479742951241551,13.465185989164295,62.52439075588734,63.56820362326437,71.8919624066216,400.00000000000006,395.50789931771646,381.9524802392086,354.995001519882,{}
147,19,396,0,13.199999999999957,27.55709599869592,156.42681162823916,22.964246665580088,36.74279466492787,45.92849333116019,50.72967898181399,46.15756454436368,133.27179419226252,96.55912762936076,82.79762279135605,91.30545651674448,92.638008786986,45.87054930254635,41.28349437229167,1.1531702338629657,24.088444885136028,18.371397332463943,13.778547999348014,11.467637325636588,63.50124087805011,65.16693121585195,69.04566524594492,400.0,395.2252930931838,381.3171496566613,358.2716881152404,{}
148,19,397,0,13.23333333333329,22.45915446243947,144.01905436495758,22.45915446243957,36.2142984170075,40.67525870686152,44.91830892487916,35.93464713990318,116.87395264583888,80.85295606478222,69.54362979630469,79.92748643770778,82.02306423338553,45.08178898906681,35.893486346479904,3.6269615694421873,19.02139845307454,8.983661784975883,13.475492677463706,11.216714483274927,62.35687261240992,63.70019171220338,63.0458509264615,400.0000000000002,395.51074773802605,386.40190381731367,363.8660285862677,{}
149,19,398,0,13.266666666666625,27.256893026612698,141.1200611627641,22.714077522177288,36.62534949972535,41.13694400416493,45.42815504435434,36.34252403548352,122.74011600270508,86.3134945842735,72.6242242716786,80.13615975007224,83.45415245254298,45.48304396546837,40.94402994848826,0.8361341610226418,18.992190228942263,9.085631008870816,10.15804427715772,9.263835625298157,68.35064967089647,68.19138602117789,72.82687268986716,400.0000000000002,399.8709968683194,386.16603939656886,367.9960968618541,{}
150,19,399,0,13.299999999999956,17.972990601655326,148.549240898797,22.46623825206915,35.94598120331064,40.439228853724586,40.68808799552842,40.43922885372459,116.82443891075972,80.87845770744907,71.84876386742519,78.98691779211515,82.82854244976659,40.49280044551415,35.846511163625,3.789710810926296,18.66302789764404,8.986495300827663,10.04720718606669,9.058966253515791,68.26670844339912,66.60546534819844,62.90546710579386,400.0,399.9242830545005,386.4192979355906,368.4463073339352,{}
151,19,400,0,13.33333333333329,6.424511297731385,154.52251881972194,22.714077522177178,27.256893026612687,40.88533953991886,45.42815504435437,45.65473078927575,100.35407456193028,73.25069899945085,70.67351379157333,81.63259010446723,78.09825502401532,34.2619497724404,20.414741434848903,10.392000161925694,12.52842659115413,9.085631008870893,9.085631008870893,9.19190877266783,62.589381685913054,64.67305684528401,68.14223256653166,400.0,400.00000000000017,390.7877659731805,368.0802070523232,{}
152,19,401,0,13.366666666666625,4.487306256847051,143.66389727000623,26.9238375410822,31.411143797929235,45.0968697551902,44.87306256847029,45.76172433425997,99.12783520311736,67.90526558660318,69.98759641389267,81.3404959450886,76.54646412449074,33.58456357836394,20.1507381470185,10.035857822240471,8.16565859552361,8.974612513693991,8.974612513694103,9.100758208882326,60.50489610941349,65.1672237591157,71.79690010955214,400.0000000000001,399.77340674814207,386.1430676102816,368.0685432833733,{}
153,19,402,0,13.399999999999956,0.0,144.01905436495744,22.459154462439503,31.762040840214173,40.4264780323909,44.91830892487901,45.142341780611886,99.22778767136668,67.52702508830195,67.5245891294129,76.44096344688751,77.06667392530676,31.650521700041395,22.421292143357164,7.925666059977402,10.272080354049647,8.983661784975862,14.204416484568728,13.713487985355757,61.26748434522028,64.55246435692152,67.52702508830207,400.0000000000001,395.3831924253469,390.8925344877862,368.3301331840085,{}
154,19,403,0,13.43333333333329,4.491830892487873,143.80875629069502,22.45915446243948,31.44281624741534,40.42647803239088,44.91830892487897,44.918308924879085,98.92231402395372,67.52702508830195,67.41268676629068,79.45588292485388,77.99529684167646,33.84576296381215,20.19592211375391,10.47638563297278,12.1494206009761,13.475492677463745,8.98366178497586,11.312903116974669,58.74211665433722,58.31721888468576,67.52702508830195,400.00000000000006,400.00000000000006,386.40190381731344,368.43967374648486,{}
155,19,404,0,13.466666666666622,0.0,149.91406473084422,23.15345490908009,31.78536264305493,40.86689482678498,45.40766091865,45.40766091865,100.0,68.26268244387262,68.26041249636421,81.8329683014664,77.61805351042892,34.395295228750456,20.26605256445453,10.404742487309818,12.790543312425484,14.35916317235473,14.35916317235484,13.73160919344332,62.16336594329096,65.2914159139981,68.1114913779749,400.00000000000017,404.5361350189652,390.7434098882978,372.5919245878003,{}
156,19,405,0,13.499999999999956,0.0,149.98172639024943,22.714077522177256,27.256893026612737,40.88533953991882,40.885339539919045,45.65473078927574,95.50722661999916,68.29349187044568,68.2693515342147,80.43436896185403,78.98182956750907,34.13467576710741,15.79636591350186,10.71247803329436,12.346584851932448,13.6284465133062,14.365643983942643,13.799124246277415,63.911733351179805,63.18546365400721,68.14223256653167,400.00000000000017,404.41265275169394,390.7877659731805,372.5385704284264,{}
157,19,406,0,13.533333333333289,4.594970111970557,151.7036184789063,27.569820671823088,27.95011202493459,41.609224062123324,41.35473100773439,41.35473100773473,92.01420478540726,64.32958156758725,66.56349305952494,81.45154021642247,79.41964161539704,39.12031936172184,11.57680499226342,15.163984003950532,12.379530365508003,13.784910335911423,9.189940223940992,11.47646432060776,64.04243368417826,64.49396670662838,68.92455167955792,400.00000000000006,400.00000000000006,395.2742749550967,376.81556625037854,{}
158,19,407,0,13.566666666666622,4.594970111970557,151.7036184789063,27.569820671823088,27.95011202493459,41.609224062123324,41.35473100773439,41.35473100773473,92.01420478540726,64.32958156758725,66.56349305952494,81.45154021642247,79.41964161539704,39.12031936172184,11.57680499226342,15.163984003950532,12.379530365508003,13.784910335911423,9.189940223940992,11.47646432060776,64.04243368417826,64.49396670662838,68.92455167955792,400.00000000000006,400.00000000000006,395.2742749550967,376.81556625037854,{}
159,19,408,0,13.599999999999955,0.0,150.12022673253182,22.70383045932501,32.108064953396735,40.86689482678504,40.86689482678504,40.86689482678493,95.46414018811282,63.57072528610994,63.46599929939964,76.96164282858228,77.4306034145385,36.39655214337495,18.26340948640359,12.427455527838106,14.772258457618932,9.08153218373,10.15346165133621,11.46348099003933,57.47372514551546,60.91276944252729,72.7940181070186,400.00000000000006,395.281447427542,390.7434098882976,372.45355345940254,{}
160,19,409,0,13.633333333333288,0.0,147.25795196393227,23.419028372550088,27.557095998695967,41.3356439980439,36.74279466492781,41.59001959280288,92.31512908872756,64.95269816828862,64.60972328243065,76.65994945018554,80.09554584694979,36.89420309659431,13.76802436613707,13.0501385518877,14.665381633948414,13.778547999347929,13.77854799934804,13.85776009291817,64.71227839875189,63.78928235186004,69.0456652459453,399.99999999999983,399.8153825767876,390.5002454047543,367.4566508363979,{}
161,19,410,0,13.666666666666622,0.0,149.91406473084388,22.703830459325,27.2445965511901,40.86689482678499,40.86689482678522,41.11838578403249,90.9287701286749,63.73268917991047,63.71261794121881,76.3502647921108,73.96431901735741,34.12426841584215,15.770839379277165,10.39590658999714,12.283687862329543,9.081532183730118,14.359163172354808,13.712633408747934,58.67853454833244,59.46511007847107,68.26268244387256,400.0,399.8195469247257,386.0719445799614,367.9141540390476,{}
162,19,411,0,13.699999999999957,0.0,150.059166295443,27.27096654918547,31.816127640716363,36.361288732247374,40.90644982377826,36.64426022746018,95.55653976469206,63.79437593980675,63.74025031726296,75.15273824439839,75.18010632096241,38.68477622303613,20.375533001804342,10.87881043413995,11.973533496694929,13.635483274592795,13.635483274592682,13.697722320218986,60.45608112959803,57.66453732008279,68.32875377643309,400.00000000000017,399.9741760547199,390.9102783336708,368.18610389496735,{}
163,19,412,0,13.733333333333288,6.4265839213610185,136.631048323688,27.26568642395299,31.809967494611683,40.89852963592932,45.44281070658813,36.35424856527062,100.07740937812498,68.31552416184388,65.91533027285561,76.69401834586188,78.07820183205058,41.08974311778627,22.68522935698116,12.585816513308146,14.892788990289318,18.17712428263537,10.16132138285873,11.470779816100617,66.95346788749725,65.13352293343439,63.78202425826717,400.0,400.0,390.8345914224441,368.1148167723082,{}
164,19,413,0,13.76666666666662,4.596486753960522,142.56520697954218,23.43757565241546,32.17540727772368,41.36838078564449,41.368380785644725,41.36838078564461,101.22712029133908,69.10034767155365,66.80195151190605,77.8109956244432,74.40773140230067,34.80611136282255,25.111964790658703,10.31292188528073,12.89115235660097,13.789460261881564,13.789460261881564,13.767750716849832,58.31957326126269,61.25875599856761,69.10034767155375,400.0,400.0,395.2978608406044,376.9119138247623,{}
165,19,414,0,13.799999999999956,9.081532183730012,136.52536488774527,22.703830459324987,32.108064953396735,40.86689482678502,40.86689482678502,40.86689482678491,104.53628581285244,72.65225746983991,67.97884959410283,76.75945100000786,77.32594141329207,36.255386450188325,27.47478504428318,7.647620579336603,15.011995952031157,13.62229827559496,14.359163172354878,13.879015125462727,61.46420984133477,65.7128879409662,68.26268244387275,400.0000000000003,404.5361350189653,390.74340988829766,372.4535534594024,{}
166,19,415,0,13.833333333333288,17.959398723783814,134.99448189600605,22.449248404729563,36.19832537890191,36.19832537890212,44.89849680945913,36.19832537890213,112.60485712908368,76.45938494175967,67.48398566945662,75.11625921388418,77.79148911605455,40.36449822980717,36.089375935162025,3.4358344821993114,18.7790648034711,13.469549042837716,17.959398723783703,15.802215843702925,57.96331454702658,59.06487980086149,62.85789553324305,400.0,395.5147294629167,382.29692470879786,364.1209960793435,{}
167,19,416,0,13.86666666666662,18.50163767147532,134.6939553799924,22.43653128423516,35.8984500547762,40.3857563116232,44.87306256847032,36.17781963825358,112.54106837720408,76.81031057561472,67.56935712867983,79.93167058831295,77.37844251867318,42.571170059094925,33.843298596550994,5.549363049318913,21.10321159600176,17.94922502738805,14.190108330361197,15.918595413774256,66.30576976768464,64.11728856513628,67.30959385270572,400.0000000000001,391.3229512206336,382.080359950435,359.6849587758634,{}
168,19,417,0,13.899999999999954,23.16390490376827,132.0545756030497,22.71407752217721,36.34252403548358,41.13694400416493,45.65473078927584,36.625349499725445,118.46213505162982,82.27388800832998,70.65136273163887,80.25911824350237,83.31907816361013,45.277034072101856,36.61579158637335,3.397074148594129,18.87839679524064,18.171262017741668,14.365643983942778,16.090721444295127,63.29967936426158,68.5119839739366,63.59941706209608,400.0,395.4598522937768,386.3797450241031,363.6806839541198,{}
169,19,418,0,13.933333333333287,35.546779656234975,124.4930490017544,22.216737285147,39.99012711326438,35.546779656234975,39.99012711326449,35.823412463817675,133.3744589421992,93.4160306786749,75.5854735689835,85.23007163011539,88.15596092955991,51.09469646992943,46.65167938558761,6.935441302386948,29.09634358892049,17.773389828117487,17.773389828117487,19.993576879537613,61.01021020693577,59.11380047581429,66.79815923361207,400.0,395.6825235304728,382.5409926481978,360.3497259265236,{}
170,19,419,0,13.96666666666662,35.546779656234975,124.4930490017544,22.216737285147,39.99012711326438,35.546779656234975,39.99012711326449,35.823412463817675,133.3744589421992,93.4160306786749,75.5854735689835,85.23007163011539,88.15596092955991,51.09469646992943,46.65167938558761,6.935441302386948,29.09634358892049,17.773389828117487,17.773389828117487,19.993576879537613,61.01021020693577,59.11380047581429,66.79815923361207,400.0,395.6825235304728,382.5409926481978,360.3497259265236,{}
171,19,420,0,13.999999999999954,36.22572068457314,125.8911452074386,22.46623825206936,35.94598120331071,36.22572068457303,45.15658002155277,36.22572068457314,130.61369341886518,94.7851630232154,76.52611717028333,86.9800584699592,88.42292015975829,51.65717087535154,42.78221029281394,2.790440060460355,25.14118434961108,22.466238252069125,18.52613466471452,20.2681231708558,60.38240052781521,61.11744327544864,63.06573607154713,400.00000000000017,400.1261630688999,386.6543382493803,364.2025990064163,{}
172,19,421,0,14.033333333333289,36.36363636363632,127.35387023747188,22.727272727272748,40.90909090909096,36.36363636363621,40.90909090909096,36.64662612862976,136.4393729073058,95.56270928013016,77.29730603237681,91.29501397409012,95.11726632717796,56.81726470806177,43.181121178127,2.375994705973426,34.193662942488004,18.18181818181811,18.18181818181811,18.19443772128613,63.01551176712303,59.73560603170313,72.72727272727265,400.0,395.4806678937493,386.3903734064255,359.2059654569156,{}
173,19,422,0,14.06666666666662,36.36128873224728,127.3456482890315,22.72580545765453,40.90644982377811,36.36128873224716,40.90644982377812,36.64426022746018,136.43056440005572,95.55653976469203,77.33397911079385,92.0519651185241,94.42749970222803,56.80626178422244,43.17275895600904,2.5821028083737474,34.39360940753829,18.180644366123584,22.72580545765453,20.45025424232017,66.30840011903786,61.01508936187168,68.17741637296359,400.0,395.4290149631892,381.82058526040623,359.0964919210524,{}
174,19,423,0,14.099999999999952,36.63716527236556,127.32099199496248,23.17137785453965,41.15021527076322,41.15021527076343,45.669459547535446,36.3542485652706,136.4041491109507,95.42990248383528,77.28147746704497,93.38342565044866,92.77976663134793,56.75707081762084,43.31909613155312,3.188894383510388,30.24856606580716,18.17712428263529,18.736550846821267,18.25412381671936,63.88287184744024,63.62041140435304,68.16421605988275,400.0,395.5874323378395,381.82779177396975,359.2569627817616,{}
175,19,424,0,14.133333333333288,45.4428107065883,131.86247744594672,23.171377854539685,36.35424856527041,41.15021527076316,45.66945954753531,36.35424856527064,140.94598898897573,104.61720670161542,81.91447795744307,93.59758016207024,92.74790000173368,56.8489132275156,47.76795651391876,7.832988978102207,30.349513227020225,18.17712428263532,18.17712428263532,18.25484719473002,63.83222204528147,58.94656112334644,68.16421605988245,399.9999999999997,395.4569055806193,381.74665826911775,359.026964702629,{}
176,19,425,0,14.16666666666662,45.4428107065883,132.097177977163,23.17137785453969,40.89852963592946,41.15021527076296,45.442810706588176,36.354248565270616,145.4879813262142,104.6172067016154,81.90473740592483,93.16793640281048,97.73550097297608,59.11881869793933,50.03559370045093,5.2423184271219725,32.4919934195874,22.72140535329409,18.177124282635248,18.24430620924113,64.38708919648275,62.93377319688466,68.1642160598825,399.9999999999999,399.9999999999999,386.3708004713763,359.1132312445898,{}
177,19,426,0,14.199999999999951,45.96486753960532,128.78368307467233,27.578920523763053,41.6229578394594,37.05806094707001,45.964867539605095,36.77189403168408,151.7536906387273,110.31568209505244,87.24002135981027,99.39576513309704,98.0421779443684,61.98633096618119,53.015498225196325,7.949007118120562,30.694580073812403,13.789460261881636,18.38594701584216,16.17669395156804,63.9901708240044,64.78639858207976,64.35081455544736,399.99999999999983,400.1320262768235,386.3510492240161,363.3841844327301,{}
178,19,427,0,14.233333333333286,37.04583338843449,137.92566493311523,22.974850559852648,45.94970111970528,41.60922406212322,45.94970111970484,36.75976089576421,142.51816662224542,96.60371445144771,78.11903636385011,95.66128243421076,92.42913011218296,57.34463797146134,48.43015334135271,3.597072745482592,30.861841526459106,18.379880447882154,18.945547118210595,16.31715607733406,62.81844432328262,65.89420217811562,64.32958156758723,400.0,395.27427495509664,381.4101988319496,358.4371224600706,{}
179,19,428,0,14.26666666666662,36.2257206845732,135.0966472601978,22.46623825206921,40.43922885372473,40.68808799552842,45.15658002155293,35.94598120331069,134.8722961827318,94.4651221668276,76.40778708018115,88.58350467027083,91.36947394935908,54.06844082378791,44.885060607534,0.8254723789892751,27.962876838256648,13.479742951241583,13.47974295124147,13.465518182260212,62.37475663736621,63.30341306372884,67.39871475620788,400.00000000000017,395.5078993177165,381.9524802392088,359.48789373402366,{}
180,19,429,0,14.299999999999953,22.974850559852527,137.92566493311517,27.569820671823127,45.949701119705175,37.04583338843441,41.35473100773446,36.75976089576421,133.25413324714503,87.30443212743987,75.66595566585772,91.47911254482484,87.36769175629342,52.73687819135535,43.56524720155437,0.8433683668782805,26.38161672641013,18.37988044788216,18.379880447882048,16.050354232151676,57.24362790186092,61.98757496555095,68.9245516795576,400.0000000000002,399.8680172861423,386.0048394490941,363.0317197701196,{}
181,19,430,0,14.333333333333286,18.95555533186064,124.21483924225345,22.98698730161824,41.376577142912566,36.7791796825891,41.3765771429128,32.18178222226552,115.02684770751154,73.70188800773623,64.40186538369699,80.9667682588306,79.98629114161088,48.32720106717318,34.548917367295644,5.96026879151998,26.189059841527296,13.79219238097085,13.79219238097086,13.77828369987742,59.34466762119507,60.067124444409615,73.55835936517798,400.00000000000006,399.99999999999983,386.2087511587464,367.8205294376942,{}
182,19,431,0,14.36666666666662,18.95555533186064,124.21483924225345,22.98698730161824,41.376577142912566,36.7791796825891,41.3765771429128,32.18178222226552,115.02684770751154,73.70188800773623,64.40186538369699,80.9667682588306,79.98629114161088,48.32720106717318,34.548917367295644,5.96026879151998,26.189059841527296,13.79219238097085,13.79219238097086,13.77828369987742,59.34466762119507,60.067124444409615,73.55835936517798,400.00000000000006,399.99999999999983,386.2087511587464,367.8205294376942,{}
183,19,432,0,14.399999999999952,18.1806443661236,127.34564828903125,18.74017926582955,36.3612887322472,36.64426022746016,36.3612887322472,36.644260227460265,109.08386619674172,72.72257746449452,63.58022953487091,79.77717487880773,79.17339895836938,43.3274850732056,29.51939228404717,6.0771358948481975,21.355291794639697,13.635483274592728,13.635483274592728,13.624334900329472,59.170040202972245,58.90752893321644,68.17741637296376,399.9999999999999,399.9741760547199,386.445622949011,368.2702575139616,{}
184,19,433,0,14.433333333333286,13.784910335911464,110.66153438003354,27.569820671823035,37.04583338843464,32.49134525523862,37.04583338843441,37.04583338843464,115.2412641266512,78.24952137662997,71.35722091328535,90.13543694309747,94.30837383861126,55.29141386555739,22.951152925325687,17.734981805933558,28.58461773426928,18.37988044788195,14.530571334225714,16.27445389250363,64.05458134613639,64.6805218804634,68.92455167955765,400.00000000000006,395.2742749550968,386.0048394490941,363.00263884567113,{}
185,19,434,0,14.46666666666662,13.784910335911464,110.66153438003354,27.569820671823035,37.04583338843464,32.49134525523862,37.04583338843441,37.04583338843464,115.2412641266512,78.24952137662997,71.35722091328535,90.13543694309747,94.30837383861126,55.29141386555739,22.951152925325687,17.734981805933558,28.58461773426928,18.37988044788195,14.530571334225714,16.27445389250363,64.05458134613639,64.6805218804634,68.92455167955765,400.00000000000006,395.2742749550968,386.0048394490941,363.00263884567113,{}
186,19,435,0,14.499999999999952,4.646139935246912,116.24638404046154,27.87683961148075,37.16911948197456,37.45837769262288,42.07258651934075,42.07258651934075,111.60411105279938,74.48328932424428,72.16276634012263,87.1856943218138,85.23534928559411,44.199035482975205,25.380841484856774,15.312844135723822,17.421325255961165,13.938419805740368,13.93841980574038,14.047755463581211,63.5179937471496,66.62800339949968,69.69209902870223,400.00000000000006,404.4544205537262,390.3863612668108,371.7202320601175,{}
187,19,436,0,14.533333333333283,9.189940223940932,101.19371971620878,27.56982067182314,37.04583338843448,27.95011202493429,32.49134525523844,41.609224062123495,115.24126412665107,78.24952137663003,73.65265822127253,94.53140321562182,94.50517363648304,52.99686464960132,20.655793571670984,20.02628367234377,26.08531645336712,14.530571334225677,14.530571334225671,13.980365680889577,59.43622632813492,60.11819538573934,68.92455167955762,400.00000000000006,400.00000000000006,386.0048394490941,367.6263263991102,{}
188,19,437,0,14.566666666666618,9.299811099505474,102.40354723585726,27.89943329851665,41.84914994777513,37.19924439802212,37.19924439802213,41.8491499477749,120.89754429357215,79.04839434579702,74.32346193839066,100.05482902801624,100.10702247038876,58.2739784088576,20.69469990068273,24.922368732852192,31.23777525992045,14.704292441876143,13.949716649258267,14.040035998193162,64.87644886897453,65.39838329269924,69.74858324629145,399.99999999999983,400.1351123159626,386.054190286594,362.72243874285977,{}
189,19,438,0,14.599999999999952,9.194794920647212,110.7199926695734,27.58438476194184,41.6312046363255,32.18178222226533,36.77917968258905,41.37657714291276,119.62071278564096,78.15575682550181,73.48161864400629,89.98873940367776,94.13520217001816,50.72856029959439,27.555606991502373,17.740562215481532,23.802795753612145,13.792192380970912,13.792192380971036,13.7778034957513,63.85027791459538,64.74255471241543,68.96096190485437,400.0,400.0,386.1813866671856,363.1943993655672,{}
190,19,439,0,14.633333333333283,22.974850559852552,124.06419302320371,27.569820671823148,41.60922406212362,36.7597608957639,41.3547310077345,36.75976089576413,128.74119002469018,87.30443212743982,75.7388046535749,94.7256675281626,89.09220271921902,55.18709044316961,36.82616810290915,3.859966628350321,28.48029431188138,18.379880447882066,18.94554711821066,18.569569185036244,64.05458134613627,60.09029129539829,68.92455167955765,399.99999999999983,400.00000000000006,386.0868779550926,363.0317197701197,{}
191,19,440,0,14.666666666666618,27.270966549185527,113.71989417787456,27.27096654918541,36.64426022746013,31.816127640716218,40.906449823778296,36.64426022746013,127.5887518796134,91.01677992839862,77.39442512432868,93.69885068385396,93.07969528285923,56.85910432467347,34.1567396215371,6.088361443113854,30.235422081904403,18.18064436612357,18.740179265829536,18.26508432934156,58.81976309448976,59.43891849548436,68.17741637296382,400.0,400.0,386.3386927801269,368.1580484140037,{}
192,19,441,0,14.699999999999951,27.63286793243776,113.66120760749575,22.71407752217737,40.88533953991904,32.12255648865681,36.34252403548357,36.34252403548344,127.27992997822234,86.43295968585565,72.71745228807606,88.63054440884753,88.57806924933959,52.29149644962513,38.67419255732421,1.4430668864673637,25.607877839856545,18.171262017741668,18.171262017741668,18.248236718873045,63.86226912111749,63.59989332357805,63.5994170620964,400.00000000000017,399.8709968683192,386.3797450241034,358.9974144159434,{}
193,19,442,0,14.733333333333285,9.076270407793093,127.39152581522109,27.228811223379523,41.09456208022343,36.30508163117261,40.84321683506916,41.09456208022319,118.34008774550956,77.2816577679669,72.74764536267526,85.0936474757824,87.59410359995593,45.32076725064633,31.95895483709376,8.126482403564182,19.06597794682364,18.15254081558642,18.71121078899962,18.362724661899847,62.82396011986134,64.777441466872,58.99575765065558,400.0000000000003,395.4692561406664,386.4082888398348,368.2886151574278,{}
194,19,443,0,14.766666666666618,10.140402531267656,131.59101554722747,27.20955525495117,36.27940700660156,36.279407006601566,36.27940700660156,40.81433288242664,113.46380916273358,77.2270048802641,72.5781699488706,85.07167317424307,82.72831851237129,43.14142262333553,29.55523155001174,5.726737516372054,16.916914272501117,18.13970350330066,13.604777627475476,15.850556252211163,62.71764948964619,64.56073742594992,63.48896226155273,400.00000000000017,395.4756987194472,386.1350244013212,368.0281647878607,{}
195,19,444,0,14.799999999999953,0.0,128.68177035778106,27.55709599869601,37.028735122682136,36.74279466492786,36.74279466492786,46.15756454436364,110.61045926171852,73.628975981966,73.61006171193628,85.34386538546494,84.82236299997487,39.00837843466422,25.42324129264523,10.74294914109737,12.20315582046976,18.37139733246405,18.936802922984928,18.539409804175307,64.82274651642717,64.04049293819185,59.70704133050796,400.00000000000006,400.00000000000006,390.8242224339909,372.4741345158377,{}
196,19,445,0,14.833333333333284,4.594970111970544,133.57065182429645,27.569820671823106,32.16479078379353,37.04583338843444,41.60922406212335,41.60922406212346,105.78415606719294,73.66297465338275,71.34917788524888,80.82194225684805,84.64798914788389,41.22895356719721,23.048634202205903,12.942593103814488,14.420238799662911,13.784910335911617,13.784910335911492,13.773768807729311,64.80531837506328,64.11926858770516,64.32958156758706,400.0,400.0,390.81564693153433,372.4477677036856,{}
197,19,446,0,14.866666666666616,10.158044277157815,131.81995076459225,22.71407752217726,31.7997085310481,31.7997085310481,36.34252403548358,40.88533953991894,104.58346683338488,72.82687268986736,68.17846184488769,79.90458336747315,79.14805939827409,38.674027046124365,25.056595600541414,5.986974170040753,16.526135671986253,18.171262017741785,18.17126201774168,15.978307970152514,59.34800103199541,63.57410044614187,63.76145405608164,400.00000000000034,400.1805345202979,386.56664053412896,368.4164557890557,{}
198,19,447,0,14.89999999999995,13.622298275595051,122.93657739605298,27.620401842444974,36.32612873492011,31.78536264305517,36.60882660735004,40.86689482678505,118.14720854340138,81.85982487053742,75.05270085997165,89.13497150622084,92.51049705438538,49.99997218218766,27.320659905457205,8.122358350270929,23.41770849039176,18.722058217982408,13.622298275594938,15.98100376709158,63.39658920146599,64.24047058850704,63.57072528611012,400.0,395.4639712759172,386.3922476864216,368.25025108298354,{}
199,19,448,0,14.933333333333284,32.47634908414428,124.09195561193324,22.96424666558008,36.74279466492796,37.02873512268236,36.74279466492807,36.74279466492796,128.681770357781,91.9717362219412,75.81232991028173,94.42461457225056,93.911730730949,57.45648716896381,34.51168374231622,1.4441729215595842,30.67855187574696,18.936802922984945,18.37139733246392,16.06136239865316,64.67735177676161,64.19146182184431,64.29989066362407,400.0,400.0000000000002,390.6352684873152,363.0966210657987,{}
200,19,449,0,14.966666666666615,27.620401842445,122.93657739605288,27.244596551189897,36.326128734920005,36.326128734920005,41.118385784032654,36.32612873492012,127.22250984125913,90.92877012867486,77.22541342260172,88.414100473698,93.2651396147328,54.53506905324548,36.38279355776058,3.9903709063351016,27.932596344345257,18.16306436746001,18.722058217982507,16.03972619213107,64.47187503568762,62.75053856628824,59.02995919424524,399.99999999999983,395.69852108344907,381.8565607524516,359.18005133686165,{}
201,19,450,0,14.99999999999995,27.920652083124885,124.2729713110316,27.54076156422551,36.72101541896743,36.721015418967646,37.00678638587001,37.00678638587027,128.85100304222743,92.26040941047152,78.26517288744674,90.26565805063753,93.7767170285142,55.128866339199135,36.78751346969364,3.642068641230367,28.455298880404143,18.36050770948372,18.360507709483823,18.341352869505386,64.16853311059833,64.64016789867128,59.671650055822205,400.0,400.0,386.007569304937,363.0845527078568,{}
202,19,451,0,15.033333333333283,27.890012588034303,130.48499361385018,23.241677156695143,41.83501888205101,41.83501888205123,41.83501888205146,42.09246758202488,134.88184741338443,93.08284447296911,79.1509916002085,91.3765010750833,94.787050928589,51.079542805968345,41.79235320488283,0.8395199639398925,28.91096875818039,13.945006294017151,18.59334172535609,16.357521797391314,65.03656220646894,65.40385219069265,65.07669603874626,400.0000000000002,400.00000000000006,390.90262416618987,367.4831822873133,{}
203,19,452,0,15.066666666666617,27.557095998696,128.68177035778092,27.55709599869599,36.74279466492787,36.74279466492799,45.928493331159984,37.02873512268226,128.68177035778092,91.9717362219412,78.20698747528024,90.33618984838496,89.01779828609108,52.76203032300589,38.99802241265661,1.4502307185233576,26.077785102175312,13.778547999348111,18.93680292298489,16.163480553724412,63.96835860250508,64.7066578773896,59.70704133050799,400.0,399.8153825767876,386.2365105174428,363.0966210657987,{}
204,19,453,0,15.09999999999995,27.85993032220805,134.736363377613,28.244223376774208,37.14657376294378,37.14657376294378,41.78989548331193,37.146573762943895,130.0958982062474,92.9824449890156,79.0586412839051,90.92139172663848,90.2096267000744,53.4482811614264,39.52932064195238,1.489434222254317,26.16395514313968,18.573286881472004,18.57328688147189,16.33105310949611,65.35057410563536,64.74425574967347,65.00650408515196,400.00000000000006,399.7573715025281,390.7293840452671,371.9297799560617,{}
205,19,454,0,15.133333333333283,23.429842265313315,142.7402153156416,27.56982067182312,36.75976089576408,41.354731007734486,41.60922406212342,36.75976089576407,124.14925590122834,87.42526876953046,75.84753257848502,85.64730227446626,89.00338778678861,50.59634518377175,36.822970241200665,0.8457335491051481,23.80135845339009,13.784910335911617,13.784910335911494,16.06893743299929,64.73217736167328,64.19520367970176,64.49347885632125,400.00000000000017,404.59227168562296,395.40779101192095,372.3060178345349,{}
206,19,455,0,15.166666666666616,22.71407752217725,140.90053280403257,22.71407752217725,36.62534949972557,40.885339539919,45.42815504435429,40.885339539919,122.74011600270534,86.3134945842735,74.87359665089298,89.6347727464165,87.55272620853077,47.75360584971395,34.1402246404607,1.3079523122617047,25.91881010624502,13.628446513306216,18.171262017741626,15.989049694789514,63.36895488385744,64.32989943980465,63.59941706209637,400.00000000000017,395.4598522937769,386.2461928632494,368.0802070523233,{}
207,19,456,0,15.19999999999995,18.730508162480994,136.58698374089147,27.25689302661267,36.34252403548345,40.885339539918895,45.65473078927561,36.62534949972539,118.46213505162964,82.27388800832993,72.8810557914303,84.29810286528141,88.54255801273666,49.93950708303328,31.940868166609,8.274001173520332,23.34450331100368,13.628446513306336,13.62844651330622,15.97043408330444,59.85219030715336,58.1866446163798,63.59941706209623,400.00000000000017,395.329367632458,390.7877659731806,367.9680558592714,{}
208,19,457,0,15.233333333333285,18.37988044788217,137.92566493311537,22.97485055985254,37.0458333884344,41.60922406212327,41.60922406212327,41.35473100773461,119.55755506593408,82.70946201546933,73.42358578337962,90.71045985098635,88.25953049600139,48.18422817034286,30.06299517337948,5.710143922784141,21.58903729710164,13.784910335911572,14.530571334225634,14.001585783265114,63.43735234764313,60.93427555957305,59.91108041158489,400.00000000000017,400.00000000000017,386.22357007407015,367.7124652669456,{}
209,19,458,0,15.266666666666616,18.37988044788204,138.15509508603608,22.974850559852648,37.04583338843459,41.35473100773447,41.609224062123445,41.35473100773458,119.5575550659342,82.70946201546926,73.4011366034706,86.48614035877688,87.84155907446598,45.87571037716919,32.37365470934333,3.2842838110927914,24.241142415208746,13.784910335911672,14.53057133422579,14.023370558475564,58.230873285565735,61.56728858572353,64.49347885632125,400.0,400.1847026715405,386.2235700740701,367.855985222946,{}
210,19,459,0,15.29999999999995,18.37988044788205,138.15509508603608,22.97485055985264,37.0458333884346,41.60922406212322,41.35473100773446,41.60922406212333,119.82216082316988,82.83700173967097,73.6617940487954,86.74679780410167,88.10221651979077,45.87571037716919,32.37365470934333,7.871854848809562,19.653571377491744,14.530571334225796,14.53057133422562,11.72958503961695,63.33975921393244,61.30663114039885,59.73461145561685,400.0,395.407791011921,386.4148578057906,372.44776770368543,{}
211,19,460,0,15.333333333333282,22.71407752217725,136.5869837408916,22.714077522177263,36.62534949972553,36.6253494997253,40.88533953991884,36.62534949972542,118.46213505162986,81.89677118107406,70.54832293148809,85.0409603806969,87.82144828950447,49.91762726849674,31.97561095128617,8.026691510331034,23.5292231528332,14.365643983942803,13.628446513306235,13.718822417983915,58.70501830104877,59.701796985338206,63.599417062096094,400.00000000000017,395.4598522937768,386.3797450241034,368.0802070523233,{}
212,19,461,0,15.366666666666616,23.140039959990883,131.68414137810126,22.69067601948301,36.30508163117256,41.09456208022318,45.6076943509909,36.30508163117254,118.0787548809197,81.8123958631866,70.34167151164047,85.88781653322644,81.96817519899355,47.69779758752418,34.11147323305454,0.9534262704891034,21.69044765362696,13.61440561168966,13.614405611689774,13.731986701350138,61.23115381585569,65.8658648529555,59.17004387275479,400.0000000000001,395.75557347290686,386.4082888398349,363.7592088220336,{}
213,19,462,0,15.399999999999949,22.690676019482865,140.97467020474213,22.69067601948285,36.58761571044159,41.094562080223206,45.60769435099088,36.30508163117259,118.07875488091976,81.6864336701383,70.1744103653142,86.4885947550257,85.86412836690283,49.9573110498344,31.847785794269384,3.1223319406146857,24.041955942732784,13.614405611689628,14.35084357410578,13.89437713573534,56.51420812512515,62.13440561823154,63.53389285455194,400.0000000000001,399.768242810557,390.7015515799782,372.3760474446714,{}
214,19,463,0,15.433333333333282,23.14003995999086,136.44626305060987,27.228811223379463,40.843216835069306,41.094562080223206,45.381352038965936,31.76694642727597,122.61366124562608,81.8123958631865,70.33052696234495,86.4885947550257,86.17636156096432,54.64080896075632,36.21905051113004,3.2784485376453176,24.198072539763416,13.614405611689628,14.35084357410578,11.630686478789698,61.041589439016434,66.66178693212282,58.99575765065532,400.0000000000001,400.0000000000001,386.7013150566552,368.2886151574278,{}
215,19,464,0,15.466666666666615,23.419028372550176,137.8620062309786,27.55709599869592,41.335643998044056,41.335643998043935,41.33564399804393,36.74279466492789,128.681770357781,87.38491819992085,75.78754637626525,91.38224023138856,87.97006790069486,52.99530151108536,38.97340583964126,1.2262494313430352,26.550965948209864,13.778547999347904,18.936802922984807,16.314448956128786,63.17850331049908,66.27078448519023,59.707041330508105,400.0,400.0,386.2365105174428,367.88694488776446,{}
216,19,465,0,15.499999999999948,22.71407752217732,136.58698374089138,27.25689302661269,41.13694400416484,36.62534949972563,40.88533953991904,36.6253494997254,127.522908112163,86.43295968585569,75.08129531003124,89.29916623545591,92.63489749103644,54.46538246816544,36.50164939508068,3.5818097908281743,23.459487026950683,18.171262017741835,18.17126201774172,18.25082469754033,59.33226905417632,59.05884845945661,54.70274255066333,400.0000000000002,400.0,386.5666405341289,368.22034800811576,{}
217,19,466,0,15.533333333333282,22.43653128423521,130.20922581286564,26.923837541082097,36.17781963825344,40.63428638852364,44.87306256847043,31.73004683477353,117.01463097007208,80.89606398886168,69.68829283055777,84.11442700980865,82.36987124859684,51.652270191568846,33.72360483019281,1.274867671654761,21.135964030065225,14.190108330361124,14.190108330361124,13.553856298645089,58.24132310506855,59.36857452000538,62.82228759585843,400.00000000000017,395.7997444472464,386.8464016046067,368.94281658938985,{}
218,19,467,0,15.566666666666617,22.43653128423521,130.20922581286564,26.923837541082097,36.17781963825344,40.63428638852364,44.87306256847043,31.73004683477353,117.01463097007208,80.89606398886168,69.68829283055777,84.11442700980865,82.36987124859684,51.652270191568846,33.72360483019281,1.274867671654761,21.135964030065225,14.190108330361124,14.190108330361124,13.553856298645089,58.24132310506855,59.36857452000538,62.82228759585843,400.00000000000017,395.7997444472464,386.8464016046067,368.94281658938985,{}
219,19,468,0,15.599999999999948,23.1713778545396,132.09717797716277,27.265686423953056,36.354248565270666,41.15021527076316,40.898529635929805,36.637165272365614,123.03174183610344,86.81836795251958,75.17527800183177,88.86671826704469,93.2737765663478,54.57765491393036,31.870555749838218,3.815867551835595,23.43265144507496,22.72140535329413,18.17712428263533,18.246296251382887,59.87149933443459,63.06930383209965,59.07565391856479,399.9999999999998,399.9999999999998,386.3708004713763,363.6560749339197,{}
220,19,469,0,15.63333333333328,23.140039959990897,131.68414137810143,27.22881122337951,36.305081631172754,41.09456208022336,45.381352038965765,36.587615710441646,122.86534880691023,86.7009513328924,75.09679460184793,89.1556443236658,88.24342888370052,52.237748870953055,34.10075953517298,5.956230225655645,25.783501111959826,13.614405611689644,18.152540815586256,18.23089386636491,59.53547239067541,63.640441870519226,59.17004387275456,400.0,404.5309095604508,391.2283167532472,373.1219329267512,{}
221,19,470,0,15.666666666666616,23.140039959990897,131.68414137810143,27.22881122337951,36.305081631172754,41.09456208022336,45.381352038965765,36.587615710441646,122.86534880691023,86.7009513328924,75.09679460184793,89.1556443236658,88.24342888370052,52.237748870953055,34.10075953517298,5.956230225655645,25.783501111959826,13.614405611689644,18.152540815586256,18.23089386636491,59.53547239067541,63.640441870519226,59.17004387275456,400.0,404.5309095604508,391.2283167532472,373.1219329267512,{}
222,19,471,0,15.699999999999948,22.95063463685476,138.0094770270351,27.54076156422571,41.56536716027927,37.00678638587024,45.90126927370928,37.00678638587024,128.85100304222777,87.33312089805372,75.86252526094802,90.19423658228573,93.63384729940684,55.03377147393712,36.88027046690922,3.6307002014056025,23.695096051278483,13.77038078211285,18.925578156542223,18.53567997559685,60.00209806533417,59.619919096765216,64.26177698319331,400.00000000000006,404.86897056818754,391.1316078831749,372.81891393309473,{}
223,19,472,0,15.73333333333328,22.67462937912585,131.59101554722736,27.58487719514924,36.27940700660157,31.74448113077607,41.06550037850212,36.56174128033113,122.77845954618716,86.63963720618001,75.19955509061936,89.85810544901267,87.47460132569665,52.1987403006201,34.08410896341866,5.720409895958369,25.741844531812603,13.604777627475627,18.697978390373823,15.969477626216984,58.63420143357325,60.54100473222604,63.488962261552594,400.00000000000006,395.8135678103077,386.7736163884377,368.6981195258559,{}
224,19,473,0,15.766666666666614,27.497344677170023,132.98282449003074,23.36824951347949,36.66312623622669,36.94844669685845,41.24601701575526,36.94844669685834,124.0770600415884,87.55600540474846,73.63832009636576,89.98464277863934,89.15933984191201,52.752831262092855,34.43643060182535,6.030035973183999,25.83730645463595,13.748672338585008,18.895742754664592,18.409580024091383,60.00751030267827,59.79452889965194,59.577580133868366,400.0000000000002,404.5682950775928,395.4320426998856,372.5977576418538,{}
225,19,474,0,15.799999999999947,27.557095998695967,133.27179419226275,22.964246665579942,36.7427946649278,37.02873512268217,41.59001959280277,37.02873512268229,124.09195561193285,87.38491819992086,73.61930391516512,90.35337479789894,88.78869939048013,52.65530544796832,34.515678690773484,1.3392560690617756,25.97626375536902,18.371397332463907,18.93680292298485,18.457865823110524,59.56374517055497,60.35934283534425,68.89273999673992,400.0,400.0000000000002,386.4821993852512,372.7288951346444,{}
226,19,475,0,15.83333333333328,22.934030538459474,133.09643649237591,27.52083664615117,36.98001308168178,36.694448861534894,41.535295859111095,36.980013081682046,124.1830635295615,87.26993799459558,75.80834915378477,90.16389961262234,89.14244698382049,52.79805817793636,34.4671245151128,1.421751631981124,26.074648862254094,18.91188606624188,18.347224430767444,18.42755756014241,59.90681633784152,59.63074805978681,64.2152855076864,400.0,399.7106119519906,385.9736699552845,372.2384621654764,{}
227,19,476,0,15.866666666666614,17.73840280633974,128.67985626376412,26.607604209509542,40.157017286705965,35.47680561267924,35.75289386696323,35.75289386696333,120.06225851353422,79.94590107886526,71.06871663478057,86.64728382365922,86.34821883399502,50.88182983243746,33.48168497923962,5.750204119455134,24.944738910639217,13.303802104754835,17.738402806339625,17.726397569195342,58.61673797421065,57.09422529955589,57.64980912060412,399.9999999999999,395.5753312259663,382.01968062066425,360.18677554060235,{}
228,19,477,0,15.899999999999949,22.95063463685466,138.0094770270353,22.95063463685477,36.72101541896741,41.56536716027934,41.31114234633837,42.31887927151366,124.27297131103148,87.6942518151685,76.11651390713291,91.21578694574237,93.10319607556858,50.42078675392793,32.08595520704489,3.61304033423869,24.13187387420612,18.36050770948381,13.770380782112742,13.751123660162191,58.83323887543895,61.071166843661445,64.26177698319313,400.0,404.58265090292826,390.5925618609377,367.6688803575241,{}
229,19,478,0,15.93333333333328,18.73655084682117,131.86247744594652,27.265686423953017,40.89852963592947,36.35424856527069,40.89852963592947,36.35424856527069,122.77971342155088,81.92319205190404,72.74041622414961,89.07262276759275,88.19124449133176,52.30846527446181,34.14673109696173,5.969334689222478,25.81370012140269,18.73655084682128,18.17712428263524,18.25521369164892,59.452970998699016,63.13873469942689,63.6199349892236,399.99999999999983,400.00000000000006,386.3708004713763,368.1148167723084,{}
230,19,479,0,15.966666666666612,22.982433769802626,133.37734209227452,27.95933739800309,36.77189403168421,36.77189403168398,41.62295783945954,36.77189403168421,124.19023331129632,87.4541248513705,75.9662123447888,90.06468690297811,89.23693555581167,52.90933207775004,34.53859250192784,1.455240271631169,25.913957497580785,18.38594701584198,18.385947015842103,18.370739575822427,60.18553343590645,64.00387029541616,64.35081455544714,400.00000000000017,404.5952864701757,390.8095117510691,367.8338345362726,"{'neutral': (['m1', 'm3', 'm12', 'e1', 'e2'], 4.1666341323468625, 60)}"
231,19,480,0,15.999999999999948,27.578920523763063,137.97118946316428,23.43757565241537,36.77189403168424,41.622957839459445,41.622957839459445,41.36838078564471,128.78368307467213,92.0445755175889,78.25114183441792,94.36854119732789,94.29067936465684,52.98497713265806,34.45386095694528,1.674029402427891,26.04478302847042,13.789460261881649,14.535367377309145,16.15633027924548,60.88795314877086,58.86354549932332,64.35081455544707,400.0,400.1320262768235,386.351049224016,367.83383453627255,"{'neutral': (['m1', 'm3', 'm12', 'e1', 'e2'], 4.1666341323468625, 60)}"
232,19,481,0,16.03333333333328,27.647135581733423,132.1227592015533,22.725805457654552,36.361288732247125,36.64426022745998,40.90644982377796,36.36128873224724,122.80349027619464,86.47758752395808,72.7575985746347,84.14000328812574,88.6295828734934,50.045607731010136,36.41841322483515,0.713050875323006,23.4250417189478,18.180644366123627,18.180644366123616,18.169592674899604,60.10754786056941,58.31171602642246,63.63225528143261,399.9999999999999,400.0774618346351,386.3654280967768,368.1861038949673,"{'neutral': (['m1', 'm3', 'm12', 'e1', 'e2'], 4.1666341323468625, 60)}"
233,19,482,0,16.066666666666617,27.647135581733423,132.1227592015533,22.725805457654552,36.361288732247125,36.64426022745998,40.90644982377796,36.36128873224724,122.80349027619464,86.47758752395808,72.7575985746347,84.14000328812574,88.6295828734934,50.045607731010136,36.41841322483515,0.713050875323006,23.4250417189478,18.180644366123627,18.180644366123616,18.169592674899604,60.10754786056941,58.31171602642246,63.63225528143261,399.9999999999999,400.0774618346351,386.3654280967768,368.1861038949673,"{'neutral': (['m1', 'm3', 'm12', 'e1', 'e2'], 4.1666341323468625, 60)}"
234,19,483,0,16.09999999999995,22.97485055985257,138.15509508603645,23.429842265313283,36.75976089576418,41.60922406212341,41.35473100773472,36.75976089576407,119.55755506593415,82.83700173967095,71.350377991973,85.64730227446626,89.19132857547868,50.69031557811672,32.13787486599881,3.839361826096706,23.895328847735072,13.784910335911608,18.945547118210648,18.45847031777293,64.73217736167328,64.19520367970176,59.91108041158501,400.0,404.59227168562273,395.2742749550968,372.3060178345349,"{'neutral': (['m1', 'm3', 'm12', 'e1', 'e2'], 4.1666341323468625, 60)}"
235,19,484,0,16.133333333333287,13.789460261881594,142.56520697954244,27.57892052376297,37.05806094706976,41.368380785644575,45.96486753960518,36.77189403168419,115.00406184158614,78.14027481732876,71.18592548236711,85.67557151056451,84.44012439787298,48.316725124609775,29.94616370980544,6.042947833817152,21.51289428838936,13.789460261881594,18.385947015842103,16.074241237953856,60.34890570038817,59.62375196033008,59.75432780148678,399.9999999999999,400.1320262768237,386.351049224016,367.8338345362723,"{'neutral': (['m1', 'm3', 'm12', 'e1', 'e2'], 4.1666341323468625, 60)}"
