,frame_seq,video_id,gap,time_seconds,m1,m3,m4,m5,m6,m7,m8,m9,m10,m11,m12,m13,m14,m15,m16,m17,e1,e2,e3,b1,b2,b3,m_0_16,m_1_15,m_2_14,m_3_13,label_measures
0,80,49,1,3.200000000000002,10.852109973994809,170.38158264264584,20.874450322928503,31.63906560796737,45.13747259602432,48.1667450684314,42.44826086639452,105.71759931648404,74.0810526070318,68.3606439095771,63.84993020450827,58.54206450845754,19.024712760387047,44.00862272165182,9.80885803537592,1.837338125556016,15.347201105587883,17.158692468227116,15.31115104630021,67.85513289090568,72.5408311793608,49.13501768797315,399.99999999999983,402.3338362915974,390.7513136713364,380.1182922329477,{}
1,81,49,0,3.240000000000002,7.247851726705599,160.01181911826072,19.44802698210322,35.801746514888286,45.49434441005758,48.72799226609205,39.43257660498892,101.31449402262734,65.55200081278066,62.0470936482177,58.37223461044937,52.26036378973959,16.014648859328076,45.89705524539295,8.200738063230688,2.030843152450984,12.965351321402244,16.206689151752826,16.150038402824862,66.26351085997322,73.43915666530017,49.05034192618528,399.99999999999983,399.7503981890714,393.2852916627521,376.8882897886867,{}
2,82,49,0,3.280000000000002,12.759163971912498,161.65886520702765,15.472759044344382,31.09986078224665,43.43410442108104,49.609439431702896,34.59814102262843,93.6581327080598,62.5834372433264,56.223911728806456,43.95842870782678,47.33546811654196,11.117669064646748,47.999492719379305,10.946919881060012,3.6995656443790494,18.82342379105401,19.57166410683933,17.62511017245197,51.49036491715231,57.8839732358997,46.82906635402973,400.0,399.1851887770281,386.16237385344704,364.29065996995513,{}
3,83,49,0,3.320000000000002,9.593677930575996,150.16481204905045,15.16893669935515,30.93868169218645,39.55574744592143,45.90953308187392,36.907615911721656,92.26903977930384,61.35455190967356,56.62195788522456,47.04673997387499,49.15781163936947,11.196219368782636,44.16286528797639,9.952194994473643,4.090201351895416,21.2365113790974,19.187355861151808,18.92424957282469,54.03966486582516,59.20425090462391,49.38647983247942,400.00000000000017,399.0324238550306,389.5789318386401,364.2693106684829,{}
4,84,49,0,3.360000000000002,9.227220981846829,145.73297797394343,15.683259947556394,28.35692468646728,43.17007269499856,43.49753685180426,37.41799603143927,90.51251092370435,62.20299857238364,57.6181069388233,47.28763589653363,47.80225345768076,10.149401900404769,42.89432671710949,9.196406416798707,5.251005114669397,15.683259947556394,15.683259947556378,15.64818584081172,55.50245696521779,59.33349880931439,49.59482257077132,400.0000000000001,398.4716262993484,388.0068061486688,362.8070072310483,{}
5,85,49,0,3.400000000000002,6.1514806545645415,142.68252963482576,12.68160224635652,25.363204492713017,37.036818050774826,43.17007269499858,40.455047781835205,84.45693953072312,59.16304646924485,56.12696409757973,45.07165298745042,49.98082959929104,7.073852913124711,36.91546192368355,5.585637955991956,5.546983022040308,21.74876842590214,22.39172757350629,22.24591448908882,54.52278433859226,56.2236014324584,50.06942498801684,400.00000000000017,398.9580232137753,388.8835487315878,366.258558934998,{}
6,86,49,0,3.440000000000002,3.0757403272822965,139.2600662422081,15.683259947556458,28.35692468646725,37.41799603143931,40.1027474787944,37.41799603143931,84.45693953072316,56.126994047159016,54.60797613573936,45.8413144960108,52.69792136507226,11.852134730806142,35.16459808561524,3.918061068035172,0.6856606869062034,18.70899801571971,19.45268985088732,20.71674789723568,57.693449226817165,59.65247976083469,53.09551027289755,400.0,398.4716262993485,388.0068061486687,362.8070072310482,{}
7,87,49,0,3.480000000000002,6.142951168339503,139.0669717852139,15.661513939205363,28.31760569774278,36.98546374323151,40.04714203168143,40.04714203168143,89.91610345414985,61.73589518843138,58.56282405389391,47.764410642980806,55.76323539180533,11.88396819825357,38.10868648189978,6.7418665740092365,3.8280089869375615,18.428853505018623,19.425717247145407,19.197179397178843,58.84849636635181,61.81948841591532,53.02188939218381,400.00000000000006,398.9136190601898,388.3443327186801,359.66441381659894,{}
8,88,49,0,3.5200000000000022,6.214822548714489,143.78284437565287,18.90164486588638,31.22909681095884,37.80328973177275,40.87161405235199,37.41818675537802,93.68729043287664,62.458193621917786,59.33543663420812,49.96566458495624,54.16657478059199,14.703185684724644,41.55416467710529,7.792010846743437,0.5904505113682035,21.97271584033528,15.84475072470582,17.568322592347272,59.37415470052741,62.37480484026713,50.10550124767381,400.00000000000006,402.10670330759257,392.0021184034984,366.542836755577,{}
9,89,49,0,3.5600000000000023,12.379318667820062,140.12437285605557,18.825113935809288,31.10265322145277,37.13795600346004,43.767500882423626,37.650227871618455,99.80525784828892,68.71637024072339,62.58525400323629,49.181168106480186,56.08032996510474,14.981037178727432,47.11141954889285,9.560267146950991,3.745259294681887,18.56897800173013,19.57342143567635,19.31765320414854,54.99617595874929,60.02270817003284,50.380176923847536,400.0,398.3804387264671,384.718573407022,362.3991360258432,{}
10,90,49,0,3.6000000000000023,18.62032295355261,149.76857687014655,18.877167127320373,31.64846336318821,43.55811446862816,46.65413893696281,34.278031546434605,103.16136923913224,71.64725619597525,62.263413585031685,45.25134398080854,53.681262140395575,15.27090140647556,53.6146600781866,15.46119301278668,0.9419434512404904,18.62032295355284,19.62754376704661,19.37168552248238,61.29292639284444,63.23390077721899,47.47269504478237,400.00000000000006,398.98746221393054,391.4944734107109,365.68647726006463,{}
11,91,49,0,3.6400000000000015,12.241950634797034,144.36291413530444,18.362925952195543,37.23243930955189,39.90387701137042,46.00921803557839,34.217292245753534,101.73532377449212,64.56105788730115,58.44459715215294,43.75029100509346,50.9311303605806,13.158350045136672,54.38458579993596,11.671309742637732,4.881796782544939,15.302438293496287,16.481230432296616,15.98568325186102,57.81847491952186,61.28171351876233,46.81645887845216,400.0,398.2163722453213,388.3444095135417,366.0450713545627,{}
12,92,49,0,3.6800000000000015,9.101362019613056,149.42750082485222,18.202724039226432,30.938681692186613,39.55574744592149,45.60782422923703,36.90761591172151,94.827088504393,63.997814044583095,59.390619567501176,44.68077876597556,52.4370524824933,11.653752903246868,46.23783620782012,9.54543910000382,3.5880019312071454,18.202724039226432,16.337444815003764,17.417766787342316,56.36354516192739,61.95347808979199,49.38647983247938,400.00000000000006,395.5807418616324,388.33663005446925,363.1685481778978,{}
13,93,49,0,3.7200000000000015,12.445051347549212,146.75797450031857,15.556314184436504,31.26780453533319,40.56590433890664,46.77253633794395,37.85014601225485,96.89973037625109,65.63216144457861,59.39381079840837,43.82437023806449,52.57365535895861,10.356893188764502,48.58873596648016,11.136339524701611,5.095630421188957,18.667577021323662,19.67735392800164,19.369241448037428,56.54883167223784,61.79060828141508,50.64768954900062,400.0,398.65464356399787,391.6979826053576,365.9273663409604,{}
14,94,49,0,3.7600000000000025,9.881816123532024,150.1255704693842,19.0080528362956,31.404902929047708,43.748664917072,46.87356955400568,34.51569985921528,93.95523512235248,62.5761665889007,57.99885710600529,45.27486191759374,50.054724873420696,13.154182854436044,46.28819286422902,10.400981791879644,4.2636377565977455,15.624523184668671,15.933949721841644,14.36826804521604,60.09243708065748,68.14172629827021,56.59443001477245,399.9999999999998,398.63055170562114,388.74617509134913,366.26761836620994,{}
15,95,49,0,3.8000000000000025,18.128748700639807,146.5228279127156,14.90173963749263,29.95212597902549,38.85898275457792,44.804453704754565,33.3213028124363,96.11333268440148,66.17446311145791,57.1146929480426,39.523182832275324,46.70753709477765,9.8346237655079,52.99615567159526,17.388353568498587,4.700303752716764,23.84278341998805,24.57657861233414,24.41572322629349,59.30324302543727,62.62762288983441,51.44878213471628,400.0,399.2442758308648,392.3433068319258,368.0458191263773,{}
16,96,49,0,3.8400000000000025,6.154392425938443,154.35137679110858,18.46317727781558,33.988743092966914,43.190507024381496,46.15794319453899,34.404099561521114,92.77631760637598,58.78975110158253,55.72739956488272,42.82575557439509,45.98376992430531,10.109497156725295,48.37153687179864,12.535776474339627,7.663961654051036,12.308784851877013,12.687605016822992,12.555032659400013,58.53880258370532,64.23863336159263,55.73039370810925,400.00000000000006,399.2891831843349,395.3328957714245,373.3692917748869,{}
17,97,49,0,3.8800000000000026,3.074195710681506,157.2654686930251,15.37097855340744,30.895284527332024,40.082608142276754,46.52102269161851,37.39920495947345,86.57013722517061,55.67605230046163,54.14322139938406,42.5192529633581,45.88408593168128,6.882612889752181,42.36630601025252,9.635658045653145,7.494400702174744,9.222587132044527,9.222587132044316,9.329764139441863,55.67269093044001,60.8728873360306,58.73242658586414,400.0,395.843734643293,389.1013773639323,369.9395713812125,{}
18,98,49,0,3.9200000000000026,3.139114059064162,157.73852927053554,15.69557029532104,32.01280768512348,47.1912320154293,47.19123201542943,35.79140706728201,86.19712266174615,54.18951050335036,52.59921063746992,41.52051419568341,47.620684527750655,9.07154362284848,41.54019216449626,6.985678928657421,6.828255178152517,12.942898836383176,14.038544850385696,11.531289724488488,56.94804174516946,58.95519456410773,57.2834561304241,400.0000000000001,399.1121513190764,392.0877866240952,372.6566040062268,{}
19,99,49,0,3.960000000000002,5.971978776744908,150.04410979564946,14.929946941862214,30.008821959129893,41.91035823769766,44.88926345807938,36.32612873492002,87.05580241059133,57.04724716432503,54.07851361203291,43.62282365729857,45.05904480492677,8.071562849671295,42.7132169304673,7.784318620145768,6.080002858293369,17.91593633023467,18.16306436746,19.618780876603296,54.940246300609886,59.15316166698653,51.111905265305296,400.00000000000006,399.330730150275,392.8023359380866,368.74248815258704,{}
20,100,49,0,4.000000000000003,6.165348509425875,160.5656095217701,18.75117544968271,30.98049284029656,43.15743956598116,49.322788075406926,34.04925004169313,89.87462643354607,58.89440894214432,55.80600464942575,43.6322570977851,47.47761545139849,11.507089947622148,44.29891470180348,8.492638172930356,5.864654574480824,9.248022764138764,9.748271929255084,11.004681318506982,57.19729008389896,63.12957658922244,59.29642322642975,400.0,399.3818351037576,389.4065550380608,373.6272412930321,{}
21,101,49,0,4.040000000000003,4.2678959977632,151.01357615177963,15.388117858282763,27.3278683061202,42.35765834416163,45.36835676980934,33.33333333333334,78.69611378096043,51.3922733095147,49.99793869949895,39.707027366722855,45.98751001834341,9.515309559533875,35.84793561693164,4.048262913996496,4.483356591669008,9.053574604251915,9.053574604251814,9.146425789333192,53.23276560741186,58.79439783505211,57.65609998265127,400.0,396.73071990529735,390.2500249419762,371.98086403177865,{}
22,102,49,0,4.080000000000003,4.369302074754149,157.84009252939703,12.358252504444591,31.0497251410182,43.36408492190785,46.446318154520775,37.20326659021624,83.93155204657205,52.88480207863198,51.18787675994622,42.96821009605833,47.64290203760595,8.102799365349142,38.60516428394726,5.648586096036752,3.311240125262884,15.44781563055559,15.753742668517312,15.660218004184458,52.3565497453331,60.06979144888652,55.95436803104792,399.9999999999999,400.2743361834919,397.19815750756845,375.6710576910125,{}
23,103,49,0,4.120000000000003,3.093256126623935,161.11678183933657,15.466280633119675,28.01062555748301,43.4159186541597,46.50183612575564,34.5836548547442,80.95826037813652,52.9480160649546,51.34057915290544,41.47251978325608,43.110846242309776,7.924927987980823,38.57687301841702,6.248500913600424,5.886545067995485,15.466280633119675,15.77257335019591,15.64030259166418,56.08410576109589,64.90439820925747,59.09657532114057,400.0,400.0,400.2271810307653,372.2332451637909,{}
24,104,49,0,4.160000000000003,0.0,158.61150992212666,15.832677775091046,31.82328847778998,44.33149777025494,47.60346749124427,34.975528378935515,82.57314482573759,50.763426669670125,50.75978526414565,41.9533155641451,44.24809720089365,8.129803319933785,39.472205503899886,6.246905566704072,6.148837975390052,9.499606665054667,9.499606665054658,9.473329320936044,58.05601405791003,66.03871599087245,60.49657683485886,400.0000000000001,403.1585515619905,400.0,377.8938808351512,{}
25,105,49,0,4.200000000000003,5.960695854996929,149.49349150603422,15.196852239610594,29.95212597902547,41.83117656105429,44.8044537047545,32.78382720248364,83.66235312210846,53.728986356593374,50.35250537939055,35.93817296279235,51.56346555531081,11.523653286982269,39.37573733314639,5.703231796269165,1.640655722214433,24.02833317110037,24.576578612334032,24.805151990623017,60.352692638602434,58.47765752750024,51.448782134716375,400.00000000000006,401.5403639161115,395.0282257925623,373.3056803224038,{}
26,106,49,0,4.240000000000003,5.992215177119758,150.55254306261713,18.224610976434352,30.554422117780604,45.041373360313166,48.31078324120617,32.957183474158846,87.35079610336851,57.0048345929175,53.379394576415166,36.78325553538434,53.18528768704641,12.743117287060612,41.87856138131474,4.047128643339192,4.571217244634795,23.968860708479223,25.59875445803005,25.000967350699227,60.2895998379438,57.12565754123278,54.26181625941184,399.99999999999983,399.1463062439019,397.70436409577616,372.7234909663365,{}
27,107,49,0,4.280000000000003,17.882087564990993,158.65979535215934,12.288289306166996,29.952125979025464,44.804453704754586,47.77861193691978,29.952125979025457,89.85637793707626,59.9042519580508,50.88530235683186,34.55269963215608,49.517832081534834,12.20130168170067,47.4666266685889,13.164308917825224,1.0496778873758783,26.82313134748649,24.57657861233405,24.816696474934872,61.22800007281171,58.10785662776743,54.3862461019196,399.99999999999983,398.8992793887631,392.343306831926,367.79232323045846,{}
28,108,49,0,4.320000000000003,17.735810661165523,155.22086694300384,14.578746558675933,29.30291792530728,43.83332356835181,49.65342157572236,29.73492527456488,91.13757395147088,61.85238331703866,52.98449334524719,39.97946396610803,48.3873231327508,14.4843631746063,46.936077953653125,14.222202755156443,0.496232222530125,26.2417438056166,24.04388478021225,25.37338345389992,59.06099735321044,60.46542817169211,47.01504496126618,400.0000000000002,402.1726330570261,395.4469887800076,371.6865659320603,{}
29,109,49,0,4.360000000000003,17.733075740386496,151.19404282942148,12.185890724115172,32.64470391628224,44.43109721756061,50.330566373212775,29.7025342618,92.04891754415956,59.4050685236,50.58348849306901,39.00413570549904,47.3396969651418,13.486309019139185,48.81414765965428,10.12456143565123,1.1599012130163828,14.77756311698877,17.977681443427148,16.504018107241052,59.05666515086625,58.89939041011843,50.59022708043103,400.0,395.9173645970236,389.3768705606679,367.673372876896,{}
30,110,49,0,4.400000000000003,20.901925718607146,155.7301536206978,15.225618158692033,32.98133078806379,41.80385143721418,47.775830213959146,30.008821959129936,98.94399236419146,65.96266157612767,55.55084854210861,39.35846878649829,47.383010966269694,13.374236966285707,55.50308341008622,16.90885673594721,1.5284842247184542,26.87390449535199,24.6230992904662,25.936466688190023,58.84664265165748,59.99300582019646,51.11190526530536,400.00000000000017,399.0291924927422,389.56577551450175,365.2806109967116,{}
31,111,49,0,4.440000000000003,23.3477147462039,149.09897069045417,11.673857373101956,35.50465110657516,40.96259906579636,46.69542949240791,29.330203654595007,99.61330610546251,64.27251006177265,52.48572014032561,35.783103318175904,45.67810938043681,11.409939160940326,58.8139216917715,20.78718327808292,0.1917636833770757,20.42925040292837,17.752325553287573,17.73814071238627,57.26063585641663,61.46026052237619,49.69965689681795,400.00000000000006,396.1056096285925,389.4810672293376,362.6419485645087,{}
32,112,49,0,4.480000000000003,5.971978776744964,146.58744704854345,15.225618158692,35.956073631356965,41.8038514372142,47.86905143472685,38.932538405174505,95.97064657581222,60.01764391825985,57.01528912085746,42.45261842616696,53.7583422045642,9.246734348556515,47.76855477230095,8.984681148395225,5.877478917908547,26.873904495352,24.62309929046612,25.96198490171679,59.67325729392434,59.44864026521441,51.11190526530535,400.0,399.0291924927423,392.302645011232,368.05271770385673,{}
33,113,49,0,4.520000000000003,9.548500588703329,149.89760550540564,15.914167647838688,32.458660551566574,44.6731974181084,51.02470307776162,38.32639097484113,95.96124328466688,63.736191759887824,58.887095504753006,47.0340397761471,53.44324875114478,11.92272104355152,45.72035098002971,8.200602787885146,3.443456995883821,13.123158831165291,13.12315883116518,11.415159463233294,58.638290808518605,62.97744471084616,63.974162189777815,399.9999999999999,402.8516811639102,393.05094640942445,373.7492331761151,{}
34,114,49,0,4.560000000000003,3.002515660740232,126.4269465718152,15.309885943982833,33.1638694326352,36.15507630310946,39.14801463431359,42.14231552393836,93.51281882288144,60.34981788181524,58.80984740589327,49.68052091328161,58.59753748746027,12.101665350671167,39.27733491007314,3.6092686133581537,0.2123099184327657,18.26358975778474,15.309885943982716,16.772483556193322,57.32367797686334,59.44677716119168,51.13099925649135,400.0,398.55497382732176,391.7218682777305,369.9070048634032,{}
35,115,49,0,4.600000000000003,3.131409282006939,131.8542711258163,15.967117033998155,31.47027380299181,34.44550210207478,37.57691138408149,46.97113923010206,97.2755043586926,65.83411006777386,63.80526105136664,52.77579704661707,65.64977892246816,12.911625097710155,37.53029219363577,0.112929665577667,2.597382308285773,18.78845569204079,22.14240737977513,22.39771700623197,63.165326279760166,61.35845163051784,66.4272221393255,400.0,395.46364375799527,381.08105934853575,354.7349112582925,{}
36,116,49,0,4.640000000000003,4.449253335427073,126.47154239665652,18.87658322818395,34.74977942104558,34.74977942104547,40.89926366106516,44.157578527548814,101.11656260430637,66.36699323854361,64.63397579456557,60.08666661358893,60.78625264143159,16.30424103777534,40.67315434095781,0.8161836991495193,1.3214402748136536,6.292194409394597,7.034887213525243,8.152120518887614,63.7594932597624,71.76586668951614,57.410886580226375,400.0,392.9600091886299,385.1110845965377,365.6111493473151,{}
37,117,49,0,4.680000000000003,3.109006527045373,131.50031831118406,18.91134840916453,34.34009949600851,37.43739614150011,40.53648565781077,43.636986058693296,99.92445645347838,65.58456453632166,64.03024289369193,64.45505150155122,63.60543428583287,20.42943214159413,35.87701788192999,3.630182648978917,2.548851647155402,6.951949936964193,6.218013054090835,6.179034296134319,64.33919460849887,70.24789615417717,65.95198794081213,400.00000000000006,393.8143113635063,390.4124965689423,374.3739614150021,{}
38,118,49,0,4.720000000000003,0.0,136.5106178268703,21.79779869696701,37.120313593733854,40.07476531126836,40.19315483156176,40.07476531126813,98.83805550681733,61.73050384395584,61.67937917388656,65.0284857353646,61.95847138734303,23.58329203707433,35.30516500224724,6.837759229684252,3.2095604547498624,6.89306918602657,6.165348509425888,6.140028696043032,61.95847138734308,74.79671320634219,68.44647628921672,400.0000000000002,396.6121303247917,393.2434047301774,371.2031359373388,{}
39,119,49,0,4.760000000000003,9.688894534764817,135.67912226892818,21.665026806560537,39.948335562305225,39.948335562305225,46.06047879810848,39.94833556230522,110.47039444916258,70.5362169187378,65.96502327993096,66.3454658111558,66.64239656723362,26.5753026689722,43.778728349235166,1.7444681919575942,5.845824260283735,4.333005361312087,3.063897473901393,3.0435402497984114,57.641683023622136,66.21555860537171,64.99508041968129,400.00000000000017,396.9491728896533,387.5194463328041,368.9421121170709,{}
40,120,49,0,4.800000000000003,12.928574423542766,147.67498996393817,25.280336907460896,47.13900363148089,44.01080296201464,50.26813129879933,40.88374207739363,125.4255951457078,78.45368469856922,71.59545105859127,67.6122519269436,73.0903113387667,30.110757072106253,54.4370547991856,5.115950399855251,5.747319959183983,7.011503921604244,9.915763938564904,9.674810012067496,63.76832549220654,74.4458989220314,66.51696664641648,400.0,402.84125792681664,396.33297298835146,377.5810416370883,{}
41,121,49,0,4.840000000000003,30.46254410259657,146.3470839173676,18.27752646155804,39.71829815644797,42.64756174363521,48.740070564154585,39.60130733337552,127.97894502622944,88.34137789753012,72.91278466244069,67.7686311433115,72.42819049034892,30.60398579134153,57.72262119109894,13.40089268207953,13.84821037939514,6.811631938099096,9.138763230779016,9.114098082805128,59.69827435424281,75.54077613416985,59.14756171114746,399.99999999999983,400.2203313834876,390.8832300966816,369.40152616150505,{}
42,122,49,0,4.8800000000000034,27.78701067884929,151.5681116314021,18.78019859847797,40.13679320278245,43.22423883376563,46.31168446474905,40.25536596687693,126.5852708703137,86.44847766753126,72.20366762914898,69.83291416089469,75.4847904292127,33.01985430584398,53.31350399409985,8.17435795854044,15.229720280064612,9.763360345842786,12.729864449895755,12.593442423366128,65.92591244521196,76.92620853791124,68.55241803517127,400.0,400.0000000000001,390.77842161374207,368.9723590294171,{}
43,123,49,0,4.920000000000004,27.977184015524102,148.5883942895662,18.793078818499705,40.28297472553815,43.253883765555535,49.433010017777896,37.20326659021618,123.5825250444448,83.47539892965241,69.06894477922685,67.2070784464621,71.79428535327372,32.87498283214927,53.544397482841305,8.176021722140604,12.11562294799046,9.268689378333317,9.770056453381224,9.372293327250247,62.08020013884936,74.13286142341286,66.04731593163388,400.00000000000006,396.6691048137695,387.4292449961622,368.7080026501076,{}
44,124,49,0,4.960000000000004,12.340595746998634,145.2970863698067,24.873265919964744,37.15011271153127,40.22542073773319,43.30212882179924,40.22542073773329,114.19219425092318,77.12872341874098,70.55310269977963,66.37641447805356,72.65011213890352,29.96470512599342,44.314488725948536,5.199196956505489,5.857761904329664,15.425744683748167,15.731234630826435,15.66691349560324,63.34354958675863,75.35369455628643,65.95295134109467,400.0,399.99999999999983,393.28086577066097,374.3342295429253,{}
45,125,49,0,5.000000000000004,0.0,138.27476522688033,21.679659536628048,33.72563539876375,36.91912985309806,39.85756910762998,45.98950281649618,101.22334958005304,67.52091590724967,67.37182182127765,66.27634504369598,72.54110286549155,23.706802139855085,31.47784053082546,4.090921091281984,3.0296779629995854,21.46176798103151,21.67965953662817,23.19329740036369,63.7772886448376,74.35548627836124,71.11457080539422,400.00000000000017,393.89024001581873,387.781180024841,368.94933528696754,{}
46,126,49,0,5.040000000000004,3.044577370399255,143.3863421882381,21.31204159279492,33.62845620081875,36.534928444791134,42.73267975187645,48.71323792638844,106.60369305371124,73.06985688958261,71.15227777231462,68.34319257421134,74.28095948996247,22.867972016893987,34.9789980206923,3.5912556275152383,2.46425737438392,24.35661896319423,24.546167494796013,26.2153250373882,62.97733521975079,71.8419334197531,67.60058818252435,400.00000000000006,393.9287820032188,384.8230177585713,366.37538837524863,{}
47,127,49,0,5.080000000000004,0.0,142.65620723053297,24.908854252346824,33.98519438722225,37.20326659021621,40.282974725538025,46.34344689166686,105.0905712180256,71.12708460508924,71.01902459971325,73.24892737020855,74.93824765088675,27.97514384803162,30.745629108343906,7.973591724801281,7.399222829370728,24.716505008888983,25.47719021193936,26.741940043136594,62.91028725245752,73.58679142634418,66.04731593163389,400.0000000000002,396.921695199786,387.6878554775876,368.9538640861834,{}
48,128,49,0,5.120000000000004,3.08744563098326,139.07220550404486,24.89178246084529,34.10195161514774,37.0493475717991,40.13679320278238,46.31168446474889,105.01854525077572,71.01124951261497,70.85458170182835,79.87032242499981,86.43477880408341,37.03516719186689,21.66270605097543,17.208847039343937,13.536075242439097,27.78701067884933,27.95800928161311,29.631457528875387,62.1545996399293,74.25314202973357,68.5524180351712,400.00000000000006,396.9259296458984,387.4221456954617,368.45530109738166,{}
49,129,49,0,5.160000000000004,3.065966854433216,141.33408859516078,24.527734835464564,33.86471077394316,39.97531698338325,42.92353596206296,43.03289546659612,104.42306829852949,70.58385763625832,68.94904940637275,72.64891894425284,77.45284977931362,32.03463351590551,29.287122196203995,9.447730642286274,8.554368065941503,27.593701689897657,24.71861502817956,26.387907797500706,65.83913628683331,76.02009847762906,68.07551180104159,400.0000000000001,393.63957876707104,387.5265673133343,371.79193943017526,{}
50,130,49,0,5.200000000000004,4.338609156373235,138.36014387013586,24.73387769603365,36.94192580731195,36.81431946467375,40.00000000000003,43.05946640471546,101.4251390116346,64.49806198638838,66.10857247435968,76.87199512004543,79.79373543260294,35.27917469358147,23.0548818916169,15.49865694534776,12.006001859072285,24.542879643115857,24.73387769603365,26.379620867975348,64.41261976419719,74.18533736137204,59.01146448933864,400.00000000000006,396.94124620802046,390.8241668727316,372.2364839722189,{}
51,131,49,0,5.240000000000004,0.0,143.4487006765649,21.80854684201475,37.38608030059667,40.50158699231314,40.50158699231314,43.72822021746971,102.85891464176188,65.49977725297454,65.44835732192973,71.6217706583335,77.8969435552275,31.036665949502776,27.932999354552635,10.93915275269353,10.51515458398444,28.03956022544748,25.69112633453065,26.923883713024964,62.53124992121138,72.55456662949337,66.08987725634178,400.0,399.7694069623431,393.55398195722745,374.69068372301183,{}
52,132,49,0,5.280000000000004,3.115506691716531,140.50900639612942,25.11801796516645,37.51566848916319,40.62123743612466,43.61709368402934,40.50158699231305,102.85891464176184,65.42564052604412,65.26899038241686,80.1866589598053,84.46082242860768,42.01251268452165,20.306466833153195,19.01583707982832,18.194527236803538,28.039560225447445,28.21211299393624,29.9107635689324,63.2743807636424,74.06873870053931,69.6648474703333,399.9999999999999,400.0000000000001,393.5539819572275,377.7993468996942,{}
53,133,49,0,5.320000000000004,4.400123205174731,143.25763251554645,25.084561729742816,34.36606083716449,40.44764043365854,43.55899739009367,40.44764043365855,102.72191051713553,68.44985304157606,66.79939623393443,75.06610592303377,80.49297752321706,37.4656384074774,24.80855588655254,14.17390998681458,13.988519963205704,28.002212607917404,28.17453554274445,28.162429950020112,61.56634147661475,72.79086472419908,66.00184807761977,400.0000000000001,399.7215875224426,387.0608087883646,371.3088751103604,{}
54,134,49,0,5.360000000000004,0.0,146.6334314652212,25.102033528108617,34.24876472939202,43.58933692831725,43.70039274379403,43.58933692831714,102.79345797041124,68.56825485651848,68.50974243337714,71.6115614805575,74.98310392314511,29.871866041324893,29.33241925051084,9.777473083503764,6.001345547805727,24.908192530466945,28.19415955728196,29.87186604132484,62.17124264131269,75.1179656208484,66.55954232825653,400.00000000000017,399.7454506628675,390.1979860826122,371.1498299934277,{}
55,135,49,0,5.400000000000004,0.0,146.53137002285362,24.89085565148228,37.33628347722319,40.56713150767343,43.669975907258674,43.66997590725879,105.83188187726992,68.52052921222756,68.44580421055332,70.87045262539209,75.02939817028926,29.28941609452829,32.67382117357397,9.60598556017726,8.696742404612792,28.00221260791747,25.08456172974285,26.62061905458416,62.68726422531114,74.77683062707672,66.5132148105449,400.0,396.621745865403,389.9263961125044,374.1916101200301,{}
56,136,49,0,5.440000000000004,0.0,145.34087823640354,27.80606813500008,37.0747575133334,40.2829747255381,43.25388376555558,43.3640849219077,108.1788370261784,71.1270846050892,71.05750512596899,74.06755650922048,80.62879210866731,33.989906069299764,30.641646665458325,10.991760669176529,10.552090242409465,24.908854252346764,28.484364594794258,29.779216212953656,61.7906053618018,68.55476577360264,62.48254737830607,400.0000000000002,396.6691048137696,387.1951152486327,371.5705452361662,{}
57,137,49,0,5.480000000000004,0.0,145.40525067152072,24.89178246084529,33.96190194081591,43.33436446150659,46.414485222683744,43.22423883376567,101.93247456754212,67.9939368934808,67.93322078729182,73.74641181983611,77.22756691490633,32.4288185798041,26.27765132443767,12.522019055567853,11.812268987640891,27.787010678849352,24.89178246084536,26.4128418135665,61.47787493138503,71.31298301551527,66.0020490560324,399.99999999999983,396.6496568171995,390.2414031030784,374.85455425855054,{}
58,138,49,0,5.520000000000004,3.087445630983355,151.5681116314018,24.69956504786601,34.101951615147655,43.33436446150685,43.33436446150662,40.25536596687705,102.07265222886818,67.99393689348088,66.41146198985018,68.08387352321336,71.14438662926784,29.359184468189824,32.43642168957808,6.246457077111359,8.888867299825165,30.87445630983259,27.95800928161308,29.61004619819431,61.09319331375536,71.98059239594937,69.03738307713321,400.00000000000017,399.7258518384088,393.31924665404017,374.6128972131301,{}
59,139,49,0,5.560000000000004,0.0,151.7671624845953,24.924472256099733,37.09800361273721,43.28100421485989,46.37250451592123,40.3082323967287,102.20670185378717,65.21527029462483,65.2133159602256,67.72087314166401,71.67574520634867,29.39227259987979,32.47202403748531,9.44961984817212,5.679869454600407,24.732002408491347,27.99472588077897,29.526906542507334,61.51088253796775,71.45696504957886,65.58062480762364,400.0000000000001,396.484160320865,389.97043075289366,374.3907700768205,{}
60,140,49,0,5.600000000000004,27.93721183078309,135.8867148993574,21.596042557247387,27.937211830783152,40.10693617774511,43.19208511449498,43.30212882179936,120.36035522568692,92.55446810248912,78.55788049957312,93.46494818473307,97.72411038049312,52.29304695905307,24.60849268661343,7.8084640255599425,32.41695671217326,27.766340430746773,25.440789873961567,28.039484455419995,57.26206952077325,69.32969574209324,65.44589202438405,400.0000000000001,402.50258182521856,395.874020785824,373.927178472913,{}
61,141,49,0,5.640000000000004,0.0,146.57779776711882,21.33430089726484,33.663579351370345,42.77731178420781,42.77731178420758,42.7773117842077,97.7185318447458,64.07542725069021,64.04733777295883,70.79623155663626,72.96192135289107,29.10250590548469,25.828788771611244,12.280636325273804,8.99013089840605,27.42981543934061,30.629581497297167,30.73936447242141,59.8838411103917,68.44587053744499,64.65269501284382,400.0000000000001,393.585726669586,384.452563504141,369.0933464633078,{}
62,142,49,0,5.680000000000004,24.47819205477944,133.72836183645956,21.25302238316773,27.49347186129124,42.5060447663355,45.64328348890784,42.6143405973085,115.41349245621264,88.04823558740907,75.76971348986604,91.30814673616057,96.28980688397746,51.18739386783659,21.43116882382969,10.832603274447363,31.277470256930883,24.289168437905925,25.036701756976296,26.095206344772464,57.18878981772332,70.6459590089737,64.40638391934593,400.0000000000002,399.6887652444411,393.0841909755554,377.7043791506971,{}
63,143,49,0,5.720000000000004,4.3080543014281005,149.54596248706855,21.32378087181774,33.64697971151688,39.71829815644799,45.79524539335917,43.08054301428064,100.71084779558208,67.08679435651118,65.64728621237691,70.03960011808749,73.39743082592793,28.71114842613133,28.96552954036156,9.49689493126607,8.971173961856834,27.416289692336967,24.559688222404585,26.18429602477653,60.25440659069358,70.53140360559956,64.26080718254136,400.0000000000002,393.7217537735271,384.2629884732655,365.8677097934191,{}
64,144,49,0,5.760000000000004,15.611427845019245,137.91038651434465,24.68383475881753,33.67818182249195,46.02673534747762,46.02673534747739,39.91906980728037,113.32252317433397,79.6618313987525,72.08169893720662,92.29508541166138,97.63447051812123,55.04651788326362,18.17933500532717,17.16230927076367,31.65492598829701,27.55487603658432,27.724446104989443,29.23948986870824,57.46195400285268,68.14072421577197,61.91809784469618,400.00000000000006,402.4880147620134,396.13813291917023,377.59006531653154,{}
65,145,49,0,5.800000000000004,15.192551398743458,137.03647675258483,21.26957195824092,30.536650384971527,39.500633636733,42.64752407663637,39.61732704794135,106.52134744289614,76.0235029106572,68.38266148423031,88.56942502201036,90.8404359200108,50.08840702811699,16.780247190779733,15.518574469668463,30.15397803455903,27.346592517738223,27.514880829314063,29.14463985767009,57.02760699422908,67.62565785156346,61.450067457543575,400.0,399.4456632051892,393.1437792460139,374.7359139358093,{}
66,146,49,0,5.840000000000004,0.0,153.8318241925326,21.716051434007568,36.85336135099836,43.1051313203518,46.16895864406904,43.10513132035179,101.53270119953642,64.78520911420831,64.78349940866713,70.29698872004303,74.56658105263307,29.33243551326529,29.063484815149423,9.530940364482262,8.824944781927911,24.56890756733216,27.810115055686445,29.46691086232317,61.15266498410256,70.93574662806827,65.65290681716957,400.00000000000017,396.7564792708913,393.68991253196623,374.990371644058,{}
67,147,49,0,5.880000000000004,12.720394936980677,136.0617139607937,24.68119149399713,31.005363086967275,43.192085114494766,46.37995833757913,37.15011271153118,104.9404238792184,74.04357448199124,67.77242952794188,86.95235473090338,88.81741973092869,50.73480871690106,16.9116029056338,18.92788939214733,24.37186290573436,24.68119149399712,24.87326591996483,26.51416729765521,60.84144473055108,72.13264905502785,62.39327592319793,400.0,399.7024473291999,393.0266636732425,374.3342295429253,{}
68,148,49,0,5.920000000000004,9.1916924217043,135.1244786705116,27.57507726511313,30.63897473901445,42.89456463462008,46.0604787981084,36.8942112117071,104.2175616884251,73.59734289051801,68.95400854050092,86.25612138461167,88.29166407215428,50.37968151667587,16.79322717222533,18.828769859767704,24.17206941456664,27.74477164994395,28.247738973221708,29.388147551394297,57.50408092307458,68.4451228686151,68.02956409661756,399.9999999999999,405.5933733564667,396.0020813573252,380.5281720769062,{}
69,149,49,0,5.960000000000004,12.6327729109589,138.18143639432574,24.70193114895433,30.79178852857597,42.89456463462001,46.06047879810854,39.8306671607189,107.28017262146204,76.59743684753634,70.35541461980404,89.0893045455424,91.31611541469806,50.50811925948744,16.92038864972153,18.69171547745896,27.109735354040254,27.57507726511304,24.70193114895433,26.20720216085965,60.25885170169988,71.03864068193127,68.51083027733519,400.0,402.7830896647449,396.2035277363812,371.540997708428,{}
70,150,49,0,6.000000000000004,9.915763938564927,166.4549342313704,31.512790772985607,44.010802962014665,47.03459817964062,53.30587793692604,40.883742077393634,125.42559514570786,81.58691532750682,76.44518738054876,77.79670450550873,81.85125588038886,39.44740608476934,45.19135386584935,3.9700815545699015,9.291680234099886,25.085119029141605,25.280336907461,26.819167948424536,61.74743864660911,76.27624773992875,70.11503921604269,400.0000000000001,402.8412579268166,405.48079438413833,386.49862037992176,{}
71,151,49,0,6.0400000000000045,27.7870106788494,160.8141336523791,18.524673785899594,40.13679320278237,43.22423883376578,49.39913009573217,37.17776857236401,123.53641228143422,83.4181873617659,69.50071027831132,74.39002548809356,77.39604891336705,38.71613303153458,47.48068325944041,5.577441054121891,18.597506372023417,12.349782523933104,12.729864449895802,12.43153663524248,60.337771403682495,72.27132223052126,62.43972368956765,400.00000000000006,402.8022190153991,402.5536596687698,393.0889412061097,{}
72,152,49,0,6.0800000000000045,24.92405353373113,165.15124361815762,21.80854684201469,40.501586992313065,46.73260037574581,56.07912045089488,37.515668489163154,124.65920541922875,84.17635547274898,71.6965235037701,69.25484623274394,77.91170201183695,36.07023241288755,50.94226670004719,5.660251855560773,15.64893160066822,9.346520075149186,9.34652007514913,10.87656238911677,63.70557970768425,73.69425945279158,62.62090949703904,400.0,405.9853098662887,399.380738795385,386.9379039575325,{}
73,153,49,0,6.1200000000000045,34.270573608880234,155.8999050452198,18.69304015029824,34.270573608880234,43.61709368402936,49.84810706746224,37.386080300596674,124.6202676686554,90.34969405977516,73.09098020230135,73.41647194986228,76.23740042872419,37.503882468969095,49.5832428784538,10.813559168969846,17.576554368292136,6.966484747033303,9.346520075149169,9.33076343008105,59.20333230636692,68.85958748400884,62.62090949703892,400.00000000000006,399.7694069623429,393.344287134446,377.799346899694,{}
74,154,49,0,6.160000000000005,34.59316202224071,160.6637240988623,18.86899746667678,34.73581484197265,47.1724936666919,53.55457469962072,37.73799493335356,125.83262071556749,91.20015442227104,73.75965200209839,73.75965200209828,74.34815986381727,36.389402782950015,51.69060718764069,12.456749739716088,15.987796910029148,12.966478267436749,12.966478267436692,14.222273324872615,60.22397118256436,72.19029770418132,69.82662243827458,399.99999999999983,397.0468312161191,390.5801448470851,374.8820228973456,{}
75,155,49,0,6.200000000000005,27.95800928161315,160.66587683681874,18.52467378589964,40.25536596687691,49.39913009573221,55.65971766358718,34.10195161514763,120.449955740758,80.2735864055649,66.29834944168442,68.336049975685,74.69849046159447,37.41802837118541,48.76724653523979,3.5079401597985225,17.02382724608151,18.524673785899576,15.742945519540408,18.70901418559265,60.51196775652648,72.3254721182011,68.55241803517123,400.00000000000017,399.4753783363023,393.0889412061098,377.2878773417426,{}
76,156,49,0,6.240000000000005,27.958009281613176,154.64990202199482,18.78019859847799,37.04934757179908,46.31168446474872,49.3991300957321,37.04934757179908,120.4103796083472,83.36103203654814,69.35769543595529,74.13453671475497,77.65341979202037,38.97120509483511,44.10503451190834,2.0654313714384216,18.46988629685416,24.69956504786605,21.831537422130413,23.459220515102515,60.976973904110594,71.83961296871246,65.49461226639127,400.0000000000001,399.72585183840886,392.8827640017153,377.1236166328256,{}
77,157,49,0,6.280000000000005,24.92405353373105,159.0129710736439,18.69304015029839,34.4118961614702,43.72822021746964,49.945371759105775,40.50158699231289,118.43024069956633,84.11868067634234,71.38726703891166,71.11737188942607,78.67443607501991,34.546579134142576,43.3181714924209,3.6435845180541264,14.034547773245436,21.808546842014724,25.118017965166427,26.652146011692025,62.21083195640517,72.06200491262535,65.7216856602725,400.0000000000002,399.7694069623431,386.7748163385887,370.9546830143529,{}
78,158,49,0,6.320000000000005,24.55660628897128,156.81897612406092,18.417454716728496,33.76533364733537,42.974061005699774,49.11321257794234,36.83490943345675,113.57430408649188,79.80897043915652,67.26249617937219,66.81840656518625,71.5838297327955,32.51248386933344,43.92217087995312,5.047249268919245,15.31255150452182,24.556606288971288,22.34684903643852,23.34032529941902,61.26728638786386,70.47360569733087,68.15564308862653,399.9999999999998,393.4927979802232,387.0709506701809,371.6215618641222,{}
79,159,49,0,6.360000000000005,24.74604901299148,154.94094927883145,18.55953675974363,37.24773620517083,46.50183612575548,52.58535415260688,40.33112556118928,120.79551330230444,83.57517830896008,71.1393556116036,71.00241748723079,75.45290652934273,32.89938438053457,47.48329462622428,4.964007008509384,15.576711647391448,24.74604901299147,21.87262383082619,23.38218473663392,61.41674878114384,71.07088654941731,65.61787149247866,400.0,399.6170873838146,390.0570218895179,371.5128096460911,{}
80,160,49,0,6.400000000000005,4.341035707464807,150.5344501890398,24.55660628897133,36.834909433456886,43.08354923666704,43.08354923666727,46.14584254863996,110.67512890783402,73.92517429070311,72.26757481844174,70.83213469435816,77.27452667982811,27.91418384155236,36.57809030477051,1.9224644518975536,4.707901835535836,24.55660628897128,24.74771116564693,26.38475656648712,57.65684498402032,68.01252016490861,68.15564308862656,399.9999999999999,396.73599085555503,383.8933758492904,365.4858183282807,{}
81,161,49,0,6.440000000000005,3.117303763076514,147.04292441876171,22.04266629889693,34.290341393841,40.64466837999073,40.644668379990506,49.97418100461173,109.28361817462022,75.07461618782055,73.51511184158232,77.35488419996307,79.2874848571613,28.378714913595783,30.870752603141227,8.493271309266106,7.628686804730023,24.93843010461166,25.70594536459923,26.980122332728683,60.31748366939922,67.79359673803481,72.3053215205792,400.00000000000006,399.9999999999999,386.9979138999214,368.171918806626,{}
82,162,49,0,6.480000000000005,0.0,144.62136728116283,21.679659536628023,36.919129853098205,39.97531698338359,39.97531698338336,46.091588408960185,104.6478760254684,67.7294215478866,67.72911919122157,76.11093498754565,77.37579652622628,30.66867610787756,27.902845543295825,11.021160207037724,10.346567386408084,24.52773483546456,24.71861502817952,26.37657928662111,58.87508842045679,70.19138298652001,65.03897860988454,400.0,396.696303523621,384.0299422358804,365.4807390448535,{}
83,163,49,0,6.520000000000005,3.0198356310450807,130.16857781042165,21.353462527807487,36.36363636363635,36.23802757254111,39.37383941845148,45.29753446567633,105.86666848518828,69.52183711914292,67.92744703440269,84.47893647744979,87.737169812763,41.01343198368443,19.683760149417708,21.39685190303601,17.970668395799407,24.158685048360752,24.34669321498132,25.98189159654362,58.09396446828998,69.02752066050067,67.52557751892813,400.00000000000017,393.7383941845161,378.2517417875154,356.8009599901209,{}
84,164,49,0,6.560000000000005,3.0445773703991508,128.19803925562934,21.31204159279503,39.69643223186508,36.53492844479132,39.57950581519067,45.66866055598908,109.64706297734804,70.02527951918326,68.196127151768,84.88322418666985,87.88029793114231,40.91767629106084,23.019896924352224,21.42823064197705,17.973976156822232,27.569820671823155,28.06961642006405,27.85415994156631,58.282078126973374,72.91186182880523,65.08563031504534,400.0,390.66803902287614,378.1286650004971,359.7242569612028,{}
85,165,49,0,6.600000000000005,0.0,129.3418690026406,24.005251723284537,36.00787758492688,39.12377369298294,39.12377369298282,45.10975797419795,105.06583406560372,69.08029956802034,69.06000198143954,85.5511854083079,85.29747489404838,40.314600715836605,19.56108064940861,20.77889111785408,18.14030176955509,27.0059081886951,27.17209996153478,28.64391705989908,60.7890392165794,77.33096474629963,66.6253858310873,400.00000000000006,393.8182996297168,381.50842395211487,363.3892852720545,{}
86,166,49,0,6.640000000000005,4.341035707465011,135.37490447130443,24.556606288971253,36.962587145351655,39.904485219578085,39.904485219578326,43.08354923666726,107.47899465135836,70.60024308079224,69.01569716922825,90.4810427274399,90.22721522773702,47.27114136134344,17.048747063380688,24.18976072168971,21.54995472477924,27.626182075092583,27.79619095403021,29.30015438237558,58.97258909764895,75.99595341105902,74.24313349694067,400.0,396.7359908555546,384.4819816393068,365.9109442894754,{}
87,167,49,0,6.680000000000005,3.069575786121455,138.43752764592023,24.55660628897125,33.76533364733541,39.90448521957821,40.02237169566901,42.97406100569962,104.36557672812772,70.60024308079231,68.91581873444983,93.36873317185048,93.26775761326525,50.437291513344576,10.82121402838868,27.34754711684513,27.78510787071457,27.79619095403032,27.79619095403025,29.400716808079096,58.73411657710142,76.03459561471175,68.15564308862636,400.0,393.6723466220431,384.1387378683637,368.66870315333966,{}
88,168,49,0,6.720000000000005,9.71171344186452,132.20064348980353,21.716051434007525,30.71113445916527,36.98110302120436,40.04242032653813,39.92447479691474,101.34674371524514,70.63560925607987,65.9507231566206,86.88544674423576,90.9455143491067,49.10990107058342,12.129451969551724,19.9112482122207,26.255103844831297,27.640021013248653,27.8101150556864,29.325529971014987,59.86908022349121,71.79552881279915,71.23394510454139,400.0,393.86955111609296,381.263613446112,359.64823391407066,{}
89,169,49,0,6.760000000000005,15.423274673260652,139.4342247054619,18.148518120567093,27.390303544700167,36.29703624113419,42.45443173587962,36.29703624113424,96.79209664302456,69.63504391656963,61.70072153777306,82.0261605917861,83.82874822442562,46.74092884820516,13.569947084962678,15.220915197099885,27.23255054356593,24.198024160756127,24.386338472946463,25.867974859044462,56.03183613232312,70.85685591477755,67.63553368079131,400.0000000000001,390.9427458824334,378.52944135019806,360.26319544306887,{}
90,170,49,0,6.800000000000005,0.0,138.01149236692643,21.44728231731024,33.702872212916,36.76676968681744,36.89421121170707,39.83066716071876,94.980821690945,61.277949478028994,61.09138140959442,77.21745834592582,81.85903816252085,39.82885033798698,15.153392930648124,23.173769819617064,20.068006854101327,24.70193114895436,21.66502680656048,24.675457407338968,56.995869806716655,68.48036692645303,68.02956409661745,400.00000000000006,399.7300191906992,387.0346529406119,374.2472692488868,{}
91,171,49,0,6.840000000000005,9.781734746401694,139.23089096849304,21.652792886367603,34.1661306371877,37.11907351948725,40.21232964611122,43.305585772735206,108.26396443183788,74.30256192921817,69.22941315374874,77.57804368249379,86.0551146809122,38.660581371573926,26.07341534361956,12.715606497627276,18.623868102585448,24.746049012991524,24.938628174345844,26.58717722231165,58.05509229219757,68.8440917447295,68.68143197541816,400.00000000000017,393.6221595604976,384.1744411019936,368.56506956185655,{}
92,172,49,0,6.880000000000005,15.329834272165373,138.27476522688028,21.46176798103144,36.79160225319692,36.79160225319682,39.85756910762998,39.85756910762999,113.44077361402373,76.6491713608268,68.71332827185643,73.70140691677648,76.75533261774785,35.52733565463393,37.76688116867968,3.562913317800053,12.249635311674185,24.52773483546456,27.763510687655124,27.892521402205432,60.60345891038799,67.66142053041085,65.03897860988442,400.0,393.639578767071,384.02994223588047,368.3756304844736,{}
93,173,49,0,6.920000000000005,24.90885425234687,148.58839428956645,18.79307881849969,37.20326659021621,40.282974725538,46.44631815452081,37.07475751333346,117.44404390294072,80.32864127888914,67.81946870847696,70.5829536016447,75.14650663623377,35.95065668359621,44.317170580343145,2.028245793150859,18.55844900732881,24.716505008889005,24.908854252346902,26.434803504064348,58.41347884274046,67.70960539468126,62.09945028203639,400.00000000000017,396.6691048137694,386.9855106682005,368.1250442502812,{}
94,174,49,0,6.960000000000005,33.4903510743921,149.6805396423582,18.26746422239568,36.6615663581136,42.73267975187652,48.808288237114674,33.62845620081866,121.93522866019154,85.30251649871005,68.5179686380178,70.50952369428683,70.83156238423658,37.04292404660191,51.195676999661714,9.720483615065746,20.093519312398257,27.569820671823127,24.54616749479597,24.525788650392485,59.71275287859896,64.67892846572079,58.56361502510335,400.00000000000006,396.5437843981279,383.9186712631824,365.4634382655552,{}
95,175,49,0,7.000000000000005,40.79215610874217,166.77944901990972,18.827148973265704,34.65877622234764,47.17235174581377,50.59644256269405,34.65877622234764,128.8051599539755,94.188027983309,73.69484310673727,67.61866765021682,71.31868510698064,34.81071469643439,59.18330675108075,22.081296840595428,16.7519138982841,25.102865297687647,25.87544128200453,27.156091425789896,60.04890716527785,62.05166890792992,63.07016849387791,400.0000000000001,396.37744250029806,389.7138990040298,370.91819541821866,{}
96,176,49,0,7.040000000000005,39.975316983383344,169.32355386971642,15.329834272165463,30.812585545531565,46.09158840896001,52.211534149264814,33.864710773943216,119.92595095015002,89.12423394255616,69.12051836531941,63.72524962693649,63.38592454905074,29.6909443149998,56.36189543681655,20.32557216535406,15.30356101264556,24.527734835464624,21.67965953662809,23.175902819594,57.82099327172517,64.33603476713091,65.03897860988452,400.00000000000006,393.639578767071,386.9075245886018,368.2352555833784,{}
97,177,49,0,7.080000000000005,33.9851943872223,173.45633968763084,18.79307881849972,34.12534011328702,46.44631815452084,52.61336417646561,34.12534011328702,120.8489241766142,86.72816984381548,69.78838823878868,60.738755525491456,64.61352784217081,28.55095391237421,58.15557398103863,18.643093120163485,10.859559255956585,24.716505008888863,25.477190211939337,25.18602005841592,58.75038552087972,64.5795386113229,62.09945028203623,400.00000000000006,396.2357181055101,386.640031888114,370.95348882604,{}
98,178,49,0,7.120000000000005,28.194159557281928,174.80157097517545,15.56762033154194,34.38999734807669,46.806530070010425,53.29494730895264,37.49179451779808,115.57844197609396,81.19077432693531,67.08498723157709,61.251139795544304,65.06656118436558,25.668928718544294,52.410944702694565,15.704546966488351,10.952303361661508,24.90819253046697,25.10203352810864,26.78459881215053,61.96653130594825,64.84513047876453,66.04781942022471,400.0,399.5150043684726,389.501736253747,373.830398602248,{}
99,179,49,0,7.1600000000000055,15.577533458581929,168.95700430454824,18.69304015029842,34.41189616147024,46.8363354653764,53.0551671788675,34.832423735166536,103.23568848441072,68.82379232294048,61.06828337869183,58.51706154704914,58.567916467281066,23.842481768807943,44.69299906396134,8.263924537713365,6.026308047501743,28.03956022544746,25.69112633453053,26.94463190296472,56.04212209575428,58.737432868054725,65.7216856602725,400.0,399.7694069623432,390.0484977841023,374.3278372955005,{}
100,180,49,0,7.2000000000000055,3.065966854433145,163.2177468921033,24.718615028179613,33.86471077394321,46.091588408960014,49.1511877515481,37.29909660256354,98.87446011271824,65.03897860988448,63.40269954696487,58.49388198593829,56.86333069818477,20.5020369812803,41.11563799803855,5.1920185741627165,2.943574166839312,24.7186150281796,21.67965953662811,23.17099198386643,57.37824163115965,61.51469279272385,67.72942154788674,399.99999999999983,396.4711267255256,386.74957090796767,371.29858640709136,{}
101,181,49,0,7.240000000000005,9.97485477670278,176.21278259553088,14.898203574393838,17.71441577331604,42.13848309980615,43.30299626779817,50.86197915166214,82.11506851606316,64.52594226777414,64.84791428291322,76.52993375413752,80.05687173556174,27.4377293183731,2.73376197250127,16.918521277705793,12.513699169900748,21.06924154990301,21.06924154990301,24.15721495137132,49.56194945075748,57.23188444966286,55.67528091574066,400.00000000000017,393.0610770409872,386.9381337493605,374.4532808072255,{}
102,182,49,0,7.280000000000006,9.884484767967823,173.14676368781716,15.985337826026194,21.41150910288751,39.25177411108426,40.47721346629188,49.42242383983925,81.37112390481873,60.187441099763,62.48509525535155,77.56982648713102,79.12368457423923,29.06945401575439,2.069246660555109,18.746297813282183,14.084723551957268,26.00779989739308,23.42306860333949,23.384794974303706,50.13884659293132,55.64658119872132,57.635955187351605,400.0000000000001,394.5611732332215,385.3876628949544,372.8792569958893,{}
103,183,49,0,7.320000000000006,7.852010118842856,167.71900965916203,14.94978187251376,20.01877640845391,34.78449344950023,38.56688044964453,51.038065772478745,83.32939958282755,63.36577030842456,64.55691479941595,76.49932685839019,76.03644267005791,25.258047210001,6.650102839041097,12.359007828473295,12.204713099029163,23.719049812777104,21.142184278628346,24.239701995669805,49.34345447622661,56.595306760099845,60.88473151988087,399.99999999999983,392.95368753722937,382.5085594268142,369.7642373902996,{}
104,184,49,0,7.360000000000006,3.912459934743174,142.4156913116903,18.55842697191352,23.79856469234914,34.66448333909255,38.43382071176009,51.01223643367428,90.45316299084864,67.36933369640767,67.91581821999102,84.09421953636706,82.22309272685663,33.04896742813992,7.294352074473181,17.45624401555375,19.205671520380577,23.63721663067473,27.247130545015143,26.69778496496457,49.63810389782287,59.34362344634008,59.39985270851969,399.99999999999983,392.70068047294376,382.221505307888,366.86484030224005,{}
105,185,49,0,7.400000000000006,11.811916195473769,176.95986855215597,16.233926038294033,20.07639705788109,39.862178999664536,44.892188564698806,49.33429523926702,81.16963019147019,61.12341683870576,62.89973308030619,73.4843779200346,73.5151696141138,24.617959416328347,7.097485485257948,13.055678289585046,11.824010526416656,29.06680877141258,23.78732107102591,26.85035723707108,52.93092212216197,62.09145111072695,61.12341683870565,400.0000000000001,391.52933904252,383.60954537899767,370.82854097502593,{}
106,186,49,0,7.440000000000006,7.790155082838719,172.55237470932312,16.059816123243323,17.63571364023097,40.66580340839204,42.04158399433248,49.652690976636016,80.29908061621626,62.866599784630765,64.04836090954637,73.6311223649422,72.92695778515275,23.8038243820136,6.475252548933554,11.006398540622342,11.098246094507942,26.128974480739465,26.12897448073948,26.559250998581035,55.10853233134961,60.03768438987592,59.13594927682183,399.99999999999983,390.7521910317729,379.0953128315959,370.1860875657956,{}
107,187,49,0,7.480000000000006,6.198013080533117,169.98834788115963,16.162440712835448,21.648728992409566,40.92566387959506,42.31023590604247,46.4644334672335,83.20125587749166,61.980130805330376,62.05561915104232,71.76594019147342,72.05717318242557,25.77411969926584,10.859924952084384,9.204495319303646,13.036508358147785,26.29594247476696,24.792052322132182,27.299260888725826,55.226971915821935,61.81803434263395,60.85426276374239,399.9999999999999,395.314696771817,382.4932423353032,370.8567026191531,{}
108,188,49,0,7.520000000000006,5.645996147791038,174.29584244419212,20.551736195186745,22.75973809469625,41.68106706044731,45.51947618939239,42.998625618158506,88.37381831013958,65.66126031186798,64.4883815449054,75.62195674228036,73.4322508170348,31.53484941638726,13.770474586226896,9.252278557375234,14.556918263603734,29.47296516553353,25.249662374325585,27.80309706491255,56.562262914087285,64.05660854556129,59.55120960754677,399.9999999999999,397.88252607704936,388.5598176371989,372.26129651014526,{}
109,189,49,0,7.560000000000006,6.237828615518045,168.5368483765505,23.834709673373595,24.951314462072183,41.1885670359471,46.17678767350927,37.42697169310833,91.08084235643618,66.13275176515137,63.57346906662696,74.14226174521269,71.69330181968957,35.54053091915432,17.96924345352602,7.101983784016966,15.2600815359159,26.464865483473865,23.834709673373588,26.91560018145265,54.917926329856186,66.96374796352293,57.44223964071769,399.9999999999999,393.1811792147684,383.9686271230839,368.7606755033206,{}
110,190,49,0,7.600000000000006,18.814417367671933,160.94607218390186,17.738402806339742,27.622970789560352,42.7197310138508,46.42584300496584,39.06477992363214,103.12711366684653,75.5185287258981,66.07963954885673,76.92922811375382,80.2854087532159,39.58591864840224,24.49083890593669,4.462018960759565,21.722376535136164,26.60760420950961,23.96326260693498,25.2100204715357,57.68918795020136,64.50981312072113,60.21919972676944,399.9999999999999,395.3018089477018,386.0395687912917,369.02699669146017,{}
111,191,49,0,7.640000000000006,12.27143982155796,161.05534306384172,19.976456731097496,27.02504285244464,42.95003937545275,42.95003937545275,38.2191821256414,97.32420048477157,70.33365858116423,64.13897131511186,75.06475577617931,75.18786320672655,36.93222916417176,22.15933749850319,4.831966648979119,19.66641202992145,24.542879643115864,27.02504285244464,26.48348599647494,54.25960001369575,63.21566558600748,54.1196930559532,400.0000000000002,394.4079703287239,382.8315556481727,370.5182380205897,{}
112,192,49,0,7.680000000000006,11.715921556792116,163.06015840908407,21.64043524576535,27.98580873429827,39.577910266023856,47.03566363530165,39.57791026602381,100.78416803468336,72.83408679064604,66.95237655147906,75.46966761036282,78.61167009863112,37.50380421045577,23.67283247288344,7.084907571585063,14.231423035096896,26.957104938425463,27.98580873429816,27.98538490776116,56.0015737614857,66.6751410378084,66.09226371804081,400.00000000000006,400.4942445116535,389.1649186034357,377.3994691379568,{}
113,193,49,0,7.720000000000006,10.13914950044135,156.67175447326375,20.472354130522675,30.28718045732153,39.16793861831592,42.83254136878552,41.80478434424817,102.36177065261336,72.07962779141762,67.05762874654005,74.62865134695579,78.9549499757648,35.04301889335318,25.52516190997312,4.542613560249606,14.92573026939118,26.67786713494477,24.02654259713919,27.14752389577665,56.24188217451743,69.43709299238489,65.40764055135253,399.99999999999983,396.9338322159172,387.783597155302,375.2855220381551,{}
114,194,49,0,7.760000000000006,12.692018733909451,160.76835394286763,23.402926194014384,30.566428796034792,39.529067704115015,45.84964319405225,39.52906770411502,105.96125502310257,75.40811021255838,68.97679154928716,74.05483755291567,79.85384070520757,37.44275278601396,28.91665085399552,4.090648169589713,14.481834899237017,26.92383754108218,27.95127182756188,28.70506560384445,58.06839643038154,69.83880553138462,59.86813263170527,400.0,396.9376863009357,389.5023188385004,375.1774477386921,{}
115,195,49,0,7.800000000000006,25.82431999799794,162.29124889517217,17.71533736769612,32.78534176771197,42.66418208166539,47.864205830395086,39.01398356421411,115.14969289002512,82.38108080960816,69.4232135995668,79.25250207893566,81.47800135728323,41.35719492262706,34.557058238787135,0.3709165463911859,24.109575515432823,26.57300605154428,26.57300605154422,27.04599817436372,58.666633754219816,69.23775532637131,63.93494462434513,400.0,394.3901226852311,385.3340399776764,367.6199291365169,{}
116,196,49,0,7.840000000000006,31.893018883891944,164.679004526266,17.69106383310979,29.203654570379275,44.227659582774656,47.79862235142671,40.04984912804576,118.54332923310268,89.37927445410041,73.48404889640437,82.14677154749438,86.7495597522219,44.42990408251018,33.909245328847646,1.4603530682772998,27.043292159669303,25.01894240559209,27.549252592436645,25.71291816029634,54.22420921582568,63.5062439011065,63.847341037836834,400.0000000000001,394.246855919754,384.0428032935938,365.3215390397893,{}
117,197,49,0,7.880000000000006,33.98874309296704,168.09644630397568,23.870728705786554,32.70126330463688,45.13614880523912,47.74145741157323,33.75830827945212,123.68934297748363,91.00430533025786,74.16894930007118,80.33694075032474,82.57149844694254,47.72158149352498,41.966830165248666,6.014939553224849,26.81469235941495,24.98902090853925,24.9890209085392,25.682108321403064,57.76178593860266,67.66424367635469,63.77098257328928,399.99999999999983,394.3596871945505,385.26879207957353,370.19402211694745,{}
118,198,49,0,7.920000000000006,37.66349195558993,174.13573862494215,20.551736195186766,33.04234530348669,47.3220708886058,50.89232152983207,35.37206448115818,125.90065032023628,92.85904485555396,74.15390001501203,77.77857819297685,86.39985575174944,46.90255612218294,43.628653251763126,6.00995026927103,25.57541742344722,24.1197061163877,27.80330660454144,27.25134389282897,59.27323196826984,70.98133223343837,65.66126031186786,400.0,396.84967530609913,386.62708140365993,371.37180759317374,{}
119,199,49,0,7.960000000000006,37.518014915329246,177.072633517016,20.472354130522675,27.69591500210965,49.83043456330527,53.35573426988953,35.23543818918574,120.13271298569592,92.50037235054708,73.87154908691423,77.6570603871221,84.36282326177616,45.96692293109595,39.044845125001416,7.895494997576407,23.686484992729447,24.026542597139183,26.677867134944755,27.1475238957766,58.83766135180287,70.95129751246805,62.88033586237733,399.99999999999983,396.9338322159172,386.8546261253178,375.2855220381551,{}
120,200,49,0,8.000000000000005,26.536595749664645,178.7585489082011,17.69106383310987,27.549252592436705,47.79862235142665,50.42729056592985,35.04885059060608,106.51430917292184,78.96835923632506,65.72468494105988,68.92125917899989,75.59508246601627,37.42330815149319,34.24232695861622,2.338956759468146,19.054701067135284,26.536595749664645,27.54925259243665,27.5373175814737,57.94375545456194,69.73209752228215,62.54735601398019,400.00000000000006,396.84806379788967,387.63216114841975,374.1670456399602,{}
121,201,49,0,8.040000000000004,21.359865506925416,183.5946113522966,20.418434996565047,30.20741149035921,47.01513386339257,50.56222740074526,32.707998654883525,104.22726850729444,74.0458812294129,63.28277881505193,66.05724547246047,76.14196416540125,38.80356597538713,33.06758996456472,1.3326792090362003,17.948305370820663,23.963262606935043,23.96326260693499,27.082223692402124,57.39093389089192,69.67340426189199,62.71472455890655,400.00000000000017,395.8884063535487,386.7622707563774,371.6290640660438,{}
122,202,49,0,8.080000000000004,18.864100758713285,177.85244756629876,20.472354130522632,29.35912442699965,47.13928712495491,52.53425333474749,35.235438189185736,103.39944230796976,74.24141481412204,64.75190304668769,67.36286687921546,77.80672220932644,37.5978791883993,30.80937322382715,2.610963832527773,16.71016852817752,26.677867134944783,27.695915002109547,28.45950577455216,57.44120431561004,69.97383071174312,67.95732479561829,400.0,395.94644549895526,386.8546261253177,372.6104280780919,{}
123,203,49,0,8.120000000000003,23.156526968694035,170.58158713903546,17.76024544828806,27.656985050432382,45.36691225388776,47.98554078260563,37.67516997606624,105.8561285924047,78.22576670534299,66.7486693708122,70.4240510720515,76.17072839305706,35.7337428537864,32.556717993393136,1.643020209664087,18.400268983111232,23.992770391302816,23.992770391302816,25.813326990695543,60.56592981406647,69.17815896993648,62.791949960110266,400.00000000000017,399.7041784385204,388.9858672606709,374.1578353536517,{}
124,204,49,0,8.160000000000002,14.86588292494344,168.6633430822363,20.096926495431383,27.18801973004473,44.59764877482998,48.21049925609175,37.03633142854315,98.95626002614289,71.77365408324319,64.33230339204147,69.79635193637148,71.6736647043956,33.82978658800948,28.19784828393756,2.022308469619474,16.9339716757936,23.58593728085979,21.023533249105395,22.81011326676293,54.74732438131747,64.1949390431615,64.2081773312198,399.9999999999999,394.6102881094284,387.6547988790061,370.4661786991037,{}
125,205,49,0,8.200000000000001,8.666010722624213,152.67927124719796,15.97933422492206,22.09407888983252,35.625631744214324,38.16981781179952,43.330053613120974,89.6000134106672,67.68370743777918,63.35018873587308,71.52713104634506,75.1510904553055,30.112645766827484,16.246394299491953,7.908216506841484,16.691711345508168,18.38338484340873,20.870517547461485,22.13532833905248,53.990852889426776,61.37697354921457,62.55155114068419,400.0,397.0886777245112,386.56625088393264,371.78095011048526,{}
126,206,49,0,8.24,5.529880520877649,154.04464604244393,17.487017634571895,19.93826776521414,38.51116151061101,39.587919899612366,47.24731988153761,86.55632126494157,66.81780056225045,65.71222777574422,77.14513709291413,77.76229818965754,30.210035685585183,8.732829518917924,14.179276197677552,14.456998691212108,23.623659940768803,21.05715767477066,22.33351718839868,51.42494838613652,62.672709374283386,65.54716462070024,400.0,391.9004125971997,381.2209951964294,369.9754567497174,{}
127,207,49,0,8.28,2.8120941087258746,159.29960873695012,18.86410075871313,20.27829900088274,39.16793861831589,42.83254136878569,47.139287124954926,86.81130820545906,66.84271389707978,66.31572259952912,79.14215574000417,82.77094454031004,33.970804245287525,5.741655006544647,15.214207589161106,16.67514853473881,26.67786713494475,25.15213434495087,25.84922931126971,54.08623307122559,69.62247603011087,67.95732479561835,400.0000000000001,399.5648302539169,389.5131020642074,377.11429699963935,{}
128,208,49,0,8.319999999999999,7.902222256855439,159.93461440832655,20.339589412114663,21.27738459788651,35.33981227928103,38.91393166297859,47.74145741157321,86.24833050318598,64.98346720400977,66.40073327289673,75.84035514123758,81.27622222039639,30.821212348261326,7.522439286597887,15.6531413200139,13.297085617149037,23.870728705786664,26.504859209460733,26.470978779246195,52.07961037313015,63.19772944155108,63.77098257328929,400.00000000000006,395.9991149656349,386.0884600140176,373.84485630148936,{}
129,209,49,0,8.359999999999998,6.279194996010929,158.10609011637612,25.88978421240336,23.9927703913028,36.50583782314868,40.20646567052529,45.36691225388766,94.39699939262994,70.42782728850575,70.66486480793782,76.99712042294271,79.80972966543555,33.04427377989657,15.935529161196314,9.766435960811236,10.32584995379318,23.1565269686939,26.64036817243221,26.618782499394683,52.91124016954984,63.711038089619535,65.31570221727719,400.00000000000006,396.11718225777867,382.7837647380927,374.1578353536514,{}
130,210,49,0,8.399999999999997,6.285393610547114,162.66909530670287,25.915341754867967,32.90089870812766,40.92751798478705,44.44444444444439,39.15149430319154,102.3187949619676,69.42444156361474,67.12305800038365,74.51764376144814,79.64826543892656,37.938783789787465,25.22040535435167,9.102217373598704,10.817575826008692,24.01645526418899,24.01645526418893,25.3363079524874,59.46575968354472,71.67416668718286,67.92879350948553,400.00000000000006,395.5805235565623,388.8114208554763,377.70979780517285,{}
131,211,49,0,8.439999999999996,7.985638763726254,169.63609563476768,20.55429578771354,29.476635842339604,43.8301733655013,47.32796456191129,37.87921059705911,94.90823324739894,65.66943801858801,61.676906470526944,72.28326331969407,74.37001696013652,35.76507461194751,21.39314728378622,10.12781560079486,14.09735448073468,26.02999771778172,24.12271007765576,25.448980487202903,56.62476607787608,67.32526218901825,64.50597124936132,399.99999999999983,400.0199277618755,391.3166704197837,380.1050808120659,{}
132,212,49,0,8.479999999999995,15.036949115489437,167.77001064815323,17.660001120858265,26.490001681287342,40.65637575854716,46.80733241823036,36.299787564975055,95.4293910490393,68.96450901534715,61.40605240146283,67.79390416277329,70.16497490201436,32.74261501096669,26.42495942285734,3.0730324712532138,14.83479126985685,25.74365424965965,23.85734776225973,26.487356021258336,58.69959994581586,66.37438154914878,62.74894381427866,400.0000000000001,396.6331674224146,390.86094976670586,374.510710145964,{}
133,213,49,0,8.519999999999994,12.652590581641116,165.57499295805866,20.59692521544367,29.537770124455257,43.9210767575312,47.42612234195632,33.1149985916118,95.73421944333612,66.22999718322343,59.9353864960496,68.5065221431883,71.82236294098635,37.06859759802643,25.556999356614146,5.599391535904374,15.734603031061056,26.083983702900813,24.172740365072688,25.49443632269333,58.37131064803162,69.6952197876821,65.31727559053435,400.0,400.2800560455108,391.83216157375847,374.7068492469544,{}
134,214,49,0,8.559999999999993,19.871253923137058,165.30208071123295,20.458708083025574,32.892778036966384,40.91741616605114,47.107865972947394,36.53285583929795,109.3099598608374,76.44624019970686,66.6492854940185,73.26345594667612,74.16929275010989,37.29548769999212,35.59313922457352,1.9366166142373231,19.61605215711484,28.6587299710542,26.66008474217624,27.99504258887589,63.486665619961286,71.7016683545491,63.15183289521905,400.00000000000017,400.296040499387,389.2027439691674,374.93006916236106,{}
135,215,49,0,8.599999999999993,5.626969990407236,163.10935094926495,19.89434318875056,28.692029783487275,40.28297472553804,44.485103737756376,38.26753318903141,88.12093712443878,59.61667820658797,58.7395183507972,66.70311899488593,68.90107277265429,29.544958389568592,20.307181642425803,11.706492946810158,9.890791999957967,23.20059162262966,24.038426336414226,25.308322846913484,58.07057589669387,71.83167780967904,63.225211729254674,400.0000000000001,400.5537155960748,397.9365965248821,379.0694692196065,{}
136,216,49,0,8.639999999999992,2.762301832183592,159.44967113501866,17.470330749112474,28.1700618894738,39.5501433559642,42.882456206616425,36.85370308871332,83.09892795900845,55.03847409401496,54.63504085201572,63.16130135273096,67.24841111943846,28.38652287549337,17.893984776929187,10.046047115646388,11.093583652491589,12.353389342269155,9.95962089424581,10.793060875527829,61.92486478465139,70.27081161918841,66.41024014551407,400.00000000000017,403.3339054749075,400.343216766358,381.9675176117308,{}
137,217,49,0,8.67999999999999,3.892034043284205,158.21489393455315,17.405705383053565,28.73259699674757,42.72382758820862,44.80067624172632,38.92034043284158,88.10966808170063,59.40932128564773,57.74900022028555,65.34034242060761,66.66197736843458,27.254691424086783,22.09709162768945,8.429452167236832,12.781176995446913,12.30769230769234,11.347131639745053,11.669069539348754,57.24935774000954,63.6963574855061,69.6228215322138,400.0,396.1662432712969,386.4693776764942,371.00088518052576,{}
138,218,49,0,8.71999999999999,3.9932172910157138,156.83230641058665,17.175476999647977,29.479573371455825,45.965382889277215,45.96538288927733,37.671936579644495,87.66908262685688,58.21064482394282,56.50349450908533,67.04464622060362,63.603962367113525,27.6553079544683,22.25083756195784,8.585479992907153,10.61418509520081,12.62766183157714,14.397749696826615,13.316420291456213,58.085884488874456,70.03090013117998,65.18858431363299,400.0,397.0491113336526,386.6828412188001,373.7659916896551,{}
139,219,49,0,8.75999999999999,3.932830591311392,157.16567330860588,17.5881530923258,25.63891865013161,42.54006706405954,45.27027977541089,36.577438863130816,82.96315221036248,57.330364971281526,55.65332709002041,64.52980298834177,63.9009518347824,27.74201050510805,18.744601692640344,9.21508805793053,10.617909862024815,12.436702320130788,11.46607299425625,12.81888889948317,59.11200843459801,68.01267091574846,64.20278184454229,399.99999999999983,398.1687502988328,387.7878655681586,371.6993073420291,{}
140,220,49,0,8.799999999999988,3.823246234138678,154.82967189025152,13.78491033591147,24.924516045278768,41.35473100773476,41.35473100773465,35.558245426806444,77.41483594512587,52.49137470149034,50.84589724756478,55.87355496310232,59.33758707332896,22.163390631173115,19.78988714824004,9.510051117428134,11.2741415439325,21.79585700133864,20.588811069093023,21.60208913183084,57.33293886139222,69.40893969009949,67.58608345763436,399.9999999999998,395.0081353659679,389.7930318907447,369.35408136375327,{}
141,221,49,0,8.839999999999987,2.693801203425964,151.09319392209716,14.50656343810624,23.0158475712126,41.20723470602646,41.20723470602646,35.43142294319009,75.13725780559672,52.30415830686307,50.98135699459203,56.67795557904742,61.25443646431199,23.63448345292295,16.145696549762533,8.304872655427857,10.289081151137111,22.213653792282667,20.515378757595425,22.818397700655453,58.63016071192243,71.17547894285792,65.59834601331444,400.0000000000001,397.3151310327157,390.1643486620049,372.2225061517634,{}
142,222,49,0,8.879999999999987,3.834824944236905,163.2617890527537,16.494205756247023,25.000000000000004,41.47997390662293,44.14215005824593,33.54101966249684,78.26237921249268,53.27509074715547,51.62506123564288,55.79940378416211,60.28033646336371,24.503626598370488,20.21136476881952,7.051573005690898,8.4194366656576,24.554860546755027,23.16818305095056,25.305477709385457,59.667156201999376,72.2137677037635,70.39802804724843,400.00000000000017,400.45011439334985,393.1864547963143,378.1145173559117,{}
143,223,49,0,8.919999999999986,6.112750359265022,156.0129098000794,13.939215478799586,28.540718799853835,41.81764643639909,44.5014943411881,38.66042780657981,86.8785061154265,58.43993950766068,55.4174297158246,59.44242640883351,64.9738080027904,23.69567360062501,24.66804903933223,8.169547743235967,10.114298620650288,22.039834854440787,23.35678632728691,24.49270264874576,59.64965396134494,69.99509100595014,65.72272727118556,400.0,403.7100249101879,393.245160413573,378.1021463423072,{}
144,224,49,0,8.959999999999985,11.303075311956013,159.14284256624856,19.384614237596875,30.649766277267187,41.48488607509035,47.3238743561538,33.90922593586804,95.1624652175669,64.52485584699964,58.87458895249404,57.68520331709021,62.14539944985495,26.01781077446094,35.235549448841084,2.52744447523321,7.284987016849072,24.82441865160848,22.60615062391208,24.233732321354864,59.469281770196176,70.7684453065333,68.53496089045018,400.00000000000006,401.6405998426847,393.9228346062676,379.1662257811646,{}
145,225,49,0,8.999999999999984,16.4942057562469,157.9510348549978,16.49420575624712,32.988411512494025,44.14215005824602,46.81000395842995,34.29971702850175,100.00000000000004,67.0820393249937,58.83144404736822,56.80060212012427,59.16204622157068,23.850585424608767,42.017962045069794,4.297828264632472,7.887223298831032,24.55486054675506,25.72478777137629,25.598054059679043,61.20863110949091,73.42516859430697,64.45472647297392,400.0,398.31446341390375,390.97352099297854,373.1523108046143,{}
146,226,49,0,9.039999999999983,11.440663995027892,158.9145608185481,19.620576882381545,36.496382679700574,47.89993258551353,47.89993258551353,32.477833701171974,99.62153491564972,63.27445919842678,57.49626500211082,58.69983984755095,60.58780038941825,27.42262687061964,39.97756447403572,1.3687713928536596,7.7563712261707,25.126598277598152,22.881327990056068,24.5356205420145,63.293877166094376,75.07789754824796,63.274459198426776,400.0,401.0764592485108,390.9372248422803,375.53804655042615,{}
147,227,49,0,9.079999999999982,17.736222971885255,163.35148015946328,17.058153033382528,34.11630606676506,42.89820032418988,45.65139795415194,35.47244594377048,104.06342471177229,70.10857709969741,61.12979242870029,62.52306405100683,63.948000937456754,27.96042823856112,40.78486021661024,4.638961196998025,11.589486676459046,25.39440668498245,25.85476573632825,26.15550818239132,60.60731557033535,73.2734212276676,66.65847414231409,400.00000000000006,401.5208247657524,391.05254618856566,375.2793667344157,{}
148,228,49,0,9.11999999999998,11.562602745752448,160.608329906301,19.829700114614443,31.35350884014163,42.89820032418979,48.4104674584722,35.472445943770445,97.95149290290118,66.65847414231422,60.83880457515204,61.61727706486886,63.12704189341093,27.081406611971488,35.57383377252006,1.273864074082212,8.492427160548573,25.39440668498242,23.12520549150496,24.48649831291505,63.740383855006144,75.53542157799012,69.37561647451471,400.00000000000006,400.3832030257708,392.3375197677981,376.7643021776728,{}
149,229,49,0,9.15999999999998,16.888420054372546,162.3208056260872,20.2127821429409,31.65627692817897,42.471352275579946,47.92877094414806,31.65627692817897,100.33668509470978,68.68531137338084,60.256975931202646,60.04499699307337,61.630913493151866,29.19813595936705,39.48303999453015,4.749898428453207,9.900201517817097,25.14172585321851,23.72190653150173,26.23828189733933,58.93014479994872,71.86871109761955,66.75012441677565,400.00000000000017,400.8278194392008,395.3477774052211,379.3270303484547,{}
150,230,49,0,9.19999999999998,14.22928321209714,160.42870629766188,16.974508633437203,34.51771708496554,42.68784963629132,46.02362277995402,35.29850733214298,100.848150502371,66.33161530478421,59.22994258921835,61.96729425610124,66.8865929038326,29.19841778008356,36.41867869852808,1.1108093720683885,9.997284348615608,25.269885589118505,23.011811389976952,26.064348480319097,60.77714135745634,70.85376923264835,64.42581986258628,400.00000000000017,398.03860594329166,389.6649852627297,373.90809265662193,{}
151,231,49,0,9.23999999999998,16.860418425525236,156.6516386583866,17.53062831651142,30.99006540266509,45.12221632147858,47.849303258552446,35.06125663302261,100.17032313741912,69.29589286752369,60.87339661714145,62.45583988942724,66.18198710200159,29.3336651902041,35.850525168681315,1.3174035123954582,12.293167686673428,25.1000399362615,22.857142857142907,24.54735893806867,60.81882960775215,71.40482942925019,68.57142857142861,399.9999999999999,398.0649473150233,390.3075402684349,374.608238741506,{}
152,232,49,0,9.279999999999978,17.003083524559997,161.35384634410977,17.678964423112905,34.57582421659499,43.39456582360279,48.817636115822935,35.357928846225875,104.4406426123081,69.8822428126519,61.37697295624645,65.96797686579288,67.07615022326962,31.250488680843542,37.8995288257039,0.4591003909546316,14.152956879774138,25.771297775463232,25.77129777546329,27.458952693476817,56.24771341592566,68.35846510834983,67.20332257719743,399.9999999999999,398.0908681538872,392.5367130031665,376.82537453700667,{}
153,233,49,0,9.319999999999975,15.02779798748867,164.47930282891815,19.732465474736458,31.199767375401844,42.68784963629139,48.73559460641883,32.66304227670754,98.1479423749004,67.09038261410431,59.601162069743054,60.37056030222516,62.56217950990117,28.90294976364248,36.67464908164277,1.5776549615540034,9.489244867278105,25.727987276696226,25.727987276696165,25.693237945308454,57.18416358184504,70.24061843608524,64.42581986258631,399.99999999999983,398.67394330844377,390.7825354000835,377.6486654983848,{}
154,234,49,0,9.359999999999976,8.880122724144071,160.08868907157205,19.856558059726783,32.01773781431432,42.95630294314359,49.04208068255,36.50583782314872,96.82999181011914,64.83097787677849,60.36506262532856,64.4710488072829,66.27674062726265,29.11874330567605,31.4425901696502,4.027477841955147,9.460254969894777,25.889784212403303,25.889784212403427,26.22963639370829,59.7134434033357,69.90382593522253,71.0409817931527,400.0,394.351443031461,382.8661591349437,369.5347600512716,{}
155,235,49,0,9.399999999999975,8.880122724143975,160.08868907157225,17.760245448288185,32.01773781431447,43.59407721537671,46.31305393738787,35.520490896576355,94.14605433354428,62.16085906900852,57.69142408374216,60.90174882817291,64.67860146867986,27.287760327662,31.34787691620681,4.39059119458932,9.3004996272482,25.428801636845844,23.15652696869393,24.88001676933891,58.21074132181195,68.50266476719287,69.3559756282577,399.99999999999983,395.78857407355264,387.5336834912747,370.6852977200285,{}
156,236,49,0,9.439999999999976,6.1718401083328605,160.01618811546516,20.09405557427272,34.140932557247055,44.93167420773226,45.52124340966262,32.306502795032515,92.53644687673815,58.48612320020715,55.38488583393513,59.78654342736985,64.45736713263301,29.86952176264117,30.40785398629862,3.950408523603983,8.732065333737978,28.147921676649368,26.18489995800786,27.494526658270047,55.73321844924294,68.00402648849399,63.06158987611301,400.00000000000017,397.7366687529551,386.2704203463048,368.2473798267436,{}
157,237,49,0,9.479999999999974,9.989919110319525,151.88417750968944,16.853540832571205,33.70708166514228,39.67045905892789,43.01290915635333,35.04695467173698,94.7726940883574,61.332170675539786,56.52809297842708,57.90105336065011,63.44023835099841,25.636484378407204,34.06362051756969,3.148340186821997,7.787999409506824,25.544638343965204,26.285216003802805,27.601238028829982,59.7474483574328,70.49441410793787,68.43136659161222,400.00000000000017,395.1534425547173,389.1829791104034,370.0421551961416,{}
158,238,49,0,9.519999999999971,6.225124883093807,144.55163559646644,19.68557334956612,31.74203325344756,39.86024801998472,39.86024801998472,44.018280185687765,101.33769116020105,69.59901203511649,66.5352291213818,67.55643098511018,69.44172673353194,24.508844729481893,32.83556761834416,1.7281877693865226,7.541182993686675,25.666847425656744,23.78616877993737,26.786910425491328,56.558872452650405,71.79834641905882,67.79386790469742,400.00000000000017,398.48579898150007,392.31130156273855,372.9364199679355,{}
159,239,49,0,9.559999999999972,3.947742213250729,143.04778868803425,19.738711066253924,29.143857633031047,37.96816882417557,40.64449371959149,40.64449371959142,92.7929382642392,63.65543049413272,61.85420683940112,69.06936346959179,70.33026462826598,29.07077671387492,23.04647117798754,11.978561007403869,11.698360749920766,28.46757394437881,27.492843182193504,28.230175941425443,55.89995136788468,65.28665999356951,65.346761140437,400.0,398.3993689456009,389.3082351591015,369.7097994385674,{}
160,240,49,0,9.599999999999971,0.0,128.62646193027757,20.2803132337702,31.76204084021409,37.16607721521037,37.166077215210485,42.61324945370607,94.59133989474265,62.848601007178495,62.731741689248224,84.52836380161409,81.49497449759758,40.55985492071534,11.47684406777364,24.97073566244501,20.936640608649896,25.683025711174785,29.08372119067013,29.083010852941584,59.119819373640894,73.58314466341034,56.40643496552009,400.0000000000001,397.57729792848,383.8327472280107,364.1730094247533,{}
161,241,49,0,9.63999999999997,2.749157125950681,128.77094236489717,19.43947646306967,34.00519563514121,30.736511072267216,36.6783308339317,42.67839549072487,96.69063494059252,62.69042789490052,62.2902806924634,84.08800033702414,84.70857598526788,41.73371234439037,12.256369052813398,23.73701854532237,20.478996392042973,28.03601166230937,29.60932840790424,30.79606654409463,55.85180834193488,69.0390408671139,61.77962266069832,400.0000000000001,398.4096870010422,384.8230826140918,364.737629023258,{}
162,242,49,0,9.67999999999997,6.107190525937349,130.55682167885806,22.52220582521497,33.78330873782235,36.43900149394211,39.76714356717363,37.14858969656387,99.4178589179338,65.66294936631635,62.654489045112086,86.15955566105208,87.5467399203535,49.70743595829936,12.561724125895807,21.347224434804502,27.820750978210867,27.85307421628813,28.514759676668422,29.82446157497958,55.48737037205507,67.8178971214005,63.05507857740359,400.0,396.9297996957668,385.52773938926094,363.78560888157017,{}
163,243,49,0,9.719999999999969,2.7491571259505494,130.40397245529346,20.014165979818824,34.0051956351412,34.00519563514121,37.39257957249663,39.361939804191486,94.03564184235086,60.04249793945648,59.62600526425149,79.83821043857404,76.80637966242568,39.11061701231415,15.664459010100018,20.51538825193745,19.504777993221182,28.03601166230938,26.08079449105868,27.387538011207084,54.370831918927536,65.89178886829154,61.77962266069811,400.0,397.6406564212368,386.76253976237,367.4112478346676,{}
164,244,49,0,9.759999999999968,2.797134405100219,130.26960946108744,23.065761202555308,34.598641803832855,34.02860870310377,40.04886990215939,40.048869902159446,98.37804434324748,63.78447818789231,63.38889067787801,85.08805271585771,87.79074004199123,46.48932854665247,11.913569995082751,25.411473939967664,24.1533263915951,25.788305000845337,27.548579008343985,28.246189095251395,58.2941697412586,72.66190408995658,65.47923764329582,400.00000000000006,401.1231176350005,386.6930828736123,371.1028959913989,{}
165,245,49,0,9.799999999999969,3.944669591516943,142.14500699929985,23.0011786291946,37.21393849856876,34.5017679437919,37.93861729461264,37.21393849856859,100.80155294247164,63.60588595737082,61.88220259074495,70.33001539657522,69.8878868758963,32.938574790582834,30.664770969948226,11.05321301697404,10.768987539394743,25.2582094701067,23.83181201247012,25.090793548531167,58.32938412100333,69.69840322417679,65.29590020077391,400.0,400.5053943117898,392.4202830895872,373.07900058286,{}
166,246,49,0,9.839999999999966,7.799034441818531,144.46645606624614,24.96909323149104,36.26760660849477,39.47960286030277,44.88681408489882,34.8783423415368,102.32053797709275,66.29179275545775,62.87437037758633,72.07166968893563,78.6635906970701,40.52461915000697,26.901315733196043,15.114333168650887,15.93047576965796,22.737897328242862,20.999542902855648,23.47979482897392,54.39904336712789,66.07616058153724,69.75668468307381,400.0000000000001,397.2534483474143,389.405406991361,373.1534400629728,{}
167,247,49,0,9.879999999999963,20.48247993692404,150.80384554709278,22.683041202301894,37.5365716554665,40.28297472553808,45.80021748673778,32.93099757217056,113.27553205948848,75.75540190785695,65.51224269801435,68.54456394237889,72.41527891580529,37.649363253672846,42.77375109298657,1.966699308360376,15.365328062529215,25.93904999320605,24.038426336414247,25.30068552468464,61.11655221199766,74.28011730381252,68.51283679876208,399.99999999999983,401.2546493474137,392.44838189170014,375.7556413200895,{}
168,248,49,0,9.919999999999964,33.42550864205019,146.8048003645145,16.88475975450208,37.034290147934186,39.74394325887288,45.78028327374277,35.1118744504756,121.94743729195628,84.92429455368975,68.27954209522835,73.7799915506352,74.047538448323,38.84938334956109,47.78859734289756,8.286084801921902,19.55453061042317,22.89014163687133,22.890141636871384,24.590707508077514,59.47410155073595,69.97138277178414,66.73565737539624,400.0,399.9133062806641,390.8710259423968,374.6660765455528,{}
169,249,49,0,9.959999999999964,24.84777182577712,147.07821048680194,22.62741699796948,39.28777687480812,39.287776874808,45.254833995939066,33.381925366528385,120.0156852493971,80.74943088490029,68.12481243696743,71.93244051914542,74.61364529367893,40.051487889409486,46.365804459021206,4.783332778236058,17.72926825764125,19.9764567310975,19.97645673109756,21.29891958468301,58.92304457170388,69.88584042497479,64.23486317459407,400.00000000000006,397.9902452248267,390.19512464165626,369.1643982579798,{}
170,250,49,0,9.999999999999964,25.68364856402172,150.01899606479208,17.61883756010836,37.16697854970498,40.5616101250715,48.09006763795112,31.762811118521164,112.16019696482626,75.0094980323961,62.18286618631527,71.25897601276887,72.49771016231108,40.11592899671348,40.25885986012247,0.1588120704540188,22.662482453804387,22.972153639746807,20.28080506253581,21.995471757897235,59.82450694007139,69.30558754618306,65.21350386600933,400.00000000000006,395.9341304681791,390.1090744577638,373.75198546130974,{}
171,251,49,0,10.039999999999962,20.10986088565708,152.15243942922638,17.470330749112442,36.33240804420506,42.88245620661646,48.241527553403394,34.167786671789685,107.87133494783907,71.71352656051002,61.65873517458277,69.91821840764834,69.22533516216714,35.41578225198225,38.21880992688352,1.118061600662827,18.109448461440365,20.109860885657024,21.037064003821985,21.810074886169616,57.39907794952211,66.06011851803714,67.26644533023958,400.0,397.9632441183809,386.8208975623953,371.10576750666814,{}
172,252,49,0,10.07999999999996,19.53242357220997,149.49642847237374,17.470330749112367,34.1677866717897,42.25509283421085,48.24152755340325,29.75090122671589,100.5493044282852,66.41024014551405,56.71893230493214,65.0366416436512,64.3001361006655,35.080079232210664,35.88062873545596,1.6331209866204972,17.67613303165706,20.10986088565697,20.109860885657028,21.814973963435364,59.737003932167,66.28549886871394,58.5321264266552,400.00000000000006,398.6241778375463,387.4023685579248,371.6297035474013,{}
173,253,49,0,10.11999999999996,22.93159179752436,147.83110554301683,14.975410810765316,31.09100441967214,42.53903901715064,45.269185748663794,29.033072256972584,97.80579686519096,66.85650432179723,55.35788944896064,63.60610242814067,60.229640974674965,32.896381589478096,35.88696173397625,1.8007794418483627,15.644271401056812,20.24499532401547,20.244995324015413,21.94699944752574,54.34495101292089,65.4551170336099,61.55704816534287,400.00000000000006,398.60559273508767,387.289598938713,373.5995276449757,{}
174,254,49,0,10.15999999999996,22.270389349661016,148.06040891108873,14.875450613357918,34.16778667178964,42.25509283421087,44.9670159583932,28.839277798121284,99.82578176093772,65.65916499490191,54.622505028460125,59.452957888956405,61.32435850047324,31.56588980195193,39.43536929653544,2.311259729608423,14.547340651064133,20.109860885656985,19.532423572210075,19.753673121566123,56.12602346848212,66.33075500820627,55.0384740940149,400.00000000000006,397.9632441183809,389.5237379535429,373.8201749516948,{}
175,255,49,0,10.199999999999958,22.270389349660803,148.0604089110887,14.87545061335804,39.55014335596434,42.25509283421084,47.684722928849794,32.33191400853924,108.54124018205466,69.05754580458824,57.9925395307161,62.92333691264759,64.57753990529551,31.5571032443612,44.79072718554482,2.3540581049220464,17.24188503875382,14.875450613357984,14.085030944736948,16.09666758230526,55.28855386965682,65.7863805537691,58.53212642665516,400.00000000000006,397.96324411838094,390.1011802117668,371.105767506668,{}
176,256,49,0,10.239999999999958,25.813562896224823,152.14938892651014,15.077782975008285,34.06193741697243,46.176705101939966,45.5786466761251,32.77168505736726,107.3122712781674,73.49335946431026,60.44410649482956,61.706501468253634,65.311075794886,30.90882787132148,43.786844518453336,4.374714656331548,15.934759192844126,17.70795805675883,15.07778297500834,14.942310314366123,57.84786022873067,67.07366500306318,59.3282665692393,399.99999999999983,392.6717239661492,379.9791118320999,363.6388579487746,{}
177,257,49,0,10.279999999999957,25.485386999122625,155.09818033927573,17.799766379599372,37.01752327888744,43.05189132354873,45.38067805348513,29.38309610360463,109.29114536615285,72.35774709287483,59.723549214054174,58.21278128452752,64.6094369861404,32.06363850431592,47.81419776959399,8.277079613896149,15.059463297515777,17.79976637959942,17.119267125980986,17.743487172313223,58.4377892740315,66.50593289767392,61.46720932157384,400.0,393.2096913685352,385.2734659490017,364.2869068399927,{}
178,258,49,0,10.319999999999956,28.092313935684903,154.62778665277938,17.678964423112927,37.293816306164345,45.50401974400963,51.00925057368018,30.10619157106567,112.54296005997617,75.2654789276643,61.33000915897321,61.48271131780177,64.47245884854976,33.17655324442956,49.555869017720966,6.992151483201042,15.720285403610546,17.678964423112937,17.678964423112927,17.61700695537536,56.98201611022415,63.12225028627648,61.0500488382588,400.0,392.636227952922,382.658724413837,364.5576505952258,{}
179,259,49,0,10.359999999999957,36.76629586718962,154.62778665277952,14.253236790213608,34.00616704912004,48.25418203533264,51.00925057368006,31.87120636231865,116.768188247441,82.7802288828118,64.41930896773863,63.72782471355083,66.3030074532852,33.15945182151836,51.64672050245099,11.85855755457942,18.487268680932857,17.67896442311286,17.67896442311287,17.612978244603198,57.38524500272342,65.47640558620992,61.05004883825876,400.00000000000017,393.26259307165225,383.24023420161006,364.0321579520764,{}
180,260,49,0,10.399999999999954,33.83148796663604,157.16567330860585,14.180022354686583,33.83148796663604,45.27027977541096,50.74723194995394,35.17630618465168,116.73287815015952,82.9631522103626,66.07535461404535,63.99095856943819,63.15720015159542,28.55622581111743,53.15209913748129,16.46672875239608,14.799211916710531,17.58815309232586,17.58815309232586,17.508926774699717,58.988408062381154,66.07535461404518,63.414987815091415,400.0,393.3322164413888,382.32494311096247,364.3975002778012,{}
181,261,49,0,10.439999999999952,31.569154578942754,158.95312288867234,17.175476999648012,34.35095399929602,49.312595863766965,52.06518353617298,32.19434704513119,115.1819975746126,80.85648753587698,65.07382599899296,61.720328217449776,64.77041429494858,31.06776159043943,51.85944783600735,15.098724535472002,16.280433277539487,17.858210623277433,15.205718425394128,15.042832905779504,60.586526586547,67.59693385367791,59.831668728345,400.0,395.4091746377185,382.6514924055874,363.9418326659925,{}
182,262,49,0,10.479999999999952,25.52775780044508,158.69632296485292,17.82935943089895,32.14233481839193,45.89112258781364,51.98106857873913,34.86996086554183,110.08817352663112,77.97160286810886,65.29148663528929,65.47406465262816,67.44273197002042,31.593935174279864,43.628207969306914,6.429921480192547,17.00357013650944,17.1477288113463,15.181152520287617,16.376454337823816,56.45629823102456,64.18808035658958,61.56940180207645,400.0000000000001,395.3637840400814,382.0332920688253,363.353859097403,{}
183,263,49,0,10.519999999999952,22.384368083034623,156.29650974777746,14.157117425193302,31.65627692817889,45.19715488600948,47.928770944148106,35.119486047642106,103.0279670600712,71.38202927144903,60.25662419544307,61.3498607069933,64.30803009118785,27.84537702948444,40.192518806992325,3.4083255948328315,13.954842529787811,17.55974302382108,14.951582421951471,16.14131555288816,59.549235864439936,65.85142281337642,62.63932245540337,399.9999999999998,398.7260499419284,384.9650781427813,364.3064832271497,{}
184,264,49,0,10.55999999999995,14.32159130533375,156.00272564679716,14.32159130533364,29.32363810815826,45.7222442253254,45.72224422532528,35.52749552904369,93.36535248406082,64.04810340939225,56.82037387499315,62.97967660491565,60.43211160143994,26.36246063723422,31.522085960729783,0.7255723111165935,12.624958213427703,17.76374776452179,17.76374776452179,17.671716732971788,58.30376615549807,65.36600331703227,57.90273357594194,399.99999999999983,392.74557650106976,382.3540968257463,366.65038077938505,{}
185,265,49,0,10.59999999999995,6.228142540396003,162.83942887576856,14.99935349007592,25.679289545455656,45.34156210018609,48.081905810898085,34.45238222252308,81.10945204963532,55.49690896416841,52.29158345852204,55.41358821226788,55.621189551391694,21.07153592106272,25.479072043998144,5.182048811204936,6.699135520186246,17.615847298041842,16.942379417479554,17.222926480383535,58.9587803111508,64.22866045813873,60.83208903722644,400.0000000000003,395.4944073206059,382.9269497895087,364.4926971826141,{}
186,266,49,0,10.639999999999947,8.748526373330208,161.14871069933324,14.898203574393811,28.21314981583049,45.03579590923943,47.75765978777318,33.656252952933734,85.22519657114773,57.033414174993496,52.66727745298857,54.549116993940345,57.16592390925524,22.25901190928323,29.366388716311462,3.747525952796536,8.028105166120213,16.828126476466778,17.497052746660575,17.41307317721879,59.007380627439886,63.98254439235944,60.421860644319786,400.0,393.4016888405384,383.0615975465936,364.76214593145545,{}
187,267,49,0,10.679999999999948,6.2804332517903365,163.60498484450227,14.321591305333865,31.40216625895189,45.72224422532536,48.48559552155231,38.202384058029374,89.92211949898544,58.64727621631662,55.46819685474259,58.61641357272822,61.56333766168689,21.989206794934265,29.799360801190687,6.594346526931872,8.124170507538906,17.084625531261604,17.084625531261675,17.367528032469068,58.82575790691664,64.13988331323537,64.04810340939228,400.0,395.4977865447774,385.11911670273696,366.6503807793852,{}
188,268,49,0,10.719999999999947,22.18800784900919,160.89689447247758,14.032928308912371,33.48054279073351,44.80067624172624,50.22081418610005,34.811410766106945,104.18008986490828,70.75585157811591,59.68240377404561,63.81500178094416,61.70064931229854,28.15933060514556,41.42208699937805,6.054736614758326,14.896574210913172,16.740271395366644,17.405705383053473,17.010926679558906,59.5862968436528,67.0826374143059,62.08983756617567,400.0,392.9219926495493,382.7771456020676,361.9800903348367,{}
189,269,49,0,10.759999999999946,33.36370685393079,158.68183623571133,16.853540832571152,34.27172867865232,45.103810358517606,51.08927668793053,35.04695467173702,119.0113771767835,84.7672745569439,68.2156335326539,67.40005486128246,67.71678444239774,32.71816572918465,51.45272045213972,12.510818454044395,16.612466529484436,17.52347733586846,17.523477335868517,18.77414592059461,59.59267068679668,65.1987842725328,54.43571703512067,400.00000000000017,396.133311669373,383.1295030431638,364.4293505734018,{}
190,270,49,0,10.799999999999946,41.998838543754985,163.33117635874575,16.993542532529226,34.55642257907223,45.478485934855215,50.98062759758754,34.55642257907218,127.6886457125396,93.24502209952809,72.3044240408405,70.01510190762127,67.089856959619,34.021870590896924,59.07722949335164,19.96797638418991,17.933023376883966,17.669044171975447,17.669044171975504,17.551469688014095,59.45878318222145,68.61607171509837,60.30815177678482,400.00000000000006,396.12759708297466,385.81684015390175,367.8918186694322,{}
191,271,49,0,10.839999999999945,33.29722311437748,157.84507166021473,16.87825842692616,37.02003042169046,44.74179917511909,50.63477528077872,37.74093318441564,124.09142390954182,87.12950116655965,70.74259858680045,67.78642742797786,71.58044388849885,32.12267269907909,54.3809026008031,12.94708117152834,13.547800444444192,17.549177466706332,14.9425861742376,17.420858914559687,59.091806372616816,66.03169481498685,59.8990215836632,400.00000000000017,390.1782471257202,383.1994606841084,364.55221927907706,{}
192,272,49,0,10.879999999999944,14.265782428937053,156.92360671830778,20.367928277656564,36.79865740526944,40.05768552182568,45.544072189680136,42.33764171829618,113.610703748643,76.82358948254965,69.67879055731254,70.53154482811573,71.05754278954572,28.55531357278403,42.77319786355906,4.8535266441042495,9.826598279442464,17.018049566745656,20.36792827765658,20.306709177631543,59.02334700531355,66.57859045130834,63.79851852665082,400.00000000000017,393.40982828289856,383.1385735957393,367.9865740526943,{}
193,273,49,0,10.919999999999945,3.989541163698109,143.31840125494708,22.74388396135005,34.319330756386655,37.10487767500116,40.39102581547362,48.69855609593975,109.00285082139928,74.69077428466642,73.04593888851258,74.05049993413064,74.59264399049579,25.62427936997165,34.68127419395637,3.2050280979242416,4.895241920710191,20.537420126839304,20.537420126839304,20.44202000765631,58.23264981900184,66.90695472084667,61.61226038051786,399.9999999999999,398.9241936889397,385.41941097669496,370.2328592348332,{}
194,274,49,0,10.959999999999942,0.0,142.0618225572348,23.424751508948848,31.75963793202832,37.36315897482125,40.672181482932345,51.44669235751651,106.47770903661711,74.72631794964256,74.68112678109316,80.31108285930696,78.33819226779616,28.0294821842698,27.1152158125941,8.348695551881178,7.049474918447231,20.08655870549788,17.9659642798133,17.80413460631729,58.657405635407656,69.05117070287923,67.52191643542393,399.9999999999998,395.5981316732129,387.6757867528694,369.6145127522986,{}
195,275,49,0,10.99999999999994,2.8160635851807534,148.61240295631603,25.50054033729573,37.03953350178879,39.82515314667632,42.61477481477373,48.61279467900179,111.5815224926438,74.55923883170064,74.30549992382464,74.87863305740336,74.23284924492032,25.944364666504384,37.01955705058754,3.2934974436634548,2.760725798365001,19.912576573338164,17.810349930061555,18.986044086999986,58.97620667500945,67.38754083260051,66.28226474814166,399.99999999999983,395.4639712759175,382.5081050594376,370.4488564884396,{}
196,276,49,0,11.03999999999994,2.7865938988133423,149.80372178104116,25.2336809773386,42.16881753773677,39.89795281922687,45.3624621529681,45.9576839220363,115.90354875258706,73.77898749230341,72.35309099624715,75.3691690984923,73.17267743707453,28.50521641197872,41.61859946521781,3.524221695558026,5.81906372987487,13.932969494066676,14.20889666650773,15.785234850336678,62.15743567235364,70.87783540275791,65.58863071085293,400.0000000000002,398.8627366022581,394.8417711767016,380.2143739430107,{}
197,277,49,0,11.07999999999994,8.802803258907563,152.3927713539766,27.975746400620515,44.8856655914876,45.31520327879328,47.64911137471996,39.36733295894789,120.8583533440437,75.97997248301665,71.6463192646454,74.52189228205054,71.60581823623124,33.696855640579315,47.79121352870629,0.0810020568283107,7.614193341861664,16.932530150441874,16.932530150441874,18.306464843199365,61.399559075863294,71.60581823623102,67.73012060176727,399.9999999999999,401.2089440867289,397.2005876856264,376.8278454500778,{}
198,278,49,0,11.11999999999994,11.015637383165169,156.19789267182728,27.6764463970452,41.67421050035156,47.13933483469144,52.97250393732192,36.74173335460546,116.8384783909226,75.16709672591689,69.7126335068171,74.43973408943617,71.58411360095971,36.40512786580257,43.82651444602379,1.782746124161804,7.994124022825304,16.523456074747873,16.751376580417435,16.746520152760013,59.903496461655095,65.9051395221818,62.13102681094109,399.99999999999983,402.051901650284,395.4329981273226,378.28932158624826,{}
199,279,49,0,11.159999999999938,13.86417257231212,165.09429687934562,27.86664198829824,41.960600269919865,50.218168905554656,55.7332839765966,36.99422659737223,120.387010080239,78.42760353137899,71.54744161880171,72.22264771935431,71.34406628730994,34.96428699006356,48.59856921327128,3.4167055690616053,9.387805301659682,19.60690088284472,16.8664938872896,18.23056471492152,58.91376602653349,67.21147955139725,64.73247352221073,400.00000000000006,404.5013422674933,400.6721886868637,380.8889675144756,{}
200,280,49,0,11.199999999999935,20.28393393119689,173.2822653026619,25.976109797066663,37.73029811715051,48.85018177249616,51.714087463799885,34.89779947427156,118.86454511923216,81.13573572478745,70.98284580062614,66.1794953329146,67.60271028631075,32.02233645141041,51.947345798954416,11.385719627167989,5.692859813584164,17.448899737135775,17.448899737135832,17.43438317910119,57.99600935088756,67.60271028631064,66.96770815403679,400.0,398.8566254857628,391.9053410432193,376.6699769679872,{}
201,281,49,0,11.239999999999936,28.75183457546865,173.8420952250464,17.149432510189175,31.14073126666006,48.25948706017349,53.86359346330303,37.614811740831165,114.48780242006472,83.4927350885033,68.98491039278883,66.87197533048914,66.35583852137779,29.12947116422174,47.82330121922348,13.096971531200552,11.14532922174817,19.9358103510597,20.52517299353715,18.943833821915007,61.54931448652849,67.21069011146852,59.807431053179215,400.0,398.3272690195496,391.6765275842045,373.4440786846341,{}
202,282,49,0,11.279999999999935,23.06181453043924,167.35595841128543,17.0113931152841,33.67619532973401,47.8710362826766,53.79474841680511,37.31204219734426,110.81252347566948,77.35167746183174,65.66552773707235,66.27696857363424,62.33478423264364,27.12061921118243,46.445367756201904,9.211838919253635,12.02768487710398,19.77534281394644,17.011393115284097,18.391496741846023,58.7626825032562,66.58268899191518,59.326028441839306,400.0000000000001,396.33655041109705,386.0803338014167,368.4481247457174,{}
203,283,49,0,11.319999999999936,20.360518918869992,169.4699814690834,17.514780634589442,32.19280706328913,46.42912662712333,52.148372870450615,41.22690863558919,111.25863929187472,79.06595359658031,68.82845791574528,71.03737121629717,66.68357108767316,27.723462583737387,42.3214983091234,6.8188193190947,12.581201842273458,17.514780634589385,17.514780634589435,19.143915271449146,57.7198649405064,66.04330636287563,63.9333262404377,399.99999999999983,398.6608321806073,388.93387820116993,371.0868654451088,{}
204,284,49,0,11.359999999999934,11.719174706181034,169.63658677548062,17.289141550453703,34.57828310090764,46.26957441763096,51.47655680040435,43.47909508216968,107.03127116322808,72.46515847028279,66.5049109833464,70.35070670679676,67.79220662299502,25.673502413241977,37.822355012425874,0.1689575527040006,10.933967339265337,20.098218811479065,17.28914155045382,18.883017914095603,53.71241056433831,62.51429450043588,69.15656620181527,400.00000000000006,398.7559548614799,389.221090524088,371.63775039792193,{}
205,285,49,0,11.399999999999933,4.038550218769247,159.1516756473707,20.192751093846123,29.12239978461754,43.2143744726237,46.04655712469421,46.48720407500882,93.54279684720773,64.42721833816096,65.45602524107915,70.43221429449454,68.70968731446612,23.110570315380983,23.7804419187255,8.756178815144267,5.119732968417679,20.192751093846063,20.789709679125068,20.62247578867334,58.70946123596792,67.65703193778205,63.85508568141009,399.9999999999999,396.2412593054172,389.3170789619404,370.8655880553894,{}
206,286,49,0,11.439999999999932,2.872276835339888,160.07629407157015,23.157036170978,26.48108397706932,40.620128554278544,43.46543564848045,43.93738689551701,90.69302231249144,64.2260625401813,65.63429988850271,69.54723778666414,69.72436666271267,25.723943589765213,21.0219770619334,8.687366238922209,4.983762466999906,20.310064277139272,18.165873740429493,19.355355364568368,59.78904697890357,66.31061014250594,64.2260625401813,400.0,399.4943695013451,391.5788820035943,376.21344699287033,{}
207,287,49,0,11.479999999999931,4.000300033754294,157.64430772839174,22.80521895754917,31.62514857677946,42.80507961943509,45.61043791509822,45.61043791509811,97.65976968328457,66.0352489062827,67.19722368265434,71.21566230819496,71.53458600863485,25.800927365575376,26.27931291623497,8.57904754182914,4.895478801750073,22.80521895754911,17.88988561173829,20.458955383209627,62.22201395579424,65.6663899205434,66.57826146524816,400.0,395.7366436453271,388.4309871711695,370.1628737231251,{}
208,288,49,0,11.51999999999993,0.0,159.10752325236118,22.676310995091487,36.99463763634193,42.56312116216937,48.14481656601804,45.786628261588525,105.42749516474336,68.43473337251794,68.43470398225884,70.81311121055785,74.36486600481783,26.812577487024896,32.83787579871591,4.598253974711611,3.250489878675353,19.888440406545133,17.78876188619536,17.56850139303583,58.6356662016666,65.295206440904,66.85593240986975,400.0,396.2743677510124,389.0211480709978,368.403497820566,{}
209,289,49,0,11.55999999999993,17.129446058874752,159.30061258670554,19.912576573338274,37.039533501788846,45.14493357793046,51.00108067459161,37.03953350178873,111.11860050536642,74.07906700357758,65.51360646256956,65.79803601305832,68.32629868406912,30.02311921825435,44.054977042364726,3.4763611726399404,8.912125915313482,17.12944605887481,17.129446058874752,18.74074704886817,58.0868348664751,62.82732737462061,63.533290367590745,400.00000000000006,395.8748430452061,386.3245134067998,368.2050251196935,{}
210,290,49,0,11.599999999999929,19.798098978813865,163.9301723932241,19.79809897881397,36.50589074101213,47.92612312512868,50.70787497053528,36.826592866910765,112.86652959662008,76.42168785957432,66.51968814475106,61.79442358770245,65.14521360061826,26.64366039396077,49.334689850355744,8.995081927875503,8.425772945098856,12.521417222901167,14.276612204965028,13.102239589337842,60.49314591278386,65.69825661245858,63.16803686929515,400.00000000000006,396.3676328144985,386.5246096762151,368.8721106331296,{}
211,291,49,0,11.639999999999928,19.68366647947381,166.1376079206473,19.68366647947404,33.865060300883734,47.40454631399765,50.41478476650556,36.61373611392398,109.84120834177229,75.97997248301648,66.1378832893414,62.01377505662424,60.8446103925919,24.81672119066116,48.40822187723313,8.592559482923207,4.284267775735316,14.194093756175016,14.990633779917198,14.374318985878176,58.89066396777048,63.91967361854017,62.24521877824553,400.0000000000001,399.1855326789709,389.48798585767696,371.99525895501125,{}
212,292,49,0,11.679999999999929,22.547359899372555,163.74174914947025,19.7753428139465,33.67619532973394,45.09471979874511,47.87103628267656,34.59272179565873,110.3527918602852,76.79354065160203,65.42663106084103,61.09078966141692,60.53969206298564,26.436475971815184,49.51774009435633,12.902167304454224,9.222780397279394,14.26020250111242,17.011393115284097,17.002981786900136,58.14079663451923,68.07676215918048,56.55886332208655,399.99999999999983,398.27560065160907,386.0803338014169,368.4481247457173,{}
213,293,49,0,11.719999999999926,14.227039856933748,166.59614606289017,20.120072718098218,40.24014543619644,48.70553902200395,54.36144296397397,37.96247727962908,112.27649592543308,72.03997585818311,64.96538297380584,61.83353336552796,61.14485439407429,23.693836041683426,50.7654784671638,7.509880212519647,3.3778063837971786,17.307940991763086,17.307940991763143,17.487526739415443,61.521988116537045,66.52310921876096,66.42671793321581,400.0,401.6361638807297,392.15048880480987,374.579344404532,{}
214,294,49,0,11.759999999999923,25.53029409034693,167.86378491401155,19.935810351059704,33.949461698603194,45.46064208343063,53.86359346330286,34.87342534253658,114.03562339919893,80.19054262092466,67.3381157875217,58.72750547738667,57.83418567575882,23.639888824559307,55.73322984600429,18.54465736342252,6.385582285710257,14.375917287734383,14.37591728773433,14.342745703913865,60.993890900035126,69.06685503326457,60.270804905777325,400.0,395.9253943354431,383.61803912275104,363.0288622018834,{}
215,295,49,0,11.799999999999924,22.16191902132265,161.83986995818415,19.588554030105385,33.70142265560108,44.41032366252753,49.94120962128697,33.70142265560108,108.92363381186796,75.25676705185855,64.25319134325434,54.36808498275366,57.2112928322623,22.1009819464706,53.128314118142384,16.39803596925867,4.959083458445207,14.125507193548383,14.125507193548373,12.91841240924964,60.71571180956352,61.162029320823535,58.76566209031628,400.00000000000006,393.1106065299908,381.2276857989048,361.19508946928136,{}
216,296,49,0,11.839999999999923,17.168634179854617,165.25525993464927,19.9581318386454,33.98747382223877,48.3135216603391,50.88345185005502,34.33726835970924,105.38196002403008,71.46014609267004,62.85782417453152,55.684589067040974,55.12839751936792,21.086203086784963,49.97544641592549,10.22410933222693,3.33714928603888,11.637490666212104,14.392013541341184,14.362828789912442,64.27284090611175,68.70601471256515,60.33828819337801,400.00000000000006,399.16263677290624,386.8481147063048,368.7558546012912,{}
217,297,49,0,11.879999999999924,20.00000000000005,162.43152403397562,17.204650534085154,31.24099870362672,45.607017003965474,48.4148737476407,34.409301068170535,102.80077820717123,71.6100551598726,61.57727727445331,53.7765591862684,54.7116610391106,19.85861040115242,48.5514725173158,11.63955727353789,5.389139625591497,11.31370849898475,11.661903789690594,12.98479151797784,61.04410516537638,66.99922749137266,63.24555320336756,400.00000000000006,398.8884555862704,386.6988492354223,369.2587168910166,{}
218,298,49,0,11.919999999999922,17.10149757322747,164.24850497409918,17.10149757322769,33.85456845327667,47.87758985491214,50.68447607510989,36.97909962278907,104.96987207797662,71.18070675768989,62.61430309368211,55.35312091314586,57.842198119186605,19.62414843570582,48.3721659677268,11.530526527321513,1.9038968032961063,11.591983165452389,11.591983165452412,12.915178747900484,61.38624844566863,65.11162227722645,65.21153437083437,400.0,396.167790325132,384.1026276586134,366.7970354446005,{}
219,299,49,0,11.95999999999992,14.127662183832868,159.46119546973097,17.187042834505824,34.374085669011755,45.29673081651183,51.17256887044225,37.16407679952593,102.69556914084278,68.34051234417036,61.336204429565896,56.22822699851724,57.47486491354334,19.69526004713396,45.84227605709805,8.880271381712305,2.3394698535231555,17.187042834505878,14.407445031362116,14.376811279782146,61.39286978933978,68.56508532643852,65.96271890556737,400.0000000000001,396.0283842273391,383.4925209792539,368.6318307950572,{}
220,300,49,0,11.99999999999992,5.529352154688749,153.65730391766613,16.816868051682395,33.63373610336445,44.57906225221088,47.0807370977313,36.363636363636296,92.27559410419047,58.64763606223316,55.903912523048575,52.6678915973198,50.71967491754435,15.338078775520444,40.56583374752813,4.045026157161033,1.106190826652096,14.097137267142111,13.823380386721936,15.255527221292652,62.772201834799546,66.76769705942365,61.8200364470951,399.99999999999983,393.3425825352061,384.0810755347867,366.9840647476708,{}
221,301,49,0,12.03999999999992,3.9177108060210615,153.59225203091248,16.85071132780064,30.59829955302221,44.41032366252748,50.17117803457253,36.43681673124919,86.98729662479401,56.50202877419353,54.82330422209486,52.825094693675965,53.49938762096144,16.733976914948812,33.78865412458197,0.3207002946844568,0.2549156188517827,11.421991623912286,11.080959510661344,10.986040864064648,57.33134498821738,64.23873595065317,61.50930732047741,400.00000000000017,396.1830452253054,387.011533418446,372.6976583432073,{}
222,302,49,0,12.079999999999918,2.7865938988133068,154.875469540129,16.950188954859307,31.15506691716381,44.67249856594353,50.23603593033276,36.651920295454325,87.50082330530955,56.35537394759792,54.962109749647766,55.69363738606728,53.25521193133579,17.833018158936284,32.98376831766791,0.9916263515908668,0.7965523152123524,11.489420980509092,11.146375595253255,11.05419539478271,57.09166798011336,62.45620398052256,62.86842393812631,400.00000000000006,399.22273426678464,392.6626235559976,378.2076274531258,{}
223,303,49,0,12.119999999999918,0.0,154.4989789025216,19.704194422639752,30.778935620684564,44.932476504138535,47.69880426355336,36.65192029545423,87.10056331100783,56.35537394759797,56.35525828206062,51.266158257747065,54.39791211886302,16.180728282432483,34.25355785595582,0.1468009622398085,1.2722750060783028,11.489420980509086,11.14637559525331,12.60857153459699,59.1934102186969,63.320148379438194,65.05368958416186,400.0000000000001,396.4609270569346,389.5853606274741,375.1566848916314,{}
224,304,49,0,12.159999999999917,2.751367425493806,155.64084512819264,19.45510564102409,30.76122297241313,44.36446668920643,49.600981651295406,33.471829365752924,86.39468960605845,55.64296261359444,54.27392036321726,51.49927845339551,50.34451419034838,17.46580947858854,35.444847518531446,1.7642231796554595,0.5132285613542535,11.344178510194524,11.005469701975056,12.453811809113006,57.27309976863154,61.074198801161685,64.23131928418664,400.00000000000006,393.8205495957213,387.3960508666817,370.4141757816309,{}
225,305,49,0,12.199999999999916,13.946852184589256,157.4203639254111,19.52559305842497,36.68843995242606,44.71700985786372,50.28609068285344,34.50260682116277,104.14479767845198,67.46587025374761,60.5524716955307,55.05938275126766,57.30801565242791,21.87598579557357,47.960127449033166,8.191448425655494,1.831029648087565,14.223054288483036,14.22305428848298,14.198510604469275,61.22706156587879,64.24665431886547,64.69896474968515,400.0,396.49308835220313,389.9735401175708,375.2714118631453,{}
226,306,49,0,12.239999999999917,13.972696083625785,157.38987770520987,19.7603763043812,36.43633356621558,44.79987170171846,50.3792721859879,33.6507082823403,103.73727063980886,67.30141656468058,60.30137284748309,52.30764905056992,55.88227835872806,20.48033030224508,49.52009408549248,9.88762143495103,0.6067031394579772,11.522180365488683,11.178156866900649,12.650580326807074,60.81789038512983,65.32717047569605,67.59088635889991,399.9999999999999,396.8836039445909,390.6961717669453,373.1834826907823,{}
227,307,49,0,12.279999999999914,6.274249286868251,155.57102008132753,22.447436661147727,39.38309843171909,47.78325897841785,50.5846149278112,37.43576987922312,104.76305506674863,65.50508566821922,62.48748814609644,56.15708276139037,57.14342944968416,19.37928698229961,48.11269788555046,5.829147231638672,3.436043791187899,14.307489695666202,11.56914404728426,11.310647679698434,61.0403073493373,62.44706410149428,62.3017473721048,400.00000000000006,396.0636945650839,389.4990082319085,372.1745904742897,{}
228,308,49,0,12.319999999999911,19.506157291693366,159.71340505551956,16.950188954859318,36.33273929493369,44.67249856594372,50.2360359303329,36.65192029545416,109.24727566837036,72.93214179275829,63.25093213654509,54.44363367541041,60.22265805954703,20.683683318364388,51.83164525320194,9.680682089810716,3.362935093593478,11.489420980509005,13.93296949406666,13.990462986454872,61.39805284954099,66.2955311411821,67.8007558194374,400.00000000000006,396.4609270569344,387.1259966060672,369.6099323105457,{}
229,309,49,0,12.359999999999912,22.50997884008857,165.88448206071163,19.54413475727381,33.966380168184,47.54637456704941,53.12178914850863,36.72327966268705,112.54989420044366,78.62397597457883,67.35107601983702,60.30932522901287,61.97420237618008,24.429523853329783,51.40732905436414,11.484254606989452,4.603894968186751,11.51179028079207,11.168077004156425,12.461095790276318,57.862975135216345,66.11940670177972,62.43144839811487,400.0,399.6393014388944,396.5257155824181,376.78814435266656,{}
230,310,49,0,12.399999999999912,19.840918354191285,161.13953032524824,17.067803327958796,33.787866450832375,44.98247315841695,50.58461492781107,36.9062415092134,107.54436651273336,73.81248301842666,63.87910601892349,58.13844297801722,59.99236815270092,22.165789588541884,48.478517067823645,11.367488571086485,4.89501296122603,14.307489695666227,14.30748969566622,12.888032464357591,61.48851829367379,65.52161867368704,59.983923312821325,400.0,393.651020414577,383.92048843838927,363.5276429790728,{}
231,311,49,0,12.43999999999991,17.08504672387884,158.5148766707108,19.86096339478748,33.822001924935456,45.28996476306024,48.07830176325731,34.170093447757566,104.86889591817994,71.11223421144682,62.566195303699146,54.86359052120452,58.43128579932909,22.483056649010337,48.21320923087569,8.393126449228362,4.891195139364186,14.321944380003906,14.321944380003847,14.303663096628044,59.66436020421088,63.82393119667847,62.805880852758,400.0,393.327313347643,386.8046909505799,363.64550777194535,{}
232,312,49,0,12.47999999999991,8.458048012610039,159.11224729200717,19.93581035105979,34.29886502037807,45.46064208343058,48.25948706017347,37.61481174083126,100.11667891212365,65.81837300064701,61.61179753471879,55.1306630403875,58.57632948041169,19.361363805850488,43.23490985458932,5.660737722896784,1.7228332200122622,11.624475114178818,11.624475114178772,12.962268988662458,60.21712302328024,66.94437654904175,65.81837300064701,400.0,398.7162070211947,388.8760745037889,371.4379067023805,{}
233,313,49,0,12.519999999999907,11.569144047284334,158.7273468335299,19.8409183541912,34.135606655917826,48.02977785777102,50.81754608265923,36.58484576799692,101.98309235779034,67.86638255654192,62.10493198636402,57.65952632839276,57.39803187792381,21.017616456437963,44.45405657971321,7.191097387894729,3.203307018244118,14.30748969566627,14.029647913217316,14.088013519012064,59.35924025644061,64.85062371628749,62.74249286868383,399.9999999999999,396.8183670838253,387.0250723827703,366.5901629934747,{}
234,314,49,0,12.559999999999908,11.544176275485093,158.38479183051157,16.799244051026157,31.303543057252764,44.88539491994085,47.680136266735936,36.8265928669108,96.2195757701699,64.94259327561602,59.18870241437276,54.28021110242344,55.06688082854555,17.847569411394602,41.54599491082229,6.981693819333486,0.311390099923301,13.99937004252183,14.276612204965042,14.46325069380697,57.11549990698848,64.03163791581176,62.60708611450576,400.0,398.733910038021,389.30332629302353,368.8721106331294,{}
235,315,49,0,12.599999999999907,14.375917287734246,159.48648280847797,17.149432510189204,33.94946169860311,45.460642083430514,48.25948706017343,37.08275082653438,102.470840913976,68.59773004075647,61.41160758267108,54.65954601599003,56.37435530276616,18.43419983284366,46.94290422549727,6.859237147104636,3.4296185735522613,14.375917287734303,14.375917287734303,14.575878937597397,60.87572968055355,66.234508701729,60.86138759652037,400.00000000000006,395.9253943354432,386.4154577091605,365.8316259950345,{}
236,316,49,0,12.639999999999906,14.40744503136212,159.46119546973102,19.979531465001863,37.1640767995258,45.296730816511904,48.11708355515518,37.16407679952591,108.70040319982986,71.53676751385977,64.33726716629269,60.78135137175468,64.37034545275344,25.412393573524128,46.11940089799657,5.648117413184764,4.920395111046901,11.649968685397406,11.649968685397338,12.9914970074866,60.43402936391607,65.03191118196986,54.35020159991488,400.00000000000006,396.4011548357447,386.9225973660332,369.1512441883057,{}
237,317,49,0,12.679999999999906,17.0309687084861,161.15701212658993,25.35393748526763,36.826592866910886,42.36978206388507,47.68013626673589,34.06193741697243,113.24789508985673,76.42168785957429,67.90147701934177,59.40254500836773,62.461833335705705,26.87102180563033,52.31055843135664,9.627760324269955,3.5419033308486405,14.276612204964994,11.544176275485006,12.88336661913786,61.02216824048787,63.27982486707964,57.10644881985998,400.0,396.3676328144986,386.8793729207758,369.180136982451,{}
