,video_id,frame_seq,gap,time_seconds,m1,m3,m4,m5,m6,m7,m8,m9,m10,m11,m12,m13,m14,m15,m16,m17,e1,e2,e3,b1,b2,b3,m_0_16,m_1_15,m_2_14,m_3_13
0,14,218,1,7.273933333333343,4.0,30.14962686336267,3.1622776601683795,6.082762530298219,8.06225774829855,9.055385138137417,6.082762530298219,19.235384061671343,13.152946437965905,11.0,13.0,10.0,5.5,7.5,1.5,2.5,4.0,3.1622776601683795,3.5,9.0,12.0,10.0,75.53806987208503,74.33034373659252,71.25307010929424,67.26812023536856
1,14,219,0,7.3073000000000095,3.0,30.066592756745816,3.1622776601683795,5.0990195135927845,8.06225774829855,9.0,6.082762530298219,17.26267650163207,12.165525060596439,10.5,12.0,10.0,5.0,6.0,1.0,2.0,4.0,3.0,3.5,8.0,10.0,11.0,75.23961722390672,74.16872656315464,71.17583859709698,67.1863081289633
2,14,220,0,7.340666666666676,3.0,28.0178514522438,3.0,5.0990195135927845,8.06225774829855,9.0,6.324555320336759,17.26267650163207,12.165525060596439,10.5,11.0,10.0,4.5,6.5,0.5,2.5,3.0,3.0,3.0,8.0,10.0,10.0,70.25667228100119,68.18357573492314,66.12110101926616,62.12889826803627
3,14,221,0,7.374033333333343,1.0,28.0178514522438,3.0,6.082762530298219,8.06225774829855,9.0,6.324555320336759,16.278820596099706,10.198039027185569,9.5,10.0,9.0,3.5,6.5,0.5,1.5,3.0,3.0,3.0,8.0,9.0,9.055385138137417,70.178344238091,68.11754546370561,66.12110101926616,63.12685640834652
4,14,222,0,7.40740000000001,2.0,27.018512172212592,3.0,5.0,7.0,8.0,5.385164807134504,15.132745950421556,10.198039027185569,9.0,10.0,9.0,4.5,5.5,0.5,1.5,3.0,3.0,3.5,8.0,9.0,8.06225774829855,67.1863081289633,66.18912297349165,63.12685640834652,60.207972893961475
5,14,223,0,7.440766666666676,2.0,26.019223662515376,3.0,4.123105625617661,8.0,8.0,5.385164807134504,14.317821063276353,10.198039027185569,9.0,10.0,9.0,4.5,4.5,0.5,1.5,3.0,3.0,3.0,7.0,8.0,8.0,66.18912297349165,63.198101237299845,61.204574992397426,58.215118311311535
6,14,224,0,7.474133333333343,2.0,24.020824298928627,2.0,4.0,8.0,7.0,6.324555320336759,14.142135623730951,10.198039027185569,9.0,10.0,9.0,3.5,4.5,0.5,1.5,3.1622776601683795,3.0,3.0,7.0,8.0,9.0,63.28506932918696,62.289646009589745,59.30430001273095,56.22277118748239
7,14,225,0,7.50750000000001,1.0,24.020824298928627,3.0,5.0990195135927845,6.082762530298219,7.0710678118654755,5.0990195135927845,14.142135623730951,9.055385138137417,8.5,10.0,9.0,4.5,4.5,0.5,2.5,3.0,3.0,3.0,7.0,8.0,8.0,62.20128616033595,61.29437168288782,58.309518948453004,55.226805085936306
8,14,226,0,7.540866666666677,1.0,23.021728866442675,3.0,5.0990195135927845,6.082762530298219,7.0,5.385164807134504,14.317821063276353,9.219544457292887,8.5,10.0,9.0,4.5,4.5,0.5,2.5,2.23606797749979,2.0,2.0,7.0,7.0,7.0,60.29925372672534,59.30430001273095,56.22277118748239,53.33854141237835
9,14,227,0,7.574233333333344,1.0,22.02271554554524,3.0,4.123105625617661,6.082762530298219,7.0,4.47213595499958,12.36931687685298,8.246211251235321,7.5,9.0,8.0,4.5,3.5,0.5,2.5,3.0,2.0,2.5,7.0,8.0,7.0710678118654755,59.30430001273095,57.3149195236284,55.44366510251645,53.46026561849464
10,14,228,0,7.60760000000001,0.0,23.0,3.1622776601683795,5.0,7.0710678118654755,6.0,4.123105625617661,12.165525060596439,7.280109889280518,7.0,8.0,8.0,4.0,4.0,1.0,2.0,3.0,3.0,3.0,6.0,7.0,7.0,58.215118311311535,56.22277118748239,54.3323108288245,51.35172830587107
11,14,229,0,7.640966666666677,1.0,20.024984394500787,3.0,4.0,6.0,6.0,3.605551275463989,11.180339887498949,7.280109889280518,6.5,8.0,7.0,4.5,3.5,0.5,1.5,3.0,3.0,3.0,7.0,7.0,7.0,56.142675390472796,54.147945482723536,52.23983154643591,50.24937810560445
12,14,230,0,7.674333333333344,1.0,18.110770276274835,3.1622776601683795,4.0,5.0,6.0,3.1622776601683795,11.180339887498949,7.280109889280518,6.5,9.0,7.0,5.0,3.0,1.0,2.0,2.0,2.0,2.5,6.0,7.0,6.082762530298219,54.3323108288245,53.33854141237835,51.35172830587107,49.36598018878993
13,14,231,0,7.707700000000011,1.0,20.024984394500787,3.0,4.123105625617661,5.0990195135927845,6.0,4.47213595499958,12.36931687685298,8.246211251235321,7.5,8.0,7.0,3.5,4.5,0.5,1.5,2.0,2.0,2.0,5.0,6.0,6.0,53.23532661682466,52.15361924162119,50.24937810560445,48.25971404805462
14,14,232,0,7.741066666666677,1.0,14.142135623730951,2.0,4.0,5.0,4.123105625617661,6.082762530298219,12.165525060596439,8.246211251235321,8.0,12.0,10.0,5.0,1.0,3.0,3.0,3.0,2.0,2.0,5.0,6.0,6.0,52.3450093132096,50.35871324805669,49.49747468305833,46.389654018972806
15,14,311,1,10.377033333333287,11.045361017187261,64.77653896280658,3.1622776601683795,6.324555320336759,15.132745950421556,17.11724276862369,13.152946437965905,33.54101966249684,27.294688127912362,21.5,14.0,24.0,6.0,14.0,7.0,2.0,6.082762530298219,6.324555320336759,5.5,24.0,7.0,17.46424919657298,144.3606594609487,145.98630072715727,147.648230602334,144.12841496387864
16,14,325,1,10.844166666666611,5.0990195135927845,46.389654018972806,6.082762530298219,8.06225774829855,10.198039027185569,11.180339887498949,13.152946437965905,32.01562118716424,24.08318915758459,21.5,24.0,18.0,8.0,11.0,4.0,3.0,9.055385138137417,9.055385138137417,10.0,14.0,23.0,25.079872407968907,139.8070098385628,140.91131963046828,138.92443989449805,131.97348218486925
17,14,326,0,10.877533333333275,2.23606797749979,46.52956049652737,6.082762530298219,8.0,10.198039027185569,11.40175425099138,14.035668847618199,30.01666203960727,22.02271554554524,21.0,25.0,18.0,7.5,8.5,1.5,2.5,9.0,9.055385138137417,9.0,12.0,21.0,29.154759474226502,137.6154061142865,140.91131963046828,139.30183056945089,133.3604139165742
18,14,366,1,12.212199999999912,6.0,42.190046219457976,4.123105625617661,8.06225774829855,11.045361017187261,12.041594578792296,10.04987562112089,28.160255680657446,20.09975124224178,17.0,13.0,9.0,1.0,17.0,8.0,2.0,1.0,2.8284271247461903,1.5,12.0,20.0,18.110770276274835,117.5457357797381,115.26057435220423,110.16805344563369,102.95630140987001
19,14,367,0,12.245566666666578,4.0,38.3275357934736,4.123105625617661,8.06225774829855,10.04987562112089,11.045361017187261,11.180339887498949,27.294688127912362,19.235384061671343,17.0,14.0,9.0,0.5,15.5,6.5,2.5,2.0,2.8284271247461903,1.5,12.0,19.0,18.24828759089466,112.44998888394787,111.30588483993108,106.21205204683694,98.00510190801293
20,14,368,0,12.278933333333244,5.0990195135927845,37.21558813185679,3.1622776601683795,8.06225774829855,10.04987562112089,11.0,11.180339887498949,27.459060435491963,19.4164878389476,16.5,13.0,9.0,0.0,16.0,7.0,2.0,1.4142135623730951,2.23606797749979,2.0,11.0,18.0,19.1049731745428,108.34205093129813,107.20074626605917,102.1077861869505,94.89467845985885
21,14,369,0,12.31229999999991,4.0,35.22782990761707,4.123105625617661,8.06225774829855,9.055385138137417,10.04987562112089,10.198039027185569,26.30589287593181,18.24828759089466,16.0,13.0,9.0,1.0,15.0,7.0,2.0,1.4142135623730951,2.23606797749979,2.0,11.0,18.0,17.11724276862369,104.39348638684312,104.08650248711405,100.12991560967181,92.91393867445294
22,14,370,0,12.345666666666576,3.0,34.23448553724738,4.0,8.06225774829855,9.055385138137417,9.0,10.198039027185569,25.179356624028344,17.11724276862369,15.5,13.0,9.0,1.0,14.0,5.0,2.0,2.23606797749979,2.23606797749979,2.0,10.0,17.0,16.1245154965971,102.25947388873072,100.12991560967181,96.0260381354974,88.81441324469807
23,14,371,0,12.379033333333242,4.0,32.2490309931942,3.1622776601683795,7.0710678118654755,9.055385138137417,9.055385138137417,10.198039027185569,24.331050121192877,17.26267650163207,15.0,12.0,8.0,0.0,14.0,6.0,2.0,1.4142135623730951,2.23606797749979,2.0,10.0,17.0,16.1245154965971,99.14131328563285,98.15294188153507,94.04786015641186,86.83317338436964
24,14,372,0,12.412399999999908,3.1622776601683795,31.25699921617557,3.0,8.0,8.06225774829855,9.055385138137417,10.198039027185569,24.186773244895647,16.278820596099706,14.5,12.0,8.0,0.0,14.0,6.0,2.0,2.0,2.23606797749979,1.0,9.0,16.0,16.1245154965971,95.1892851112981,93.05912099305473,89.94442728707543,82.73451516749222
25,14,373,0,12.445766666666572,5.0,27.459060435491963,2.23606797749979,5.0990195135927845,7.280109889280518,7.280109889280518,7.0,19.1049731745428,14.035668847618199,11.5,5.0,10.0,0.5,11.5,5.5,1.5,2.8284271247461903,3.1622776601683795,2.5,14.0,7.0,12.165525060596439,73.824115301167,69.87131027825369,65.92419889539804,61.814237842102365
26,14,374,0,12.47913333333324,2.0,30.14962686336267,4.0,7.0710678118654755,8.0,8.06225774829855,9.219544457292887,22.20360331117452,15.132745950421556,14.0,11.0,8.0,0.5,12.5,5.5,2.5,1.4142135623730951,2.8284271247461903,2.0,9.0,15.0,15.132745950421556,89.10667763978185,88.95504482602435,84.8528137423857,78.63841300535
27,14,375,0,12.512499999999903,3.0,28.160255680657446,3.0,6.082762530298219,8.06225774829855,8.06225774829855,9.219544457292887,21.213203435596427,15.132745950421556,13.5,10.0,7.0,0.5,12.5,5.5,2.5,2.23606797749979,1.4142135623730951,1.0,8.0,15.0,14.035668847618199,87.13208364316786,85.15867542417507,81.88406438373708,76.79192665899195
28,14,376,0,12.545866666666573,3.0,30.265491900843113,3.0,6.082762530298219,8.06225774829855,8.0,8.246211251235321,20.223748416156685,14.142135623730951,12.5,10.0,6.0,0.0,12.0,6.0,2.0,2.23606797749979,2.23606797749979,2.0,9.0,15.0,14.035668847618199,85.15867542417507,83.02409288875127,79.90619500389191,74.81310045707235
29,14,377,0,12.579233333333235,2.23606797749979,27.294688127912362,3.0,6.082762530298219,7.0710678118654755,8.0,8.246211251235321,19.4164878389476,13.341664064126334,12.0,10.0,6.0,0.0,11.0,5.0,2.0,2.0,1.4142135623730951,1.0,8.0,14.0,14.142135623730951,82.03657720797473,81.04936767180853,77.92945527847606,71.7007670809734
30,14,378,0,12.612599999999905,3.0,28.284271247461902,2.23606797749979,5.0990195135927845,7.0710678118654755,7.0,9.219544457292887,19.4164878389476,14.317821063276353,12.5,10.0,6.0,1.0,11.0,5.0,2.0,1.0,1.4142135623730951,1.5,8.0,14.0,13.038404810405298,80.06247560499239,78.91767862779544,75.8023746329889,70.71067811865476
31,14,379,0,12.645966666666569,3.0,26.1725046566048,2.0,6.082762530298219,6.082762530298219,8.06225774829855,8.246211251235321,19.235384061671343,13.152946437965905,11.5,9.0,6.0,0.5,11.5,5.5,1.5,1.4142135623730951,1.0,1.0,7.0,13.0,13.152946437965905,79.07591289387686,77.92945527847606,73.824115301167,68.73136110975832
32,14,380,0,12.679333333333236,4.0,27.16615541441225,2.23606797749979,5.0990195135927845,7.0,8.06225774829855,7.0710678118654755,18.24828759089466,13.152946437965905,11.0,8.0,5.0,0.5,11.5,5.5,2.5,1.4142135623730951,1.4142135623730951,1.0,8.0,13.0,13.038404810405298,76.94153624668537,75.95393340703298,72.83543093852057,67.7421582177598
33,14,381,0,12.7126999999999,2.0,25.179356624028344,3.0,6.082762530298219,6.082762530298219,7.0,7.280109889280518,18.24828759089466,12.165525060596439,11.0,9.0,6.0,0.5,10.5,4.5,1.5,2.0,1.4142135623730951,1.5,8.0,13.0,13.038404810405298,74.81310045707235,73.824115301167,70.71067811865476,65.62011886609167
34,14,382,0,12.746066666666566,2.0,24.331050121192877,3.1622776601683795,5.0990195135927845,6.082762530298219,7.0710678118654755,7.0710678118654755,17.26267650163207,12.165525060596439,11.0,9.0,5.0,0.0,10.0,4.0,2.0,2.23606797749979,1.4142135623730951,1.0,7.0,12.0,12.041594578792296,72.69112738154499,71.7007670809734,68.73136110975832,64.6297145282261
35,14,383,0,12.779433333333232,2.0,24.08318915758459,2.0,5.0990195135927845,6.0,7.0,7.280109889280518,16.278820596099706,11.180339887498949,10.0,8.0,6.0,0.0,9.0,4.0,2.0,2.0,1.4142135623730951,1.0,7.0,11.0,12.041594578792296,70.8590149522275,69.87131027825369,66.75327707311455,62.64982043070834
36,14,384,0,12.812799999999898,2.0,24.186773244895647,3.0,5.0990195135927845,6.082762530298219,7.0710678118654755,7.0710678118654755,17.11724276862369,12.041594578792296,11.0,9.0,6.0,0.5,9.5,3.5,1.5,1.0,1.4142135623730951,1.0,7.0,11.0,11.0,69.72087205421343,68.59300255857006,66.61080993352356,61.5223536610881
37,14,385,0,12.846166666666564,2.23606797749979,24.08318915758459,3.0,5.0,7.0710678118654755,7.0,6.082762530298219,16.1245154965971,11.180339887498949,10.0,7.0,5.0,0.0,10.0,4.0,2.0,1.0,1.4142135623730951,1.0,7.0,12.0,12.041594578792296,68.73136110975832,67.7421582177598,65.62011886609167,59.53990258641679
38,14,386,0,12.87953333333323,2.23606797749979,22.090722034374522,3.0,5.0,7.0710678118654755,7.0,6.082762530298219,16.1245154965971,11.180339887498949,10.0,8.0,6.0,1.0,9.0,3.0,1.0,1.0,1.4142135623730951,1.0,7.0,12.0,12.041594578792296,67.7421582177598,66.75327707311455,63.63961030678928,58.54912467321779
39,14,387,0,12.912899999999896,2.0,21.095023109728988,3.1622776601683795,5.0990195135927845,6.082762530298219,6.0,6.082762530298219,16.278820596099706,11.180339887498949,10.0,8.0,6.0,1.0,9.0,3.0,1.0,1.0,1.4142135623730951,1.0,7.0,11.0,11.045361017187261,65.76473218982953,65.76473218982953,62.64982043070834,57.55866572463264
40,14,388,0,12.946266666666562,2.0,19.1049731745428,2.23606797749979,5.0990195135927845,6.082762530298219,6.082762530298219,6.082762530298219,15.297058540778355,10.198039027185569,9.0,8.0,6.0,1.0,8.0,3.0,0.0,1.0,1.4142135623730951,1.0,7.0,11.0,11.0,63.788713735268246,63.788713735268246,60.67124524847005,56.568542494923804
41,14,389,0,12.979633333333227,2.0,18.24828759089466,2.23606797749979,5.0990195135927845,5.0990195135927845,6.082762530298219,6.082762530298219,15.297058540778355,10.198039027185569,9.0,9.0,6.0,1.5,7.5,2.5,0.5,1.0,1.4142135623730951,1.0,6.0,10.0,10.0,62.80127387243033,62.80127387243033,59.682493245507096,55.57877292636101
42,14,396,1,13.213199999999889,2.23606797749979,50.24937810560445,4.0,8.06225774829855,15.033296378372908,15.033296378372908,16.278820596099706,29.614185789921695,21.587033144922902,20.5,14.0,19.0,0.5,12.5,3.5,3.5,4.123105625617661,4.0,4.0,14.0,9.0,17.11724276862369,121.69634341261039,121.49897118905987,118.3427226321923,111.16204388189342
43,14,397,0,13.246566666666554,1.0,50.15974481593781,4.123105625617661,8.06225774829855,14.035668847618199,16.0312195418814,16.1245154965971,28.442925306655784,20.396078054371138,20.0,15.0,19.0,1.0,11.0,2.0,3.0,3.1622776601683795,4.0,4.0,12.0,7.0,14.317821063276353,112.75194011634566,112.53888216967503,109.37092849564732,103.23759005323593
44,14,398,0,13.27993333333322,1.0,47.16990566028302,4.123105625617661,7.0710678118654755,13.0,13.038404810405298,15.132745950421556,26.476404589747453,19.4164878389476,19.0,13.0,17.0,0.0,11.0,3.0,3.0,3.0,3.1622776601683795,3.0,13.0,8.0,14.142135623730951,104.38869670610895,104.30723848324239,102.12247548899312,98.08159868191383
45,14,399,0,13.313299999999886,1.4142135623730951,41.19465984809196,3.1622776601683795,7.0,12.041594578792296,12.041594578792296,14.142135623730951,25.317977802344327,18.439088914585774,17.5,12.0,16.0,0.0,11.0,3.0,3.0,3.1622776601683795,4.0,3.5,12.0,7.0,14.035668847618199,101.49384217774002,100.40418317978589,97.25224933131366,91.13725912051558
46,14,400,0,13.346666666666552,1.4142135623730951,43.104524124504614,3.0,6.082762530298219,12.041594578792296,13.0,13.152946437965905,23.345235059857504,17.26267650163207,16.5,12.0,15.0,0.5,9.5,2.5,2.5,2.23606797749979,3.0,3.0,11.0,6.0,13.038404810405298,96.74709297958259,96.42095207992918,94.26027795418386,89.1403387922662
47,14,401,0,13.380033333333218,1.0,40.11234224026316,3.1622776601683795,6.082762530298219,12.041594578792296,12.041594578792296,12.165525060596439,22.360679774997898,16.278820596099706,15.5,11.0,14.0,0.5,9.5,2.5,2.5,2.0,3.0,3.0,10.0,5.0,13.152946437965905,91.44397191723465,91.26883367283708,89.20201791439474,83.15046602394962
48,14,402,0,13.413399999999884,1.4142135623730951,38.2099463490856,3.0,6.0,11.045361017187261,11.045361017187261,12.165525060596439,22.20360331117452,16.278820596099706,15.5,11.0,15.0,1.0,9.0,1.0,2.0,2.23606797749979,2.0,2.0,9.0,5.0,12.165525060596439,88.45903006477066,88.36288813749809,85.37564055396598,81.15417426109393
49,14,403,0,13.44676666666655,1.4142135623730951,36.22154055254967,3.0,5.0990195135927845,11.045361017187261,12.041594578792296,12.165525060596439,21.37755832643195,16.278820596099706,15.5,11.0,15.0,1.0,8.0,1.0,2.0,2.0,2.23606797749979,2.0,9.0,4.0,11.180339887498949,82.49242389456137,82.38931969618392,79.22752047110903,75.23961722390672
50,14,404,0,13.480133333333216,1.0,35.12833614050059,3.0,5.0,10.0,10.04987562112089,11.180339887498949,19.235384061671343,14.317821063276353,14.0,10.0,13.0,0.5,7.5,1.5,1.5,3.1622776601683795,3.0,2.5,9.0,6.0,11.045361017187261,79.40403012442127,79.30952023559341,76.16429609731846,72.11102550927978
51,14,405,0,13.51349999999988,1.4142135623730951,33.13608305156178,3.0,5.0,10.0,10.0,10.198039027185569,19.235384061671343,14.317821063276353,13.5,10.0,13.0,1.5,7.5,1.5,1.5,2.0,3.0,2.5,9.0,4.0,11.045361017187261,76.4198926981712,75.23961722390672,73.17103251970687,70.11419257183242
52,14,406,0,13.546866666666547,1.0,32.14031735997639,2.23606797749979,4.123105625617661,9.055385138137417,10.0,10.198039027185569,17.46424919657298,13.341664064126334,12.5,8.0,11.0,0.5,7.5,2.5,2.5,2.0,2.0,2.0,9.0,5.0,9.055385138137417,73.33484846919642,73.24616030891995,71.17583859709698,67.11929677819934
53,14,407,0,13.580233333333211,1.0,31.064449134018133,4.123105625617661,5.0,9.0,9.0,9.055385138137417,17.11724276862369,12.165525060596439,12.5,9.0,11.0,1.0,7.0,2.0,2.0,2.0,1.4142135623730951,1.5,8.0,5.0,9.055385138137417,70.57619995437555,70.34912934784623,69.26037828369117,65.12296062065974
54,14,408,0,13.61359999999988,1.0,30.14962686336267,2.23606797749979,4.0,9.055385138137417,9.055385138137417,10.04987562112089,17.11724276862369,13.152946437965905,12.5,9.0,12.0,0.5,6.5,1.5,1.5,1.0,2.23606797749979,1.5,7.0,4.0,10.04987562112089,69.35416353759881,69.18092222571191,67.1863081289633,64.07027391856539
55,14,409,0,13.646966666666543,1.4142135623730951,29.154759474226502,2.0,4.0,8.06225774829855,9.055385138137417,9.219544457292887,16.278820596099706,12.36931687685298,11.5,8.0,11.0,0.5,6.5,1.5,1.5,1.0,2.0,2.0,7.0,4.0,10.04987562112089,65.49045732013177,65.37583651472461,64.19501538281614,60.207972893961475
56,14,410,0,13.68033333333321,1.0,28.160255680657446,3.0,4.0,8.0,8.0,8.246211251235321,15.297058540778355,11.40175425099138,11.0,7.0,10.0,0.5,6.5,2.5,1.5,1.0,2.0,1.5,8.0,5.0,8.0,65.37583651472461,64.28063471995279,63.198101237299845,59.135437767890075
57,14,411,0,13.713699999999877,0.0,27.073972741361768,2.0,4.123105625617661,8.06225774829855,8.0,8.246211251235321,14.317821063276353,10.198039027185569,10.0,7.0,9.0,0.0,6.0,2.0,2.0,2.23606797749979,2.0,2.0,7.0,4.0,7.0710678118654755,61.29437168288782,61.29437168288782,59.135437767890075,57.07889277132134
58,14,412,0,13.747066666666544,0.0,26.1725046566048,2.23606797749979,4.123105625617661,7.0710678118654755,8.0,8.06225774829855,14.317821063276353,10.198039027185569,10.0,7.0,10.0,0.5,5.5,1.5,1.5,2.23606797749979,2.0,2.0,7.0,4.0,7.0,59.21148537234985,60.13318551349163,58.077534382926416,55.036351623268054
59,14,413,0,13.780433333333209,0.0,26.1725046566048,2.23606797749979,4.0,7.0710678118654755,7.0710678118654755,8.06225774829855,14.142135623730951,10.198039027185569,10.0,7.0,10.0,0.5,5.5,1.5,1.5,2.0,2.0,2.0,7.0,4.0,8.06225774829855,58.309518948453004,57.14017850864661,57.14017850864661,54.08326913195984
60,14,414,0,13.813799999999874,1.4142135623730951,24.08318915758459,2.0,3.0,7.0710678118654755,8.0,8.246211251235321,14.317821063276353,11.40175425099138,10.5,8.0,10.0,1.0,5.0,1.0,1.0,1.0,1.0,1.5,6.0,4.0,8.0,56.32051136131489,56.08029957123981,55.08175741568164,52.08646657242167
61,14,415,0,13.84716666666654,1.0,24.08318915758459,2.0,3.0,7.0710678118654755,6.0,8.06225774829855,13.152946437965905,10.198039027185569,10.0,7.0,9.0,0.0,5.0,1.0,2.0,2.0,2.0,1.5,6.0,3.0,7.0710678118654755,56.32051136131489,55.226805085936306,54.230987451824994,52.15361924162119
62,14,416,0,13.880533333333206,0.0,23.194827009486403,2.0,3.1622776601683795,7.0710678118654755,7.0,7.0710678118654755,12.165525060596439,9.055385138137417,9.0,6.0,9.0,0.5,4.5,1.5,1.5,2.0,2.0,2.0,6.0,4.0,8.06225774829855,53.150729063673246,54.08326913195984,52.03844732503075,50.039984012787215
63,14,640,1,21.354666666666365,9.0,85.00588214941364,6.0,12.041594578792296,22.02271554554524,23.0,21.02379604162864,48.041648597857254,36.013886210738214,31.5,25.0,24.0,3.5,23.5,10.5,0.5,10.0,10.0,9.5,27.0,30.0,32.01562118716424,207.0,204.00980368599937,200.0399960007998,188.06647760831805
64,14,641,0,21.38803333333303,6.082762530298219,87.02298546935747,4.0,11.045361017187261,23.021728866442675,24.0,21.095023109728988,42.190046219457976,31.144823004794873,28.0,20.0,18.0,2.0,23.0,11.0,4.0,10.0,11.045361017187261,10.5,27.0,30.0,36.05551275463989,211.0213259365034,208.00961516237658,202.0,191.01047091717248
65,14,642,0,21.421399999999696,3.0,88.0056816347672,6.0,12.0,24.0,24.0,20.024984394500787,41.012193308819754,29.017236257093817,27.5,17.0,18.0,2.5,23.5,9.5,6.5,8.06225774829855,9.055385138137417,8.5,27.0,31.0,35.05709628591621,211.00236965494014,208.00240383226344,201.02238681301145,191.06543381784158
66,14,643,0,21.45476666666636,3.0,86.09297300012354,6.0,12.0,25.079872407968907,25.079872407968907,19.026297590440446,40.01249804748511,28.0178514522438,26.5,16.0,20.0,1.0,22.0,7.0,6.0,3.0,4.0,3.5,25.0,29.0,37.12142238654117,215.03720608304042,211.0213259365034,204.0,194.02319448973105
67,14,644,0,21.488133333333028,6.082762530298219,82.21921916437786,5.0,11.0,24.08318915758459,25.179356624028344,20.024984394500787,42.0,31.0,28.0,16.0,22.0,1.0,23.0,9.0,5.0,4.0,5.0990195135927845,5.0,29.0,34.0,36.22154055254967,217.1128738697915,212.08488866489287,205.03902067655318,193.00259065618783
68,14,645,0,21.52149999999969,5.0,83.21658488546619,6.0,13.0,24.08318915758459,25.179356624028344,21.0,45.0,32.0,29.5,19.0,25.0,1.0,23.0,7.0,4.0,5.0,5.0,5.5,27.0,34.0,37.21558813185679,219.0570701894828,215.02092921387907,208.00961516237658,196.0025510038071
69,14,646,0,21.55486666666636,2.0,83.21658488546619,7.0,13.0,24.08318915758459,24.186773244895647,22.02271554554524,44.01136216933077,31.016124838541646,30.0,20.0,26.0,1.0,21.0,6.0,5.0,7.0710678118654755,8.06225774829855,8.0,26.0,34.0,38.3275357934736,221.03619613086,216.0208323287363,208.00961516237658,198.0
70,14,647,0,21.588233333333022,1.0,83.21658488546619,5.0,12.0,22.090722034374522,23.08679276123039,24.08318915758459,42.04759208325728,30.066592756745816,29.5,20.0,26.0,1.0,19.0,5.0,6.0,8.0,9.055385138137417,9.5,25.0,33.0,39.20459156782532,218.02064122463267,215.00232556881798,208.0,196.0025510038071
71,14,648,0,21.62159999999969,1.0,80.22468448052632,5.0,11.0,23.08679276123039,24.08318915758459,24.08318915758459,41.048751503547585,30.066592756745816,29.5,21.0,27.0,0.0,17.0,3.0,4.0,9.0,9.055385138137417,9.5,25.0,33.0,38.2099463490856,216.05786262017867,213.0211257129208,206.0024271701671,194.0025773024678
72,14,649,0,21.65496666666636,1.0,78.10249675906654,6.0,11.0,23.08679276123039,24.08318915758459,24.020824298928627,42.01190307520001,31.016124838541646,30.5,23.0,27.0,1.0,17.0,3.0,4.0,9.0,10.198039027185569,10.0,25.0,34.0,36.22154055254967,217.00921639414304,214.02102700435768,206.0218435020908,194.02319448973105
73,14,650,0,21.688333333333023,1.0,83.15046602394962,4.123105625617661,11.0,23.08679276123039,24.08318915758459,26.30589287593181,42.1070065428546,31.144823004794873,30.5,22.0,27.0,1.5,17.5,4.5,5.5,10.04987562112089,10.04987562112089,10.5,25.0,33.0,38.2099463490856,215.03720608304042,213.00938946440834,206.0024271701671,194.0025773024678
74,14,651,0,21.72169999999969,1.0,84.1486779456457,6.0,10.0,25.079872407968907,25.079872407968907,24.515301344262525,41.30375285612676,31.400636936215164,30.5,21.0,26.0,0.5,17.5,4.5,5.5,9.055385138137417,10.04987562112089,10.5,26.0,32.0,36.124783736376884,215.05813167606567,211.0213259365034,205.00975586542216,194.0
75,14,652,0,21.755066666666355,0.0,85.09406559801923,7.0,11.0,25.0,25.019992006393608,23.345235059857504,41.19465984809196,30.265491900843113,30.0,20.0,24.0,1.0,19.0,6.0,6.0,10.0,11.045361017187261,10.5,28.0,32.0,36.124783736376884,213.19005605327843,211.05923339195564,205.00975586542216,195.0102561405425
76,14,653,0,21.78843333333302,2.23606797749979,86.14522621712709,6.082762530298219,10.04987562112089,24.020824298928627,25.019992006393608,24.331050121192877,42.2965719651132,32.2490309931942,31.0,20.0,25.0,1.5,19.5,7.5,5.5,10.04987562112089,11.045361017187261,11.0,27.0,31.0,34.132096331752024,213.23461257497573,211.0852908186641,205.00975586542216,196.0025510038071
77,14,654,0,21.821799999999687,6.0,88.20430828479978,5.0,11.0,25.079872407968907,26.019223662515376,22.561028345356956,44.28317965096906,33.37663853655727,30.0,17.0,23.0,2.0,24.0,11.0,6.0,10.04987562112089,10.04987562112089,10.5,29.0,31.0,33.06055050963308,210.1927686672403,210.02142747824567,206.0024271701671,197.06344156134085
78,14,655,0,21.85516666666636,12.041594578792296,88.14193099768123,3.0,11.045361017187261,26.019223662515376,27.018512172212592,21.587033144922902,47.51841748206689,36.49657518178932,30.0,18.0,23.0,0.5,26.5,13.5,2.5,10.04987562112089,11.045361017187261,11.0,29.0,30.0,33.06055050963308,213.23461257497573,211.05923339195564,207.0024154448445,198.01010075246163
79,14,656,0,21.88853333333302,12.041594578792296,92.19544457292888,4.0,11.0,26.019223662515376,28.0178514522438,21.840329667841555,48.507731342539614,37.656340767525464,31.0,18.0,24.0,0.0,27.0,14.0,2.0,10.04987562112089,11.045361017187261,11.0,30.0,30.0,33.015148038438355,211.28653530218153,211.05923339195564,207.0,199.04019694524018
80,14,657,0,21.921899999999685,12.041594578792296,88.2779700718135,3.0,10.04987562112089,25.079872407968907,27.073972741361768,21.587033144922902,46.52956049652737,36.49657518178932,30.0,16.0,23.0,1.5,26.5,13.5,3.5,9.055385138137417,11.045361017187261,11.0,30.0,29.0,33.015148038438355,216.390850083824,213.15018179677915,209.03827400741713,199.00251254695254
81,14,658,0,21.95526666666635,11.045361017187261,88.56635930193812,4.123105625617661,10.04987562112089,25.179356624028344,25.079872407968907,21.37755832643195,46.52956049652737,36.49657518178932,30.5,14.0,24.0,2.0,27.0,14.0,6.0,4.123105625617661,5.0,5.0,31.0,29.0,32.01562118716424,214.67417171145672,213.3377603707323,209.11719202399405,200.0399960007998
82,14,659,0,21.988633333333016,8.06225774829855,87.46427842267951,4.123105625617661,10.04987562112089,25.079872407968907,27.073972741361768,22.360679774997898,44.553338819890925,34.52535300326414,30.0,15.0,24.0,2.5,24.5,12.5,5.5,2.0,3.1622776601683795,3.5,34.0,30.0,31.016124838541646,213.243991709028,211.6057655169159,208.34586628968668,199.090431713832
83,14,660,0,22.02199999999968,3.1622776601683795,84.8528137423857,4.0,7.280109889280518,23.194827009486403,23.345235059857504,24.351591323771842,38.600518131237564,31.32091952673165,28.5,14.0,26.0,3.0,17.0,7.0,7.0,3.1622776601683795,3.1622776601683795,3.0,36.0,28.0,33.015148038438355,210.61101585624624,211.0473880435387,207.6174366473105,198.36330305779848
84,14,661,0,22.055366666666348,0.0,80.89499366462674,5.385164807134504,6.708203932499369,21.213203435596427,22.20360331117452,23.769728648009426,35.73513677041127,29.120439557122072,28.0,15.0,27.0,2.0,13.0,3.0,7.0,3.1622776601683795,4.123105625617661,3.5,37.0,27.0,34.0147027033899,209.77368757782756,209.87615395751848,205.29247428973133,195.82900704441107
85,14,662,0,22.08873333333301,2.23606797749979,84.34453153583817,6.324555320336759,9.219544457292887,23.345235059857504,23.345235059857504,25.0,38.897300677553446,29.732137494637012,29.0,16.0,31.0,0.5,13.5,1.5,6.5,3.605551275463989,4.47213595499958,4.0,40.0,27.0,34.058772731852805,210.459022139703,211.43556938225885,206.6422028531442,197.12178976460214
86,14,663,0,22.12209999999968,1.4142135623730951,81.39410298049853,6.324555320336759,9.219544457292887,21.37755832643195,21.37755832643195,24.73863375370596,39.56008088970496,30.364452901377952,29.5,15.0,30.0,1.5,15.5,3.5,7.5,4.47213595499958,3.605551275463989,3.5,40.0,26.0,35.12833614050059,213.96495040076073,213.88314566603887,208.88513590009222,198.22462006521792
87,14,664,0,22.155466666666342,2.23606797749979,80.23091673413684,6.324555320336759,9.486832980505138,19.4164878389476,20.396078054371138,24.73863375370596,38.897300677553446,29.410882339705484,29.0,15.0,29.0,2.0,15.0,3.0,9.0,4.47213595499958,4.123105625617661,4.0,42.0,28.0,35.12833614050059,217.1013588165675,217.00691233230336,213.84106247397855,203.19448811422026
88,14,665,0,22.18883333333301,2.23606797749979,79.07591289387686,6.082762530298219,9.219544457292887,21.213203435596427,21.37755832643195,23.08679276123039,37.94733192202055,28.792360097775937,27.5,14.0,27.0,1.5,15.5,3.5,7.5,4.47213595499958,5.0990195135927845,4.5,41.0,26.0,35.12833614050059,219.6724834839357,217.51781536232843,211.482859825566,201.80436070610565
89,14,666,0,22.22219999999968,2.0,78.91767862779544,3.605551275463989,7.615773105863909,20.223748416156685,22.360679774997898,26.68332812825267,39.56008088970496,32.01562118716424,30.0,15.0,27.0,5.0,17.0,6.0,8.0,4.47213595499958,5.0990195135927845,5.0,39.0,26.0,33.13608305156178,216.72332592501436,214.8697279748825,210.15232570685484,199.44924166313595
90,14,667,0,22.255566666666343,8.246211251235321,83.86298349093002,3.605551275463989,12.36931687685298,22.20360331117452,23.194827009486403,24.73863375370596,48.76474136094644,36.40054944640259,31.0,12.0,24.0,6.0,29.0,15.0,9.0,4.47213595499958,5.0990195135927845,4.5,37.0,24.0,34.23448553724738,221.32555207205516,219.79080963497995,215.23243250030885,201.71762441591463
91,14,668,0,22.28893333333301,17.029386365926403,92.19544457292888,2.8284271247461903,8.246211251235321,23.021728866442675,25.019992006393608,24.515301344262525,51.97114584074513,43.73785545725808,34.5,15.0,21.0,6.0,33.0,22.0,6.0,5.0990195135927845,6.082762530298219,5.5,38.0,25.0,33.13608305156178,219.3467574412715,218.55205329623422,214.75567512873786,203.35437049643167
92,14,669,0,22.322299999999675,24.08318915758459,97.25224933131366,4.123105625617661,13.152946437965905,27.073972741361768,29.068883707497267,18.027756377319946,59.033888572581766,45.89117562233506,33.0,13.0,20.0,0.5,41.5,25.5,3.5,5.0990195135927845,6.0,5.5,37.0,25.0,34.132096331752024,222.61176967986216,219.66565503054863,215.83790213954546,204.41379601191306
93,14,670,0,22.35566666666634,23.08679276123039,104.38869670610895,4.123105625617661,13.152946437965905,29.154759474226502,32.0624390837628,16.76305461424021,56.88585061331157,43.73785545725808,31.5,10.0,19.0,1.5,41.5,25.5,4.5,6.324555320336759,6.0,5.5,39.0,25.0,33.06055050963308,218.65955272980872,217.68095920406083,213.9369065869655,202.48456731316588
94,14,671,0,22.389033333333007,25.179356624028344,101.40019723846694,4.123105625617661,12.165525060596439,29.068883707497267,32.14031735997639,14.560219778561036,55.90169943749474,43.73785545725808,30.5,8.0,17.0,1.5,42.5,26.5,4.5,7.0710678118654755,7.0,6.5,38.0,25.0,34.058772731852805,218.8172753691993,217.9380645963435,214.13313615599057,201.48697228356974
95,14,672,0,22.42239999999968,23.194827009486403,106.47065323364932,4.0,11.180339887498949,31.144823004794873,34.132096331752024,13.92838827718412,51.97114584074513,40.792156108742276,28.5,5.0,15.0,3.0,41.0,26.0,6.0,6.082762530298219,6.0,6.0,36.0,25.0,33.13608305156178,219.64744478368056,218.79899451322896,214.84180226389836,205.29490982486632
96,14,673,0,22.45576666666634,18.027756377319946,101.31633629380802,4.123105625617661,12.165525060596439,28.071337695236398,30.066592756745816,14.866068747318506,48.83646178829912,36.6742416417845,27.0,6.0,14.0,4.0,38.0,23.0,7.0,7.280109889280518,7.0710678118654755,6.5,38.0,25.0,35.22782990761707,219.64744478368056,216.8155898453799,212.042448580467,200.63897926375125
97,14,674,0,22.489133333333005,19.026297590440446,103.58571330062848,3.1622776601683795,10.44030650891055,28.160255680657446,30.066592756745816,15.231546211727817,47.29693436154187,36.87817782917155,26.5,3.0,14.0,5.5,37.5,23.5,7.5,7.280109889280518,7.0710678118654755,7.0,37.0,24.0,34.23448553724738,219.49487465542333,213.84106247397855,208.38665984174708,196.82479518597245
98,14,675,0,22.52249999999967,18.110770276274835,101.71037311896953,3.1622776601683795,11.180339887498949,27.16615541441225,30.14962686336267,14.560219778561036,46.87216658103186,35.6931365951495,26.0,2.0,14.0,6.0,38.0,23.0,8.0,7.280109889280518,8.06225774829855,7.5,37.0,23.0,32.14031735997639,221.77916944564473,218.92921230388603,212.24985276791125,200.7211996775627
99,14,676,0,22.555866666666336,16.1245154965971,101.83319694480774,4.47213595499958,10.198039027185569,28.284271247461902,30.265491900843113,13.601470508735444,44.14748010928823,33.95585369269929,25.0,2.0,15.0,4.5,34.5,19.5,7.5,6.324555320336759,8.06225774829855,7.5,37.0,24.0,32.14031735997639,218.3575050232989,215.6965461012299,210.3734774157617,197.82062582046393
100,14,677,0,22.589233333333,15.132745950421556,102.59142264341595,4.123105625617661,10.198039027185569,29.154759474226502,31.25699921617557,13.152946437965905,42.579337712087536,32.38826948140329,24.5,1.0,12.0,6.5,35.5,21.5,9.5,7.280109889280518,7.0710678118654755,7.0,38.0,24.0,32.2490309931942,221.472345903501,217.68095920406083,212.14381914163798,200.7211996775627
101,14,678,0,22.622599999999668,15.132745950421556,104.58011283222064,3.1622776601683795,10.04987562112089,30.066592756745816,32.14031735997639,13.601470508735444,41.773197148410844,31.78049716414141,23.5,1.0,12.0,6.5,34.5,20.5,7.5,8.246211251235321,8.0,7.5,38.0,25.0,31.144823004794873,219.9659064491586,216.23366990364843,211.36697944570244,200.80836635957178
102,14,679,0,22.65596666666633,15.132745950421556,104.47966309287182,3.1622776601683795,9.055385138137417,29.068883707497267,30.14962686336267,12.649110640673518,39.81205847478876,30.805843601498726,22.5,2.0,12.0,5.0,32.0,20.0,7.0,8.246211251235321,9.0,8.5,37.0,25.0,32.14031735997639,217.671771252039,215.95601403989656,211.1492363235065,200.63897926375125
103,14,680,0,22.689333333333,12.041594578792296,97.86725703727473,4.123105625617661,10.198039027185569,29.274562336608895,30.14962686336267,14.560219778561036,40.792156108742276,30.59411708155671,24.0,2.0,15.0,5.5,31.5,17.5,8.5,8.246211251235321,8.06225774829855,8.0,35.0,23.0,33.13608305156178,220.4835594777987,215.6965461012299,208.06249061279644,197.57024067404484
104,14,681,0,22.722699999999666,14.035668847618199,98.73196037757987,4.123105625617661,9.219544457292887,29.154759474226502,30.14962686336267,13.601470508735444,40.792156108742276,31.575306807693888,24.0,3.0,15.0,4.0,31.0,17.0,7.0,9.219544457292887,9.0,9.0,36.0,25.0,32.0624390837628,217.51781536232843,212.8497122384712,206.2862089428181,196.73586353280888
105,14,682,0,22.75606666666633,11.045361017187261,93.7709976485267,4.123105625617661,10.198039027185569,28.160255680657446,29.154759474226502,14.317821063276353,39.6232255123179,29.427877939124322,23.5,4.0,16.0,4.0,29.0,15.0,7.0,9.219544457292887,9.055385138137417,9.0,35.0,25.0,33.015148038438355,219.06391761310215,214.5809870421888,207.17142660125697,194.92819190666086
106,14,683,0,22.789433333333,9.055385138137417,91.7877987534291,3.1622776601683795,9.219544457292887,26.1725046566048,26.30589287593181,16.492422502470642,37.8549864614954,28.635642126552707,23.5,6.0,18.0,4.0,25.0,12.0,7.0,9.219544457292887,9.0,9.0,36.0,26.0,32.01562118716424,220.6581065811995,217.329243315298,209.05740838343903,196.65197685250968
107,14,684,0,22.822799999999663,2.0,88.56635930193812,4.123105625617661,9.055385138137417,25.079872407968907,25.179356624028344,20.615528128088304,31.78049716414141,22.80350850198276,23.0,9.0,19.0,6.0,17.0,5.0,9.0,9.219544457292887,9.0,8.5,35.0,25.0,35.05709628591621,214.96511344867102,212.3605424743495,206.9685966517626,195.65530915362353
108,14,685,0,22.85616666666633,1.0,87.5728268357257,3.1622776601683795,6.082762530298219,25.179356624028344,25.079872407968907,21.587033144922902,29.832867780352597,23.769728648009426,23.5,10.0,20.0,6.0,14.0,5.0,9.0,8.246211251235321,9.055385138137417,9.0,35.0,26.0,35.05709628591621,215.95601403989656,214.5809870421888,209.267771049438,196.82479518597245
109,14,686,0,22.889533333332995,2.0,86.57944328765345,4.123105625617661,8.06225774829855,24.186773244895647,25.179356624028344,21.37755832643195,31.575306807693888,23.53720459187964,24.0,12.0,22.0,4.0,14.0,3.0,7.0,9.219544457292887,10.0,9.5,34.0,26.0,33.015148038438355,215.82400237230334,212.3605424743495,205.1828452868319,194.83326204732086
110,14,687,0,22.92289999999966,1.0,85.47514258543241,3.1622776601683795,6.082762530298219,24.186773244895647,24.186773244895647,21.37755832643195,29.614185789921695,23.53720459187964,23.5,11.0,20.0,5.5,13.5,4.5,8.5,8.246211251235321,10.04987562112089,9.5,34.0,25.0,34.0147027033899,215.82400237230334,212.47588098417194,205.1828452868319,193.83756085960223
111,14,688,0,22.956266666666327,1.0,87.46427842267951,3.1622776601683795,7.280109889280518,24.08318915758459,23.021728866442675,20.223748416156685,30.4138126514911,23.194827009486403,23.0,10.0,19.0,5.5,15.5,5.5,7.5,10.198039027185569,10.04987562112089,10.0,36.0,28.0,34.058772731852805,215.5736533067063,214.34784813475503,208.06249061279644,197.7321420508057
112,14,689,0,22.989633333333,2.0,87.46427842267951,4.123105625617661,7.0710678118654755,25.079872407968907,25.079872407968907,20.396078054371138,29.614185789921695,22.561028345356956,23.0,9.0,18.0,6.5,15.5,5.5,9.5,10.198039027185569,11.045361017187261,10.5,34.0,26.0,34.058772731852805,215.6965461012299,212.24985276791125,207.06762180505189,195.7396229688818
113,14,690,0,23.02299999999966,1.0,87.5728268357257,4.0,9.055385138137417,23.194827009486403,23.08679276123039,20.223748416156685,32.2490309931942,23.194827009486403,23.5,9.0,19.0,6.0,18.0,6.0,10.0,10.198039027185569,10.0,10.0,35.0,28.0,33.015148038438355,215.45533179756774,211.25576915199264,206.17710833164773,197.01776569639603
114,14,691,0,23.056366666666325,1.0,84.48076704197234,5.0990195135927845,8.06225774829855,24.08318915758459,24.186773244895647,19.235384061671343,31.400636936215164,23.345235059857504,23.5,10.0,19.0,4.5,16.5,5.5,8.5,9.219544457292887,11.045361017187261,10.5,34.0,27.0,33.06055050963308,216.33538776631067,213.243991709028,207.17142660125697,195.92345444075858
115,14,692,0,23.08973333333299,3.0,87.46427842267951,4.123105625617661,8.06225774829855,25.079872407968907,25.179356624028344,20.396078054371138,29.614185789921695,21.587033144922902,22.5,9.0,18.0,6.5,15.5,5.5,9.5,9.055385138137417,10.0,10.0,33.0,26.0,32.0,212.3605424743495,209.95475703112803,203.62956563328422,191.3765920900464
116,14,693,0,23.123099999999656,1.0,91.54780172128658,4.123105625617661,8.246211251235321,26.076809620810597,26.1725046566048,19.4164878389476,30.805843601498726,22.561028345356956,22.5,8.0,18.0,6.0,17.0,6.0,9.0,8.06225774829855,9.055385138137417,8.5,32.0,26.0,32.01562118716424,217.22108553268947,213.9369065869655,205.7887266105702,195.57607215607945
117,14,694,0,23.15646666666632,1.0,89.45389874119518,4.123105625617661,7.280109889280518,25.079872407968907,25.079872407968907,20.223748416156685,30.59411708155671,23.345235059857504,23.5,10.0,19.0,5.5,15.5,5.5,8.5,10.198039027185569,10.0,9.5,33.0,26.0,33.0,217.1174797200815,213.84573879317773,206.54539452623968,195.4328529188478
118,14,695,0,23.189833333332988,1.0,87.5728268357257,4.123105625617661,8.06225774829855,25.019992006393608,26.076809620810597,20.396078054371138,31.575306807693888,23.53720459187964,23.5,10.0,20.0,5.0,16.0,5.0,8.0,10.198039027185569,10.0,9.5,34.0,27.0,33.015148038438355,216.44860821913363,213.243991709028,205.9732992404598,194.74342094150447
119,14,696,0,23.22319999999965,1.0,86.57944328765345,4.0,8.06225774829855,24.08318915758459,24.08318915758459,22.360679774997898,33.37663853655727,25.317977802344327,25.5,11.0,21.0,6.0,17.0,6.0,9.0,10.198039027185569,10.0,10.0,33.0,26.0,35.014282800023196,217.329243315298,214.93254755853056,206.70026608594387,194.4350791395421
120,14,697,0,23.25656666666632,1.4142135623730951,85.47514258543241,4.123105625617661,9.055385138137417,25.079872407968907,26.1725046566048,22.20360331117452,36.22154055254967,27.16615541441225,26.5,13.0,22.0,4.5,18.5,5.5,7.5,10.04987562112089,10.04987562112089,9.5,33.0,27.0,34.0147027033899,217.22108553268947,214.03270778084362,206.87435800504613,194.65867563507155
121,14,698,0,23.289933333332986,1.0,84.48076704197234,4.0,10.04987562112089,24.08318915758459,25.179356624028344,22.090722034374522,37.12142238654117,27.073972741361768,26.5,14.0,23.0,3.5,18.5,5.5,6.5,7.0710678118654755,7.0,6.5,33.0,26.0,35.014282800023196,215.45533179756774,212.14381914163798,205.0780339285512,192.66551326067673
122,14,699,0,23.32329999999965,1.0,79.76214641043707,4.123105625617661,11.180339887498949,22.20360331117452,23.194827009486403,22.090722034374522,38.3275357934736,27.16615541441225,26.5,14.0,25.0,2.5,18.5,4.5,6.5,3.1622776601683795,3.1622776601683795,3.0,36.0,28.0,34.0147027033899,215.6965461012299,213.3541656495134,205.1828452868319,193.93297811357408
123,14,700,0,23.35666666666632,3.0,83.72574275573791,5.0990195135927845,11.045361017187261,23.08679276123039,24.186773244895647,21.095023109728988,40.19950248448356,29.154759474226502,27.5,13.0,24.0,2.5,21.5,6.5,6.5,4.47213595499958,3.1622776601683795,3.5,34.0,27.0,35.014282800023196,218.43534512527958,214.13313615599057,205.87860500790265,193.6620768245554
124,14,701,0,23.390033333332983,3.1622776601683795,80.50465825031493,3.1622776601683795,10.198039027185569,22.090722034374522,24.186773244895647,21.095023109728988,37.21558813185679,27.073972741361768,25.5,12.0,21.0,4.5,20.5,7.5,6.5,5.385164807134504,6.082762530298219,5.5,34.0,27.0,32.01562118716424,218.21548982599745,214.03270778084362,204.79257799051214,192.5850461484484
125,14,702,0,23.42339999999965,4.0,84.5931439302264,3.1622776601683795,10.198039027185569,23.194827009486403,25.179356624028344,22.090722034374522,39.319206502675,29.154759474226502,27.0,13.0,23.0,4.0,21.0,8.0,7.0,5.385164807134504,7.0710678118654755,7.0,34.0,27.0,33.015148038438355,217.329243315298,212.94130646729863,204.79257799051214,193.5071058126807
126,14,703,0,23.456766666666315,2.23606797749979,85.28774824088158,5.0990195135927845,10.04987562112089,24.020824298928627,25.079872407968907,21.095023109728988,38.118237105091836,28.071337695236398,27.0,13.0,20.0,4.5,21.5,9.5,8.5,6.082762530298219,7.0,7.0,34.0,26.0,33.015148038438355,216.44860821913363,213.13845265460665,204.88289338058462,194.50449866262733
127,14,704,0,23.49013333333298,9.0,91.35097153287424,3.0,10.04987562112089,26.076809620810597,28.071337695236398,19.235384061671343,41.19465984809196,31.144823004794873,26.5,11.0,19.0,4.0,26.0,12.0,6.0,6.082762530298219,6.0,6.0,32.0,26.0,32.01562118716424,217.1174797200815,213.03755537463343,204.88289338058462,195.65530915362353
128,14,705,0,23.523499999999647,10.04987562112089,89.27485648266257,3.1622776601683795,10.198039027185569,25.079872407968907,26.1725046566048,20.09975124224178,43.18564576337837,33.06055050963308,28.0,14.0,21.0,2.5,25.5,12.5,5.5,8.06225774829855,8.06225774829855,8.0,34.0,28.0,31.016124838541646,216.74870241826133,212.52999788265186,205.35091916034852,194.20865068271289
129,14,706,0,23.55686666666632,10.04987562112089,87.20665112249179,3.1622776601683795,11.045361017187261,25.079872407968907,26.076809620810597,20.024984394500787,44.04543109109048,33.015148038438355,28.0,14.0,20.0,3.0,27.0,14.0,5.0,7.0710678118654755,8.0,8.0,34.0,29.0,31.016124838541646,217.51781536232843,214.3361845326169,207.24140512938047,196.16319736382766
130,14,707,0,23.59023333333298,9.055385138137417,88.2779700718135,3.1622776601683795,10.198039027185569,25.079872407968907,27.073972741361768,21.02379604162864,43.104524124504614,33.015148038438355,28.5,15.0,22.0,2.5,24.5,11.5,4.5,8.06225774829855,8.0,8.0,33.0,28.0,33.015148038438355,216.390850083824,211.463944917331,204.47982785595258,194.57903278616635
131,14,708,0,23.623599999999644,6.082762530298219,85.14693182963201,4.123105625617661,10.04987562112089,24.08318915758459,25.079872407968907,21.0,41.012193308819754,31.0,28.0,17.0,22.0,1.5,21.5,9.5,4.5,8.06225774829855,9.055385138137417,8.5,33.0,30.0,31.0,215.2812114421507,211.23683390924037,204.15680248279753,192.09372712298546
132,14,709,0,23.65696666666631,1.0,82.29823813423954,5.0990195135927845,8.246211251235321,23.08679276123039,24.08318915758459,22.0,35.05709628591621,27.0,27.0,16.0,23.0,2.5,15.5,4.5,6.5,9.219544457292887,9.0,9.0,33.0,30.0,35.0,214.5250568115529,211.68372634664195,203.71057900855322,192.66551326067673
133,14,710,0,23.690333333332976,1.0,83.2946576918352,5.0990195135927845,9.055385138137417,23.08679276123039,23.194827009486403,21.0,36.05551275463989,27.018512172212592,26.5,16.0,23.0,1.5,16.5,4.5,6.5,8.0,9.0,9.0,32.0,29.0,35.014282800023196,215.2812114421507,211.28653530218153,203.24615617521528,192.26024029944412
134,14,711,0,23.72369999999964,2.23606797749979,83.15046602394962,4.123105625617661,9.055385138137417,24.020824298928627,24.08318915758459,21.0,36.013886210738214,27.0,26.0,17.0,22.0,1.5,16.5,5.5,4.5,8.06225774829855,9.055385138137417,8.5,32.0,30.0,34.0147027033899,215.2812114421507,211.3409567499873,203.35437049643167,191.3164917094185
135,14,712,0,23.757066666666308,3.0,84.29116205154607,4.0,10.04987562112089,23.08679276123039,25.179356624028344,22.02271554554524,39.0,29.017236257093817,27.5,17.0,24.0,1.5,18.5,5.5,5.5,8.06225774829855,8.0,8.0,31.0,29.0,33.0,212.11553455605272,209.15305400591214,201.1591409804685,191.09421759959145
136,14,713,0,23.79043333333297,3.1622776601683795,85.21150157109074,5.0990195135927845,10.04987562112089,25.079872407968907,26.1725046566048,22.02271554554524,40.0,30.01666203960727,28.5,17.0,23.0,2.0,20.0,7.0,6.0,9.055385138137417,9.055385138137417,9.0,32.0,30.0,33.0,213.11499243366245,209.15305400591214,201.1591409804685,190.12890364171355
137,14,714,0,23.82379999999964,5.0,86.14522621712709,5.0,11.0,24.08318915758459,26.1725046566048,20.024984394500787,41.012193308819754,30.01666203960727,27.5,16.0,21.0,1.5,22.5,8.5,5.5,8.06225774829855,9.0,8.0,31.0,30.0,34.0,212.19095173922943,209.2390976849212,203.29781110479277,192.26024029944412
138,14,715,0,23.857166666666306,9.0,86.14522621712709,3.0,10.0,25.079872407968907,26.076809620810597,19.026297590440446,41.012193308819754,31.016124838541646,26.5,15.0,20.0,1.5,23.5,10.5,3.5,8.06225774829855,8.0,8.5,31.0,30.0,32.0,212.08488866489287,210.15232570685484,203.19940944796076,192.21082175569617
139,14,716,0,23.89053333333297,8.06225774829855,85.14693182963201,4.0,10.0,25.079872407968907,27.073972741361768,20.024984394500787,42.0,32.0,28.0,17.0,22.0,0.5,22.5,9.5,3.5,8.06225774829855,9.0,9.0,31.0,30.0,34.0147027033899,212.03773249117714,207.0869382650678,199.2034136253694,189.21416437465774
140,14,717,0,23.92389999999964,9.0,84.1486779456457,3.0,10.0,24.08318915758459,26.076809620810597,20.024984394500787,42.01190307520001,32.01562118716424,27.5,17.0,22.0,0.5,22.5,9.5,2.5,8.06225774829855,9.0,9.0,31.0,30.0,32.0624390837628,211.03791128610044,207.0869382650678,201.1591409804685,189.2643653728826
141,14,718,0,23.957266666666303,10.04987562112089,86.14522621712709,3.0,10.04987562112089,25.079872407968907,27.16615541441225,20.024984394500787,43.01162633521314,33.06055050963308,28.0,17.0,22.0,0.5,23.5,10.5,2.5,10.04987562112089,9.055385138137417,9.0,31.0,31.0,32.01562118716424,212.02122535255756,209.0598000573042,201.08953229842672,191.12822920751398
142,14,719,0,23.99063333333297,9.055385138137417,86.14522621712709,3.1622776601683795,10.04987562112089,25.079872407968907,27.073972741361768,20.09975124224178,42.01190307520001,32.0624390837628,27.5,17.0,22.0,0.5,22.5,9.5,2.5,10.04987562112089,10.04987562112089,9.5,31.0,31.0,33.06055050963308,212.05895406702354,209.0861066642162,203.1206537996567,192.12756179163884
143,14,720,0,24.023999999999635,12.0,87.14355971613737,3.1622776601683795,11.0,25.019992006393608,26.076809620810597,19.1049731745428,45.0111097397076,34.0147027033899,28.0,16.0,21.0,0.5,26.5,13.5,2.5,8.06225774829855,9.0,9.0,31.0,31.0,33.015148038438355,213.00234740490538,209.02152999152983,201.08953229842672,191.09421759959145
144,14,721,0,24.0573666666663,10.0,87.20665112249179,3.0,9.0,26.076809620810597,27.16615541441225,19.1049731745428,41.048751503547585,32.0624390837628,27.0,15.0,21.0,1.0,23.0,11.0,3.0,9.055385138137417,9.0,9.0,30.0,30.0,33.015148038438355,212.05895406702354,207.1183236703117,200.15993605114886,190.16834647227702
145,14,722,0,24.090733333332967,9.055385138137417,86.14522621712709,3.1622776601683795,9.0,26.076809620810597,27.073972741361768,19.026297590440446,40.01249804748511,31.016124838541646,26.5,16.0,21.0,0.5,21.5,10.5,2.5,9.0,9.0,9.5,30.0,31.0,32.0624390837628,213.00938946440834,209.03827400741713,201.1591409804685,190.16834647227702
146,14,723,0,24.12409999999964,9.0,89.1403387922662,3.0,9.0,27.018512172212592,28.071337695236398,18.0,39.0,30.0,25.5,14.0,19.0,1.5,22.5,10.5,3.5,8.06225774829855,10.04987562112089,9.5,30.0,30.0,32.0624390837628,213.03755537463343,208.08652046684813,201.1591409804685,191.12822920751398
147,14,724,0,24.1574666666663,9.055385138137417,87.20665112249179,2.0,8.06225774829855,27.073972741361768,29.068883707497267,19.0,38.0,30.01666203960727,25.5,14.0,20.0,2.0,21.0,10.0,4.0,7.0710678118654755,7.0,7.0,29.0,29.0,32.01562118716424,213.00234740490538,209.02152999152983,201.08953229842672,192.12756179163884
148,14,725,0,24.190833333332964,9.0,88.36288813749809,3.0,9.055385138137417,25.079872407968907,27.16615541441225,19.026297590440446,40.0,31.016124838541646,26.5,13.0,21.0,2.0,23.0,11.0,4.0,3.0,3.0,3.5,32.0,31.0,33.015148038438355,213.00938946440834,211.03791128610044,205.08778608196053,193.0932417253385
149,14,726,0,24.22419999999963,10.04987562112089,87.20665112249179,3.0,10.0,24.08318915758459,26.1725046566048,18.110770276274835,41.012193308819754,31.016124838541646,26.0,15.0,21.0,0.0,23.0,11.0,3.0,2.23606797749979,4.0,3.5,32.0,33.0,31.016124838541646,211.0213259365034,207.06037766796427,202.08908926510605,191.12822920751398
150,14,727,0,24.257566666666296,8.0,85.28774824088158,4.123105625617661,9.0,25.079872407968907,27.16615541441225,19.026297590440446,40.0,31.0,27.0,15.0,22.0,0.5,21.5,9.5,3.5,3.1622776601683795,3.1622776601683795,2.5,32.0,31.0,32.0624390837628,211.03791128610044,209.19369015340783,204.29635336931494,195.4328529188478
151,14,728,0,24.29093333333296,7.0,80.30566605165541,3.0,10.0,23.08679276123039,25.179356624028344,20.09975124224178,40.049968789001575,30.066592756745816,26.5,17.0,24.0,0.5,19.5,7.5,1.5,3.0,3.1622776601683795,3.0,32.0,31.0,31.016124838541646,207.02173798903343,204.1984329028996,200.42205467462907,189.51780918953236
152,14,729,0,24.324299999999628,8.0,75.23961722390672,4.0,9.055385138137417,22.090722034374522,23.345235059857504,21.37755832643195,42.1070065428546,33.24154027718932,29.0,22.0,28.0,4.0,17.0,5.0,0.0,4.0,5.0,4.0,33.0,31.0,28.0178514522438,196.16319736382766,195.5019181491578,192.84190415985836,183.3248482884958
153,14,730,0,24.357666666666294,5.0990195135927845,69.18092222571191,4.0,10.0,20.09975124224178,22.090722034374522,25.495097567963924,44.40720662234904,34.52535300326414,31.5,27.0,32.0,4.5,14.5,2.5,0.5,6.082762530298219,5.0990195135927845,4.5,34.0,30.0,26.0,195.12560057562922,195.65530915362353,195.13328778042973,186.6815470259447
154,14,731,0,24.39103333333296,4.123105625617661,65.12296062065974,6.082762530298219,11.045361017187261,18.110770276274835,18.110770276274835,24.08318915758459,45.27692569068709,34.23448553724738,32.0,27.0,31.0,5.0,16.0,2.0,1.0,8.06225774829855,8.0,7.0,34.0,30.0,24.020824298928627,193.31321734428818,197.3448757885545,196.46119209655632,184.5453873712372
155,14,732,0,24.424399999999626,5.0990195135927845,64.38167441127949,5.0,12.041594578792296,17.029386365926403,18.110770276274835,25.317977802344327,47.38143096192854,35.35533905932738,32.5,26.0,33.0,4.5,17.5,2.5,0.5,8.0,8.0,7.5,33.0,30.0,26.019223662515376,196.02295783912658,200.5617112013158,200.6913052426537,187.92019582790988
156,14,733,0,24.45776666666629,3.605551275463989,64.00781202322104,5.0,11.045361017187261,16.0,17.029386365926403,25.709920264364882,44.91102314577124,33.95585369269929,31.5,28.0,29.0,3.5,15.5,2.5,0.5,8.0,9.0,8.0,32.0,31.0,24.020824298928627,191.0,197.42846805868703,198.22462006521792,186.11824198610947
157,14,734,0,24.49113333333296,2.23606797749979,65.06919393998976,6.082762530298219,12.041594578792296,17.029386365926403,19.1049731745428,24.186773244895647,44.40720662234904,32.38826948140329,31.0,26.0,29.0,3.5,16.5,1.5,2.5,7.0,8.0,7.5,32.0,32.0,24.186773244895647,196.0025510038071,201.30076999355964,201.20636172845033,189.2353032602532
158,14,735,0,24.524499999999623,2.8284271247461903,64.03124237432849,4.123105625617661,12.041594578792296,15.033296378372908,17.11724276862369,24.515301344262525,42.95346318982906,31.04834939252005,29.0,26.0,28.0,3.0,15.0,1.0,1.0,9.0,10.0,8.5,32.0,32.0,21.0,194.0412327316027,199.16073910286636,199.90497742677644,186.81809334215998
159,14,736,0,24.55786666666629,2.23606797749979,67.00746227100382,5.0990195135927845,11.045361017187261,18.027756377319946,19.1049731745428,26.476404589747453,40.792156108742276,29.832867780352597,30.0,28.0,29.0,2.5,11.5,1.5,2.5,9.055385138137417,8.06225774829855,8.0,30.0,31.0,23.021728866442675,191.09421759959145,197.0913493789111,197.4968354176846,184.20097719610501
160,14,737,0,24.591233333332955,2.8284271247461903,66.0,4.123105625617661,13.038404810405298,15.033296378372908,17.11724276862369,23.194827009486403,42.579337712087536,29.614185789921695,28.0,26.0,26.0,3.0,16.0,1.0,1.0,10.0,11.180339887498949,9.5,32.0,34.0,23.08679276123039,195.31000998412753,202.02227599945508,202.63267258761604,186.4242473499625
161,14,738,0,24.62459999999962,1.4142135623730951,65.03076195155643,5.0990195135927845,13.038404810405298,15.033296378372908,15.0,21.095023109728988,40.311288741492746,27.294688127912362,26.5,30.0,28.0,8.0,11.0,2.0,3.0,10.04987562112089,11.180339887498949,9.5,33.0,35.0,22.090722034374522,198.20443990990717,203.1206537996567,204.08331631958552,190.07366992826755
162,14,739,0,24.657966666666287,1.0,65.00769185258002,5.0990195135927845,11.180339887498949,16.0312195418814,18.027756377319946,23.53720459187964,40.024992192379,28.861739379323623,28.0,25.0,26.0,2.5,13.5,0.5,2.5,9.055385138137417,9.0,8.0,31.0,32.0,24.186773244895647,194.20865068271289,200.06249023742558,200.63897926375125,186.5502613238588
163,14,740,0,24.69133333333296,1.4142135623730951,65.03076195155643,6.082762530298219,12.165525060596439,18.027756377319946,19.1049731745428,23.345235059857504,40.792156108742276,28.635642126552707,28.5,26.0,28.0,4.0,13.0,1.0,1.0,9.0,10.04987562112089,9.0,31.0,32.0,22.20360331117452,195.1640335717624,200.08997975910736,199.81241202688085,184.83776670366908
164,14,741,0,24.72469999999962,1.4142135623730951,63.0317380372777,4.0,10.04987562112089,16.1245154965971,16.1245154965971,24.331050121192877,39.45883931389772,29.427877939124322,28.5,25.0,27.0,2.0,13.0,1.0,2.0,9.055385138137417,9.219544457292887,8.0,31.0,33.0,23.194827009486403,196.09181522949905,200.15993605114886,199.81241202688085,185.9704277566732
165,14,742,0,24.758066666666284,2.0,64.0,5.0990195135927845,11.180339887498949,16.0312195418814,18.027756377319946,21.587033144922902,39.81205847478876,28.635642126552707,27.0,25.0,25.0,4.0,14.0,2.0,1.0,9.055385138137417,10.198039027185569,9.0,30.0,33.0,22.20360331117452,192.21082175569617,198.0631212517868,196.65197685250968,183.3248482884958
166,14,743,0,24.79143333333295,1.0,66.03029607687671,7.0710678118654755,13.038404810405298,16.0312195418814,18.110770276274835,21.37755832643195,41.593268686170845,28.635642126552707,28.0,24.0,26.0,4.0,16.0,2.0,2.0,9.055385138137417,9.219544457292887,8.5,30.0,33.0,23.345235059857504,194.06442229321684,199.12307751739877,199.64217991196148,185.43192821086663
167,14,744,0,24.824799999999616,1.4142135623730951,63.00793600809346,5.0990195135927845,12.041594578792296,17.029386365926403,17.029386365926403,22.80350850198276,41.0,29.120439557122072,27.5,24.0,25.0,2.5,15.5,1.5,1.5,9.055385138137417,10.198039027185569,9.0,29.0,32.0,22.360679774997898,194.31160541768986,199.0,197.25364381932212,184.87833837418594
168,14,745,0,24.85816666666628,2.0,65.03076195155643,5.0990195135927845,12.041594578792296,16.0312195418814,17.029386365926403,22.360679774997898,39.81205847478876,27.892651361962706,27.0,24.0,26.0,3.0,14.0,1.0,2.0,8.0,9.055385138137417,8.0,30.0,31.0,24.186773244895647,194.02319448973105,198.16155025635018,196.73586353280888,183.5755975068582
169,14,746,0,24.891533333332948,1.0,65.0,6.082762530298219,11.045361017187261,15.033296378372908,17.029386365926403,21.37755832643195,38.63935817272331,27.65863337187866,27.0,24.0,24.0,3.0,14.0,2.0,3.0,10.0,11.180339887498949,9.5,29.0,33.0,23.194827009486403,191.1674658512792,196.04081207748553,195.5019181491578,183.09560344257315
170,14,747,0,24.924899999999614,2.23606797749979,65.00769185258002,6.082762530298219,13.152946437965905,16.0312195418814,18.110770276274835,20.396078054371138,37.8549864614954,24.73863375370596,25.0,22.0,23.0,2.5,14.5,0.5,2.5,9.0,10.198039027185569,9.5,29.0,33.0,23.08679276123039,192.37463450257678,199.00251254695254,198.4943324127921,183.3248482884958
171,14,748,0,24.95826666666628,2.0,64.03124237432849,4.0,10.198039027185569,18.027756377319946,19.026297590440446,21.840329667841555,36.40054944640259,26.248809496813376,25.0,23.0,25.0,3.0,11.0,1.0,0.0,6.0,6.082762530298219,5.5,30.0,32.0,23.08679276123039,195.1640335717624,199.0628041598932,197.57024067404484,185.31055015837603
172,14,749,0,24.991633333332945,1.0,59.033888572581766,3.1622776601683795,7.0710678118654755,15.033296378372908,16.1245154965971,24.515301344262525,33.734255586866,26.68332812825267,26.5,23.0,25.0,0.0,9.0,0.0,2.0,4.123105625617661,5.0,4.5,30.0,32.0,23.021728866442675,192.31484602078956,194.0025773024678,192.31484602078956,181.99450541156455
173,14,750,0,25.02499999999961,1.0,65.03076195155643,5.0,8.06225774829855,18.027756377319946,18.027756377319946,21.840329667841555,34.92849839314596,26.92582403567252,26.0,23.0,25.0,3.0,10.0,0.0,1.0,4.0,4.0,4.0,29.0,33.0,23.194827009486403,197.36514383244068,200.0024999843752,199.16073910286636,186.77526602845464
174,14,751,0,25.05836666666628,1.0,68.0,4.0,7.0710678118654755,19.026297590440446,19.026297590440446,23.345235059857504,33.37663853655727,26.30589287593181,26.5,24.0,24.0,1.0,9.0,0.0,2.0,7.0710678118654755,6.082762530298219,6.0,28.0,33.0,28.284271247461902,199.36148073286373,200.0099997500125,197.0913493789111,186.52613757862463
175,14,752,0,25.091733333332943,6.0,65.00769185258002,5.0990195135927845,10.04987562112089,18.0,19.026297590440446,23.53720459187964,32.7566787083184,22.80350850198276,25.0,27.0,26.0,3.5,5.5,6.5,0.5,9.0,9.219544457292887,8.5,27.0,35.0,29.274562336608895,201.41995928904365,201.06217943710845,197.02284131541703,186.21761463406193
176,14,753,0,25.12509999999961,1.0,68.06614430096654,4.0,7.0710678118654755,19.0,19.0,23.53720459187964,34.713109915419565,27.65863337187866,27.0,27.0,24.0,2.5,8.5,0.5,0.5,10.0,10.04987562112089,10.0,27.0,36.0,31.400636936215164,207.2920644887305,204.02205763103166,200.02249873451737,187.13097017864254
177,14,754,0,25.158466666666275,2.0,69.06518659932803,6.082762530298219,7.0710678118654755,18.027756377319946,18.0,23.53720459187964,34.713109915419565,27.65863337187866,28.0,27.0,24.0,2.5,8.5,1.5,1.5,10.0,10.04987562112089,9.5,26.0,36.0,31.400636936215164,207.54276667713572,207.1955597979841,202.02227599945508,191.01047091717248
178,14,755,0,25.19183333333294,1.4142135623730951,70.25667228100119,5.0990195135927845,8.246211251235321,19.1049731745428,20.09975124224178,23.53720459187964,36.138621999185304,27.892651361962706,27.5,29.0,23.0,3.0,9.0,1.0,0.0,11.0,10.198039027185569,10.5,26.0,37.0,32.38826948140329,202.89159667172024,201.48697228356974,197.20547659738054,187.04277585621958
179,14,756,0,25.225199999999607,2.23606797749979,72.24956747275377,5.0990195135927845,7.0710678118654755,20.024984394500787,21.02379604162864,22.561028345356956,32.984845004941285,25.96150997149434,26.0,27.0,21.0,2.0,8.0,0.0,1.0,11.0,10.198039027185569,10.0,26.0,37.0,31.25699921617557,199.81241202688085,199.42417105255822,195.1640335717624,185.02432272541898
180,14,757,0,25.258566666666272,1.0,69.46221994724903,5.0990195135927845,9.219544457292887,19.1049731745428,20.09975124224178,22.360679774997898,35.6931365951495,26.476404589747453,26.5,29.0,21.0,3.0,10.0,0.0,1.0,11.045361017187261,11.180339887498949,10.5,25.0,37.0,34.52535300326414,204.70710783946902,203.35437049643167,199.16073910286636,188.04254837669055
181,14,758,0,25.29193333333294,3.1622776601683795,74.33034373659252,5.0990195135927845,8.06225774829855,20.09975124224178,21.095023109728988,23.194827009486403,33.54101966249684,25.495097567963924,26.5,29.0,22.0,2.5,7.5,0.5,0.5,10.0,10.198039027185569,9.5,26.0,38.0,31.575306807693888,204.6264889988586,203.4158302591025,199.2034136253694,190.09471323527123
182,14,759,0,25.325299999999604,2.23606797749979,72.17340230306452,4.123105625617661,8.06225774829855,19.026297590440446,19.026297590440446,23.345235059857504,33.734255586866,25.709920264364882,26.0,26.0,21.0,0.5,9.5,0.5,2.5,11.0,10.198039027185569,10.0,25.0,37.0,32.38826948140329,210.77001684300356,207.40781084616847,202.15835377248203,190.06577808748213
183,14,760,0,25.35866666666627,1.0,71.25307010929424,5.0990195135927845,9.219544457292887,19.026297590440446,21.02379604162864,23.345235059857504,36.6742416417845,27.459060435491963,27.5,28.0,22.0,2.0,11.0,1.0,1.0,11.0,10.198039027185569,10.5,25.0,36.0,32.38826948140329,206.6204249342257,203.35437049643167,198.20443990990717,186.09674903124989
184,14,761,0,25.392033333332936,2.0,74.24284477308234,7.0710678118654755,11.045361017187261,21.02379604162864,23.021728866442675,23.345235059857504,39.45883931389772,28.442925306655784,29.0,28.0,22.0,2.0,14.0,2.0,3.0,11.0,11.180339887498949,10.5,25.0,37.0,32.38826948140329,204.88289338058462,202.5561650505854,199.3037882229036,187.17104476921637
185,14,762,0,25.4253999999996,1.0,76.32168761236873,6.082762530298219,11.045361017187261,21.02379604162864,22.02271554554524,22.20360331117452,39.45883931389772,28.442925306655784,28.0,28.0,21.0,2.5,14.5,2.5,1.5,12.0,10.44030650891055,10.0,25.0,36.0,32.38826948140329,206.6204249342257,206.4097865896867,202.20039564748632,190.06577808748213
186,14,763,0,25.458766666666268,1.0,76.16429609731846,6.082762530298219,11.180339887498949,23.021728866442675,23.0,22.20360331117452,39.6232255123179,28.442925306655784,28.0,27.0,22.0,2.5,14.5,2.5,1.5,10.04987562112089,10.198039027185569,10.0,24.0,36.0,35.35533905932738,206.7849124090053,204.41379601191306,198.16155025635018,187.04277585621958
187,14,764,0,25.492133333332934,1.0,71.34423592694787,6.082762530298219,11.180339887498949,22.02271554554524,23.0,22.360679774997898,39.81205847478876,28.635642126552707,28.0,29.0,22.0,3.5,13.5,1.5,0.5,10.04987562112089,10.198039027185569,10.0,24.0,36.0,34.23448553724738,211.7663807123312,208.47062143141417,202.2992832414391,190.16834647227702
188,14,765,0,25.5254999999996,2.23606797749979,70.34912934784623,5.0990195135927845,11.180339887498949,20.09975124224178,21.02379604162864,23.53720459187964,41.97618372363071,30.805843601498726,29.0,29.0,22.0,2.5,15.5,3.5,0.5,11.045361017187261,10.198039027185569,10.0,23.0,35.0,34.23448553724738,202.89159667172024,198.56736892047493,190.26297590440447,178.10109488714548
189,14,766,0,25.558866666666265,2.23606797749979,70.25667228100119,4.123105625617661,12.041594578792296,22.090722034374522,22.02271554554524,23.345235059857504,40.792156108742276,28.861739379323623,27.5,29.0,23.0,3.0,14.0,1.0,1.0,10.04987562112089,9.219544457292887,9.5,24.0,34.0,33.13608305156178,207.6968945362448,203.48218595248088,197.25364381932212,184.13310403075272
190,14,767,0,25.59223333333293,2.8284271247461903,73.33484846919642,5.0990195135927845,11.045361017187261,21.095023109728988,22.090722034374522,24.186773244895647,42.579337712087536,31.575306807693888,30.0,30.0,23.0,2.5,15.5,3.5,0.5,10.0,9.219544457292887,9.5,25.0,35.0,33.24154027718932,211.53250341259616,206.3492185592182,199.25109786397664,187.17104476921637
191,14,768,0,25.6255999999996,1.0,73.24616030891995,4.123105625617661,11.180339887498949,20.024984394500787,20.024984394500787,24.186773244895647,39.6232255123179,28.442925306655784,28.0,27.0,21.0,0.0,15.0,3.0,2.0,9.0,10.198039027185569,10.0,24.0,36.0,36.22154055254967,213.3377603707323,209.2390976849212,200.24984394500785,188.26576959181932
192,14,769,0,25.658966666666263,1.4142135623730951,77.31752712031083,5.0,11.180339887498949,22.090722034374522,23.021728866442675,24.186773244895647,41.43669871020132,30.265491900843113,29.5,29.0,22.0,1.5,15.5,3.5,0.5,10.0,10.198039027185569,10.0,23.0,34.0,33.24154027718932,212.6805115660577,208.54016399725018,199.42417105255822,186.45374761586316
193,14,770,0,25.69233333333293,1.0,72.44308110509934,5.0990195135927845,11.045361017187261,21.095023109728988,22.090722034374522,23.194827009486403,39.45883931389772,28.442925306655784,28.0,30.0,22.0,3.0,13.0,1.0,0.0,10.0,10.198039027185569,10.0,22.0,34.0,35.35533905932738,214.5250568115529,210.4661492972207,202.48456731316588,190.4442175546425
194,14,771,0,25.725699999999595,1.0,76.6550715869472,5.0990195135927845,11.180339887498949,22.090722034374522,22.090722034374522,23.194827009486403,39.6232255123179,28.442925306655784,28.0,31.0,21.0,3.0,13.0,2.0,0.0,10.0,10.44030650891055,10.0,21.0,35.0,35.35533905932738,214.59729728027799,211.6057655169159,203.62956563328422,190.67249408344142
195,14,772,0,25.75906666666626,2.0,76.6550715869472,4.123105625617661,12.041594578792296,23.08679276123039,24.08318915758459,22.20360331117452,38.63935817272331,26.68332812825267,26.0,29.0,19.0,2.0,14.0,2.0,0.0,10.04987562112089,9.219544457292887,10.0,21.0,35.0,35.35533905932738,213.75921032788273,210.77001684300356,203.71057900855322,193.58202395883765
196,14,773,0,25.792433333332927,1.4142135623730951,76.6550715869472,4.123105625617661,11.180339887498949,24.08318915758459,24.08318915758459,21.213203435596427,37.656340767525464,26.476404589747453,25.5,29.0,19.0,3.0,13.0,1.0,1.0,10.04987562112089,9.219544457292887,9.5,21.0,36.0,35.35533905932738,216.8340379184043,211.85372312045877,204.79257799051214,192.84190415985836
197,14,774,0,25.825799999999592,2.8284271247461903,81.61494961096282,5.0,11.180339887498949,25.079872407968907,25.079872407968907,22.360679774997898,40.792156108742276,29.614185789921695,28.0,30.0,20.0,3.0,15.0,3.0,1.0,11.0,10.44030650891055,10.5,21.0,35.0,33.37663853655727,213.84573879317773,210.77001684300356,201.71762441591463,190.67249408344142
198,14,775,0,25.85916666666626,2.23606797749979,80.50465825031493,5.0990195135927845,12.165525060596439,23.08679276123039,23.08679276123039,22.20360331117452,41.593268686170845,29.427877939124322,28.0,29.0,20.0,2.5,16.5,3.5,0.5,9.0,9.219544457292887,9.0,22.0,35.0,33.37663853655727,213.67732682715777,210.68697159530296,202.71408436514716,190.67249408344142
199,14,776,0,25.892533333332924,2.23606797749979,81.49846624323675,5.0990195135927845,11.045361017187261,23.194827009486403,24.08318915758459,22.090722034374522,39.45883931389772,28.442925306655784,27.5,29.0,20.0,2.5,14.5,3.5,0.5,10.0,10.44030650891055,10.5,22.0,36.0,33.37663853655727,213.60009363293827,209.53758612716717,201.5589243868899,189.51780918953236
200,14,777,0,25.92589999999959,2.8284271247461903,77.41446893184762,5.0990195135927845,12.041594578792296,23.08679276123039,25.019992006393608,21.095023109728988,40.44749683231337,28.442925306655784,27.0,28.0,20.0,3.0,16.0,3.0,0.0,10.0,10.198039027185569,10.0,23.0,35.0,33.24154027718932,214.4574549881631,211.463944917331,202.48456731316588,190.51509126575775
201,14,778,0,25.959266666666256,4.123105625617661,80.50465825031493,5.0990195135927845,11.045361017187261,25.179356624028344,25.079872407968907,22.20360331117452,42.42640687119285,31.400636936215164,29.0,30.0,21.0,3.5,16.5,4.5,1.5,11.045361017187261,10.44030650891055,10.0,21.0,35.0,35.35533905932738,213.67732682715777,210.535032714273,203.55343278854326,193.58202395883765
202,14,779,0,25.99263333333292,2.23606797749979,78.40918313565064,5.0990195135927845,13.038404810405298,24.08318915758459,25.019992006393608,21.37755832643195,41.593268686170845,28.635642126552707,27.0,29.0,21.0,4.0,16.0,2.0,1.0,11.0,10.198039027185569,10.0,23.0,36.0,34.36568055487916,214.75567512873786,209.6115454835444,201.71762441591463,190.51509126575775
203,14,780,0,26.025999999999588,4.47213595499958,81.49846624323675,6.0,12.041594578792296,23.08679276123039,23.08679276123039,22.360679774997898,44.553338819890925,32.55764119219941,30.0,30.0,21.0,3.5,18.5,6.5,0.5,11.0,10.44030650891055,10.5,24.0,35.0,34.36568055487916,213.60009363293827,210.6086417980041,203.55343278854326,191.58809983921236
204,14,781,0,26.059366666666254,1.0,80.50465825031493,7.0710678118654755,12.165525060596439,25.079872407968907,25.079872407968907,23.08679276123039,42.42640687119285,30.265491900843113,30.0,33.0,24.0,5.5,13.5,0.5,1.5,11.0,11.180339887498949,10.5,22.0,34.0,33.24154027718932,213.52751579129094,208.40585404445815,200.3596765818911,189.31983519959022
205,14,782,0,26.09273333333292,3.605551275463989,78.5175139698144,6.0,11.180339887498949,23.08679276123039,23.08679276123039,22.20360331117452,42.579337712087536,31.400636936215164,29.5,30.0,21.0,3.5,16.5,4.5,0.5,10.0,10.198039027185569,10.5,23.0,34.0,32.2490309931942,213.52751579129094,208.47062143141417,199.42417105255822,187.45132701584163
206,14,783,0,26.126099999999585,2.23606797749979,79.40403012442127,5.0990195135927845,12.041594578792296,24.08318915758459,24.020824298928627,22.20360331117452,40.607881008493905,28.635642126552707,27.5,28.0,20.0,2.0,16.0,3.0,0.0,10.0,10.198039027185569,10.5,24.0,35.0,33.24154027718932,213.39634486091836,209.46837470128995,202.41788458533006,190.51509126575775
207,14,784,0,26.15946666666625,1.4142135623730951,77.31752712031083,4.123105625617661,11.045361017187261,23.08679276123039,24.08318915758459,22.20360331117452,38.47076812334269,27.459060435491963,26.5,26.0,19.0,0.5,15.5,3.5,1.5,7.0710678118654755,7.280109889280518,7.0,24.0,34.0,33.37663853655727,213.3377603707323,210.28789789238942,200.3596765818911,189.31983519959022
208,14,785,0,26.19283333333292,3.605551275463989,79.22752047110903,5.0,11.045361017187261,24.08318915758459,25.019992006393608,22.20360331117452,41.43669871020132,30.4138126514911,28.5,26.0,20.0,1.0,18.0,6.0,1.0,9.0,8.246211251235321,7.5,25.0,35.0,33.13608305156178,213.23461257497573,208.153789300123,199.16073910286636,188.17013578142522
209,14,786,0,26.226199999999583,2.8284271247461903,77.10382610480494,5.0990195135927845,11.045361017187261,24.020824298928627,25.0,22.20360331117452,40.607881008493905,29.614185789921695,28.0,26.0,22.0,2.0,16.0,3.0,1.0,7.0,7.280109889280518,6.5,27.0,35.0,32.2490309931942,216.14809737770074,211.0852908186641,202.06187171260194,191.06543381784158
210,14,787,0,26.25956666666625,1.4142135623730951,79.1012010022604,5.0,12.041594578792296,24.020824298928627,25.0,22.360679774997898,40.44749683231337,28.442925306655784,27.5,25.0,21.0,1.0,17.0,4.0,1.0,7.0,7.280109889280518,7.0,30.0,37.0,34.132096331752024,214.05840324546944,210.03809178337153,205.03902067655318,195.04102132628407
211,14,788,0,26.292933333332915,7.0710678118654755,78.02563681252464,4.0,12.0,22.02271554554524,24.0,20.223748416156685,43.18564576337837,31.25699921617557,27.5,24.0,22.0,3.0,20.0,6.0,1.0,7.0,7.0710678118654755,7.0,32.0,39.0,33.06055050963308,215.02092921387907,211.0213259365034,202.02227599945508,191.04188022525324
212,14,789,0,26.32629999999958,8.246211251235321,81.15417426109393,4.0,12.041594578792296,23.021728866442675,25.019992006393608,21.095023109728988,45.27692569068709,33.24154027718932,29.0,26.0,21.0,2.5,21.5,8.5,0.5,7.0,7.280109889280518,7.0,33.0,39.0,34.132096331752024,215.05813167606567,211.03791128610044,204.0612653102004,192.06509313251067
213,14,790,0,26.359666666666246,12.165525060596439,84.2140130857092,4.0,11.0,25.019992006393608,27.018512172212592,21.095023109728988,48.16637831516918,37.21558813185679,31.0,27.0,21.0,3.0,24.0,11.0,2.0,7.0,7.0710678118654755,7.0,32.0,38.0,33.13608305156178,213.23461257497573,209.19369015340783,201.1591409804685,190.26297590440447
214,14,791,0,26.393033333332912,12.041594578792296,80.22468448052632,4.123105625617661,11.0,26.019223662515376,27.018512172212592,21.095023109728988,48.16637831516918,37.21558813185679,31.0,28.0,22.0,4.0,23.0,10.0,2.0,7.0,7.280109889280518,7.0,32.0,39.0,34.132096331752024,214.05840324546944,212.05895406702354,204.0612653102004,193.06475597581243
215,14,792,0,26.42639999999958,10.198039027185569,80.22468448052632,4.0,11.0,25.019992006393608,26.019223662515376,20.223748416156685,45.27692569068709,34.36568055487916,29.0,27.0,21.0,4.0,21.0,9.0,2.0,7.0,7.0710678118654755,7.0,31.0,38.0,35.12833614050059,213.15018179677915,210.08569680013915,204.0612653102004,194.0412327316027
216,14,793,0,26.459766666666244,9.219544457292887,79.1580697086532,3.0,11.0,24.020824298928627,25.019992006393608,21.213203435596427,44.28317965096906,33.37663853655727,28.5,26.0,21.0,2.5,20.5,8.5,1.5,8.06225774829855,7.0710678118654755,7.0,31.0,37.0,33.13608305156178,212.11553455605272,208.0600874747485,201.06217943710845,191.04188022525324
217,14,794,0,26.49313333333291,5.0990195135927845,78.16009211867653,4.0,10.04987562112089,23.021728866442675,23.021728866442675,22.360679774997898,41.43669871020132,31.400636936215164,28.5,26.0,21.0,1.5,17.5,6.5,0.5,8.0,7.0710678118654755,7.0,31.0,36.0,33.06055050963308,212.08488866489287,208.0600874747485,200.0399960007998,190.06577808748213
218,14,795,0,26.526499999999576,1.4142135623730951,75.02666192761077,4.0,11.045361017187261,22.0,23.0,23.08679276123039,39.20459156782532,28.160255680657446,27.5,25.0,23.0,1.0,15.0,3.0,2.0,7.0,8.246211251235321,7.5,30.0,35.0,32.0624390837628,213.03755537463343,208.02163349036562,200.0099997500125,189.0026454841307
219,14,796,0,26.55986666666624,1.4142135623730951,75.1065909225016,4.0,12.041594578792296,22.02271554554524,23.021728866442675,24.08318915758459,41.19465984809196,29.154759474226502,28.5,26.0,22.0,0.0,17.0,4.0,2.0,8.0,9.055385138137417,8.5,28.0,33.0,33.06055050963308,212.05895406702354,207.06037766796427,200.06249023742558,188.04254837669055
220,14,797,0,26.593233333332908,2.0,80.05623023850174,6.0,11.0,24.0,25.0,23.194827009486403,40.311288741492746,29.427877939124322,29.0,24.0,21.0,0.5,17.5,4.5,4.5,8.0,8.246211251235321,8.5,27.0,32.0,31.064449134018133,212.08488866489287,208.08652046684813,200.08997975910736,190.09471323527123
221,14,798,0,26.626599999999573,2.23606797749979,84.1486779456457,5.0,11.0,27.018512172212592,27.018512172212592,23.08679276123039,40.19950248448356,29.274562336608895,28.5,23.0,18.0,2.5,19.5,6.5,5.5,7.0710678118654755,7.0710678118654755,7.0,28.0,32.0,31.144823004794873,213.08449028495716,209.03827400741713,201.03979705520993,192.04166214652486
222,14,799,0,26.65996666666624,2.23606797749979,88.14193099768123,7.0,11.045361017187261,26.019223662515376,27.0,21.213203435596427,41.30375285612676,30.265491900843113,29.0,22.0,17.0,1.5,21.5,9.5,5.5,9.0,8.246211251235321,8.0,29.0,33.0,33.015148038438355,213.05867736377226,210.08569680013915,202.08908926510605,193.0932417253385
223,14,800,0,26.693333333332905,7.0710678118654755,87.09190547921202,3.0,10.04987562112089,26.019223662515376,27.018512172212592,21.213203435596427,41.30375285612676,31.25699921617557,27.5,21.0,17.0,2.0,22.0,10.0,3.0,9.0,9.219544457292887,8.5,27.0,31.0,31.064449134018133,214.11445537375565,211.05923339195564,204.0392119177096,194.06442229321684
224,14,801,0,26.72669999999957,8.06225774829855,88.05112151472007,4.123105625617661,12.0,27.0,28.0,20.09975124224178,44.181444068749045,32.2490309931942,28.0,21.0,18.0,0.5,24.5,11.5,2.5,8.0,9.219544457292887,8.5,28.0,32.0,32.0624390837628,213.19005605327843,210.11663427725088,204.08821622033938,193.06475597581243
225,14,802,0,26.76006666666624,9.055385138137417,88.05112151472007,3.0,10.04987562112089,27.0,28.0,20.223748416156685,42.2965719651132,32.2490309931942,27.5,20.0,17.0,1.5,23.5,11.5,2.5,8.0,9.055385138137417,9.0,29.0,32.0,32.0624390837628,215.08370463612533,211.03791128610044,204.0392119177096,195.00256408570633
226,14,803,0,26.793433333332903,9.055385138137417,86.05230967266364,4.0,11.045361017187261,25.019992006393608,27.0,20.223748416156685,44.28317965096906,33.24154027718932,28.5,21.0,18.0,0.5,24.5,11.5,1.5,9.0,10.04987562112089,9.5,28.0,32.0,31.016124838541646,215.11392330576837,211.05923339195564,204.0392119177096,194.02319448973105
227,14,804,0,26.82679999999957,12.041594578792296,87.05170877128145,3.1622776601683795,11.045361017187261,27.018512172212592,28.0,19.1049731745428,45.27692569068709,34.23448553724738,28.0,21.0,18.0,0.5,25.5,12.5,0.5,10.0,10.198039027185569,9.5,29.0,32.0,31.064449134018133,216.18741869035765,213.15018179677915,206.11889772653063,194.09276132818556
228,14,805,0,26.860166666666235,11.180339887498949,86.05230967266364,3.0,11.0,26.0,27.018512172212592,20.09975124224178,45.17742799230607,34.23448553724738,28.5,21.0,18.0,0.5,25.5,12.5,1.5,9.055385138137417,9.055385138137417,9.0,29.0,32.0,31.064449134018133,215.05813167606567,211.0213259365034,204.00980368599937,193.00259065618783
229,14,806,0,26.8935333333329,10.04987562112089,85.05292469985967,4.0,10.04987562112089,26.0,27.0,20.09975124224178,44.181444068749045,34.132096331752024,29.0,21.0,18.0,0.5,24.5,12.5,2.5,10.0,10.04987562112089,10.0,29.0,31.0,32.0624390837628,216.08331726442927,212.05895406702354,206.03883129157958,195.0640920313116
230,14,807,0,26.926899999999566,8.246211251235321,86.02325267042627,4.0,10.04987562112089,26.019223662515376,26.019223662515376,20.223748416156685,42.42640687119285,32.38826948140329,28.0,19.0,17.0,2.0,24.0,12.0,4.0,10.0,9.055385138137417,9.0,27.0,31.0,31.144823004794873,218.05733191066977,213.0211257129208,205.0219500443794,195.0102561405425
231,14,808,0,26.960266666666232,2.23606797749979,84.09518416651456,5.0990195135927845,10.04987562112089,23.08679276123039,24.0,23.08679276123039,39.45883931389772,29.427877939124322,28.5,20.0,16.0,5.0,21.0,9.0,7.0,9.055385138137417,10.04987562112089,10.0,27.0,31.0,33.06055050963308,214.05840324546944,210.03809178337153,203.0221662774782,192.04166214652486
232,14,809,0,26.99363333333289,3.605551275463989,79.05694150420949,3.0,11.045361017187261,23.021728866442675,24.020824298928627,24.08318915758459,41.30375285612676,30.265491900843113,28.5,24.0,21.0,1.5,18.5,6.5,2.5,10.04987562112089,9.219544457292887,9.0,27.0,32.0,33.06055050963308,213.05867736377226,210.03809178337153,204.02205763103166,190.02368273454758
233,14,810,0,27.026999999999564,3.605551275463989,78.16009211867653,4.0,11.0,23.021728866442675,24.0,22.090722034374522,39.319206502675,28.442925306655784,27.0,25.0,20.0,0.5,16.5,4.5,0.5,10.04987562112089,9.219544457292887,9.0,26.0,32.0,33.06055050963308,215.18828964420902,210.15232570685484,202.12125073826354,190.09471323527123
234,14,811,0,27.06036666666623,2.23606797749979,75.16648189186454,3.1622776601683795,12.041594578792296,24.020824298928627,24.020824298928627,22.20360331117452,39.45883931389772,27.459060435491963,26.0,25.0,20.0,0.5,16.5,3.5,0.5,9.0,9.219544457292887,9.0,26.0,33.0,31.144823004794873,212.2851855405836,209.19369015340783,201.12185361118767,189.12958520548815
235,14,812,0,27.093733333332896,2.23606797749979,77.1621668954417,5.0990195135927845,14.035668847618199,23.0,25.0,20.09975124224178,40.44749683231337,26.476404589747453,25.5,24.0,19.0,1.5,18.5,3.5,1.5,5.0990195135927845,5.0990195135927845,5.0,26.0,33.0,34.132096331752024,216.390850083824,213.3377603707323,204.1984329028996,192.16659439142902
236,14,813,0,27.12709999999956,5.385164807134504,78.10249675906654,4.123105625617661,13.038404810405298,24.020824298928627,26.0,19.235384061671343,41.593268686170845,28.635642126552707,25.5,22.0,18.0,1.0,21.0,6.0,1.0,3.1622776601683795,2.0,2.0,25.0,33.0,34.058772731852805,214.5250568115529,212.3982109152523,205.29490982486632,194.25756098540927
237,14,814,0,27.160466666666228,5.0990195135927845,80.09993757800315,6.082762530298219,14.035668847618199,24.020824298928627,26.0,19.4164878389476,44.553338819890925,30.59411708155671,27.5,21.0,17.0,0.0,25.0,10.0,4.0,2.23606797749979,1.4142135623730951,1.0,25.0,34.0,34.132096331752024,215.83790213954546,213.60009363293827,207.3475343475297,195.25624189766637
238,14,815,0,27.193833333332893,5.0990195135927845,82.09750300709517,5.0990195135927845,14.035668847618199,25.019992006393608,26.019223662515376,18.24828759089466,42.42640687119285,28.442925306655784,25.5,17.0,13.0,3.0,27.0,12.0,6.0,2.23606797749979,2.23606797749979,1.5,24.0,34.0,33.13608305156178,215.59452683219953,212.46176126540982,204.35263639111682,194.31160541768986
239,14,816,0,27.22719999999956,4.123105625617661,85.0235261559999,6.082762530298219,14.035668847618199,24.0,25.019992006393608,17.11724276862369,41.30375285612676,27.294688127912362,25.0,13.0,11.0,5.0,29.0,13.0,9.0,2.8284271247461903,2.23606797749979,2.0,25.0,34.0,33.13608305156178,216.74870241826133,213.60009363293827,206.3492185592182,194.25756098540927
240,14,817,0,27.260566666666225,2.23606797749979,91.00549433962765,5.0,13.038404810405298,27.0,28.0,16.1245154965971,36.22154055254967,23.194827009486403,22.0,9.0,8.0,7.5,27.5,12.5,10.5,2.0,1.0,1.0,25.0,32.0,33.06055050963308,215.52262062252305,213.39634486091836,207.24140512938047,196.09181522949905
241,14,818,0,27.29393333333289,5.0990195135927845,95.00526301210897,5.0,14.0,27.018512172212592,28.0,14.0,38.01315561749642,24.020824298928627,21.5,6.0,7.0,7.5,31.5,15.5,10.5,3.0,3.0,3.0,25.0,28.0,34.0147027033899,219.00228309312212,214.02102700435768,207.02173798903343,194.0412327316027
242,14,819,0,27.32729999999956,6.082762530298219,94.42986815621421,6.082762530298219,15.033296378372908,27.16615541441225,29.154759474226502,11.045361017187261,38.2099463490856,23.194827009486403,20.0,0.0,9.0,6.5,33.5,15.5,11.5,1.0,1.0,0.5,27.0,26.0,34.0,218.11235636707977,214.1494805036893,206.196508214858,194.25756098540927
243,14,820,0,27.360666666666223,8.06225774829855,97.51410154434076,3.1622776601683795,12.041594578792296,27.16615541441225,29.154759474226502,12.165525060596439,35.35533905932738,23.345235059857504,19.0,3.0,7.0,10.0,33.0,17.0,13.0,1.0,1.4142135623730951,1.0,29.0,24.0,34.058772731852805,219.10727965998757,214.84180226389836,206.70026608594387,195.5019181491578
244,14,821,0,27.39403333333289,7.280109889280518,93.05912099305473,2.0,11.180339887498949,27.294688127912362,29.274562336608895,13.341664064126334,33.734255586866,22.561028345356956,18.5,4.0,10.0,10.0,30.0,15.0,12.0,1.0,2.0,0.5,33.0,23.0,34.132096331752024,217.83020910791964,212.27576404290716,204.65825172711703,194.48650338776724
245,14,822,0,27.427399999999555,8.246211251235321,98.3107318658548,2.23606797749979,10.44030650891055,27.16615541441225,29.427877939124322,13.601470508735444,34.48187929913333,24.041630560342615,19.0,4.0,12.0,9.0,29.0,14.0,11.0,1.4142135623730951,2.23606797749979,2.0,35.0,22.0,35.22782990761707,218.1238180483736,213.17832910500073,206.1674077054858,195.47378340841516
246,14,823,0,27.46076666666622,2.0,90.4267659490264,2.23606797749979,8.54400374531753,26.30589287593181,27.294688127912362,15.231546211727817,26.832815729997478,18.35755975068582,16.0,5.0,11.0,11.0,21.0,9.0,13.0,2.0,2.23606797749979,1.0,35.0,21.0,38.2099463490856,219.49487465542333,217.3660507070964,211.0213259365034,197.60819821049935
247,14,824,0,27.494133333332886,1.0,66.48308055437865,3.605551275463989,10.44030650891055,20.8806130178211,22.135943621178654,18.35755975068582,32.64965543462902,22.47220505424423,19.0,9.0,33.0,5.0,8.0,7.0,0.0,4.242640687119285,6.324555320336759,6.0,36.0,19.0,31.575306807693888,227.26416347501865,222.64770378335368,215.64090521049107,202.82997806044352
248,14,825,0,27.527499999999552,2.23606797749979,72.56721022610694,5.0990195135927845,13.601470508735444,21.213203435596427,23.345235059857504,15.231546211727817,36.05551275463989,22.47220505424423,20.0,6.0,21.0,0.5,20.5,4.5,5.5,2.8284271247461903,3.605551275463989,2.5,37.0,18.0,33.54101966249684,230.5666931714119,224.17850030723287,213.46662502602135,197.3119357768303
249,14,826,0,27.56086666666621,8.246211251235321,84.64632301523794,2.8284271247461903,10.770329614269007,24.515301344262525,26.68332812825267,17.0,38.48376280978771,27.730849247724095,21.0,1.0,20.0,5.5,25.5,10.5,8.5,3.0,2.23606797749979,1.0,37.0,18.0,30.59411708155671,223.28905033610582,217.44194627532195,208.58571379651102,192.41881404893857
250,14,827,0,27.594233333332884,3.0,72.3671196055225,2.23606797749979,11.40175425099138,21.095023109728988,23.345235059857504,17.46424919657298,33.24154027718932,21.93171219946131,18.5,4.0,18.0,5.0,20.0,5.0,6.0,3.1622776601683795,3.605551275463989,2.0,39.0,19.0,34.52535300326414,228.16003155680005,221.92341021172146,212.81212371479216,192.67589366602144
251,14,828,0,27.62759999999955,3.0,63.150613615387776,2.23606797749979,11.704699910719626,18.110770276274835,19.1049731745428,16.15549442140351,32.89376840679705,21.18962010041709,18.5,6.0,18.0,3.0,19.0,5.0,5.0,3.1622776601683795,2.8284271247461903,2.0,40.0,20.0,33.54101966249684,229.01964981197574,223.21514285549716,213.19005605327843,193.18643844742311
252,14,829,0,27.660966666666216,3.0,74.52516353554684,2.8284271247461903,11.704699910719626,22.20360331117452,23.194827009486403,16.55294535724685,33.61547262794322,21.93171219946131,18.5,3.0,18.0,4.5,20.5,6.5,6.5,2.23606797749979,3.1622776601683795,1.0,38.0,18.0,32.7566787083184,228.16003155680005,223.3942702935776,214.44113411377026,194.74342094150447
253,14,830,0,27.69433333333288,2.23606797749979,82.56512580987206,3.605551275463989,12.649110640673518,23.194827009486403,24.331050121192877,17.4928556845359,35.35533905932738,23.021728866442675,18.5,2.0,18.0,5.0,21.0,6.0,8.0,2.0,3.605551275463989,2.0,37.0,21.0,32.2490309931942,226.24102192131292,221.20578654275752,214.0023364358436,197.9419106707824
254,14,831,0,27.727699999999547,2.23606797749979,81.39410298049853,4.123105625617661,12.36931687685298,23.194827009486403,24.331050121192877,18.35755975068582,36.24913792078372,24.186773244895647,20.5,4.0,19.0,4.5,21.5,6.5,8.5,2.23606797749979,2.8284271247461903,2.0,37.0,22.0,33.37663853655727,226.10616975217638,223.37860237721964,215.3369452741447,198.59506539690256
255,14,832,0,27.761066666666213,4.123105625617661,84.17244204607586,3.1622776601683795,12.649110640673518,24.186773244895647,26.30589287593181,18.35755975068582,38.07886552931954,25.495097567963924,21.0,5.0,19.0,4.0,23.0,8.0,7.0,1.4142135623730951,2.8284271247461903,2.0,36.0,23.0,34.23448553724738,222.6858774148015,219.53815158190613,213.59073013593076,196.72569735548024
256,14,833,0,27.79443333333288,3.1622776601683795,81.88406438373708,3.1622776601683795,12.36931687685298,23.08679276123039,25.317977802344327,17.88854381999832,36.40054944640259,24.166091947189145,20.5,5.0,17.0,5.0,23.0,7.0,8.0,1.4142135623730951,2.23606797749979,2.0,34.0,22.0,35.12833614050059,226.77080940897133,222.46348014898985,214.75800334329801,199.12307751739877
257,14,834,0,27.827799999999545,2.0,78.40918313565064,3.1622776601683795,12.36931687685298,23.021728866442675,24.186773244895647,17.46424919657298,34.785054261852174,22.47220505424423,20.0,8.0,16.0,4.0,21.0,6.0,6.0,2.8284271247461903,3.1622776601683795,3.5,33.0,25.0,34.058772731852805,221.2690669750293,219.25783908448975,213.06337085477645,197.9898987322333
258,14,835,0,27.86116666666621,1.0,77.31752712031083,3.0,10.198039027185569,22.02271554554524,22.090722034374522,20.248456731316587,34.20526275297414,24.041630560342615,22.5,9.0,16.0,6.5,20.5,7.5,8.5,2.23606797749979,3.1622776601683795,3.0,35.0,28.0,35.05709628591621,217.29703173306348,215.0348808914498,209.74508337503408,197.82062582046393
259,14,836,0,27.89453333333288,4.47213595499958,72.3671196055225,3.1622776601683795,9.486832980505138,19.235384061671343,20.396078054371138,21.02379604162864,30.886890422961002,21.633307652783937,20.0,6.0,20.0,6.0,14.0,2.0,9.0,4.47213595499958,4.0,4.5,34.0,27.0,33.06055050963308,215.20455385516357,213.56497840235883,205.526154053444,191.94269978303421
260,14,837,0,27.927899999999543,3.1622776601683795,81.39410298049853,3.1622776601683795,9.219544457292887,23.08679276123039,23.08679276123039,18.384776310850235,33.83784863137726,24.698178070456937,21.5,4.0,12.0,9.0,24.0,12.0,12.0,4.47213595499958,3.0,3.5,35.0,27.0,33.06055050963308,219.49259668608414,217.671771252039,211.72859986312668,198.01262586006985
261,14,838,0,27.96126666666621,3.1622776601683795,86.57944328765345,4.123105625617661,12.36931687685298,24.08318915758459,26.1725046566048,18.973665961010276,38.600518131237564,26.248809496813376,23.5,5.0,15.0,8.0,27.0,12.0,11.0,2.23606797749979,1.4142135623730951,1.5,34.0,26.0,36.013886210738214,213.96495040076073,212.07781590727495,205.20477577288497,192.50194804209124
262,14,839,0,27.994633333332875,1.0,87.46427842267951,4.123105625617661,9.219544457292887,24.08318915758459,25.079872407968907,18.973665961010276,33.24154027718932,24.041630560342615,22.5,5.0,14.0,8.5,22.5,10.5,12.5,1.4142135623730951,2.23606797749979,1.5,34.0,26.0,33.06055050963308,215.20455385516357,214.2545215392198,209.49701668520245,197.91412279066898
263,14,840,0,28.02799999999954,12.041594578792296,83.86298349093002,6.082762530298219,11.40175425099138,22.20360331117452,23.194827009486403,22.360679774997898,28.460498941515414,17.08800749063506,22.0,8.0,20.0,8.0,13.0,1.0,14.0,2.8284271247461903,3.1622776601683795,2.5,34.0,25.0,35.12833614050059,219.80445855350615,218.2131985009156,213.5883891975404,200.21238722916223
264,14,841,0,28.061366666666206,0.0,82.49242389456137,3.1622776601683795,9.219544457292887,24.08318915758459,25.079872407968907,21.37755832643195,33.734255586866,24.515301344262525,24.0,9.0,18.0,7.5,19.5,7.5,9.5,4.123105625617661,4.0,4.5,33.0,25.0,34.132096331752024,220.19309707617992,217.68095920406083,211.25576915199264,198.90952717253137
265,14,842,0,28.094733333332872,0.0,84.48076704197234,4.0,12.041594578792296,25.079872407968907,26.076809620810597,21.37755832643195,37.33630940518894,25.317977802344327,25.0,10.0,19.0,6.5,22.5,7.5,9.5,5.0990195135927845,7.0710678118654755,6.0,32.0,24.0,34.058772731852805,218.07338214463496,214.70444802099468,207.28000385951367,193.93297811357408
266,14,843,0,28.12809999999953,2.0,83.48652585896721,4.0,12.041594578792296,25.079872407968907,25.317977802344327,20.396078054371138,38.3275357934736,26.30589287593181,25.0,11.0,20.0,4.5,22.5,7.5,7.5,7.0710678118654755,8.06225774829855,7.5,33.0,25.0,36.05551275463989,221.18318200080222,216.8155898453799,207.39334608419819,194.03350226185168
267,14,844,0,28.161466666666204,2.23606797749979,84.48076704197234,3.1622776601683795,11.045361017187261,25.079872407968907,25.179356624028344,21.37755832643195,37.33630940518894,26.30589287593181,25.0,10.0,19.0,6.5,22.5,7.5,8.5,7.0710678118654755,8.0,8.0,33.0,26.0,35.05709628591621,216.44860821913363,213.13845265460665,205.87860500790265,195.65530915362353
268,14,845,0,28.19483333333287,1.4142135623730951,84.38009243891595,3.1622776601683795,10.04987562112089,24.08318915758459,25.179356624028344,21.37755832643195,35.35533905932738,25.317977802344327,24.5,12.0,20.0,5.0,19.0,6.0,7.0,7.280109889280518,8.0,8.0,32.0,26.0,33.06055050963308,217.0184323968819,212.8497122384712,204.70710783946902,192.43960091415696
269,14,846,0,28.228199999999536,1.0,85.37564055396598,3.1622776601683795,9.055385138137417,25.079872407968907,25.179356624028344,22.20360331117452,34.23448553724738,25.179356624028344,25.0,11.0,19.0,7.0,19.0,7.0,9.0,7.0710678118654755,8.0,8.0,31.0,26.0,34.0147027033899,217.0184323968819,212.76277869965884,203.71057900855322,194.50449866262733
270,14,847,0,28.2615666666662,2.0,88.2779700718135,4.0,10.0,25.079872407968907,25.019992006393608,20.09975124224178,36.05551275463989,26.076809620810597,25.0,11.0,18.0,5.5,21.5,8.5,8.5,8.06225774829855,10.04987562112089,9.0,30.0,26.0,34.0,218.44907873461037,213.3377603707323,205.24375751773792,193.12690128513947
271,14,848,0,28.294933333332867,0.0,84.1486779456457,4.0,10.0,25.019992006393608,25.079872407968907,21.02379604162864,35.014282800023196,25.019992006393608,25.0,13.0,18.0,5.5,19.5,6.5,8.5,8.06225774829855,9.0,8.5,30.0,27.0,33.015148038438355,217.45114393812693,213.3377603707323,205.24375751773792,194.12624758130983
272,14,849,0,28.328299999999533,1.0,86.14522621712709,5.0,10.0,24.020824298928627,25.079872407968907,21.02379604162864,37.013511046643494,27.018512172212592,26.5,13.0,18.0,5.5,21.5,8.5,8.5,8.06225774829855,10.04987562112089,9.5,31.0,28.0,33.0,216.33307652783935,212.235718011837,204.15680248279753,193.0932417253385
273,14,850,0,28.3616666666662,1.4142135623730951,87.09190547921202,5.0,10.04987562112089,26.0,27.018512172212592,21.02379604162864,37.013511046643494,27.0,26.5,14.0,18.0,5.0,21.0,8.0,8.0,5.0990195135927845,7.0710678118654755,6.5,29.0,28.0,33.0,217.18655575334307,214.0840956259946,206.0606706773517,196.01020381602586
274,14,851,0,28.395033333332865,2.0,88.20430828479978,4.0,10.0,26.019223662515376,26.019223662515376,21.095023109728988,37.05401462729781,27.073972741361768,26.0,12.0,18.0,6.0,22.0,9.0,9.0,3.0,4.123105625617661,4.0,30.0,28.0,32.01562118716424,217.38905216224666,212.2851855405836,204.1984329028996,193.12690128513947
275,14,852,0,28.42839999999953,1.4142135623730951,86.09297300012354,3.0,9.0,25.0,26.076809620810597,22.20360331117452,35.05709628591621,26.076809620810597,25.5,14.0,18.0,6.0,19.0,8.0,7.0,3.0,4.0,4.0,30.0,29.0,33.015148038438355,215.23243250030885,210.11663427725088,202.03960007879644,193.01036241611484
276,14,853,0,28.4617666666662,0.0,83.09632964216891,4.0,10.0,23.0,25.019992006393608,21.213203435596427,35.12833614050059,25.179356624028344,25.0,15.0,19.0,4.0,18.0,6.0,6.0,3.1622776601683795,4.0,4.0,28.0,30.0,35.014282800023196,217.14741536569116,214.03737991294884,206.03883129157958,195.0230755577401
277,14,854,0,28.495133333332863,1.4142135623730951,83.02409288875127,3.0,10.04987562112089,25.0,24.0,22.20360331117452,36.124783736376884,26.076809620810597,25.5,17.0,19.0,4.0,18.0,6.0,5.0,4.123105625617661,5.0,5.5,28.0,31.0,35.05709628591621,213.19005605327843,211.03791128610044,205.00975586542216,194.0
278,14,855,0,28.52849999999953,1.0,83.00602387778854,3.0,10.0,24.0,24.0,21.37755832643195,35.22782990761707,25.317977802344327,24.5,17.0,18.0,3.5,17.5,5.5,5.5,6.082762530298219,6.082762530298219,6.0,27.0,31.0,33.06055050963308,215.03720608304042,214.0023364358436,207.03864373589778,195.0922858546693
279,14,856,0,28.561866666666194,1.0,80.0,4.0,10.0,23.021728866442675,24.020824298928627,21.37755832643195,35.12833614050059,25.179356624028344,25.0,18.0,18.0,3.0,17.0,6.0,5.0,7.0,7.0,7.5,26.0,31.0,33.13608305156178,214.11445537375565,213.00938946440834,207.02173798903343,195.0922858546693
280,14,857,0,28.59523333333286,2.0,81.0,4.0,10.0,23.021728866442675,24.0,21.213203435596427,37.12142238654117,27.16615541441225,26.0,19.0,19.0,2.0,18.0,6.0,4.0,7.0,8.06225774829855,8.0,26.0,31.0,32.14031735997639,212.05895406702354,211.0,206.08736011701444,196.2065238466856
281,14,858,0,28.62859999999953,1.4142135623730951,78.0,4.0,10.0,21.0,22.0,21.587033144922902,36.22154055254967,26.30589287593181,25.5,18.0,18.0,3.0,18.0,7.0,5.0,7.0710678118654755,7.0710678118654755,7.5,26.0,31.0,34.132096331752024,214.05840324546944,214.0023364358436,208.02163349036562,196.16319736382766
282,14,859,0,28.661966666666192,1.4142135623730951,76.00657866263946,4.0,10.0,21.02379604162864,23.0,21.587033144922902,36.22154055254967,26.30589287593181,25.5,21.0,20.0,0.5,15.5,4.5,2.5,8.06225774829855,9.055385138137417,8.5,27.0,31.0,32.0624390837628,214.11445537375565,212.00943375236866,206.03883129157958,194.164878389476
283,14,860,0,28.69533333333285,1.0,76.0,3.0,11.045361017187261,21.0,23.0,21.587033144922902,36.49657518178932,25.495097567963924,24.5,19.0,19.0,2.0,17.0,5.0,4.0,7.0710678118654755,9.0,8.5,26.0,31.0,32.0624390837628,214.1494805036893,213.0211257129208,208.00961516237658,197.0913493789111
284,14,861,0,28.728699999999524,1.0,76.00657866263946,4.0,12.0,21.02379604162864,23.021728866442675,21.37755832643195,38.2099463490856,26.30589287593181,25.5,20.0,19.0,1.5,18.5,5.5,3.5,7.0710678118654755,8.06225774829855,8.0,27.0,31.0,31.064449134018133,214.28252378577213,214.05840324546944,210.00952359357422,198.09088823063013
285,14,862,0,28.76206666666619,0.0,77.0,4.0,10.0,22.0,22.0,21.587033144922902,35.35533905932738,25.495097567963924,25.0,18.0,18.0,3.0,17.0,6.0,5.0,8.06225774829855,8.06225774829855,8.5,28.0,31.0,32.01562118716424,214.0840956259946,213.00234740490538,208.0384579831335,197.1623696347759
286,14,863,0,28.795433333332856,1.4142135623730951,77.00649323271382,4.123105625617661,11.0,22.0,23.0,21.587033144922902,37.33630940518894,26.476404589747453,25.5,19.0,20.0,1.5,17.5,5.5,3.5,8.06225774829855,9.055385138137417,8.5,28.0,31.0,32.0624390837628,215.3346233191495,213.11499243366245,208.00240383226344,197.0406049523803
287,14,864,0,28.82879999999952,0.0,76.02631123499285,5.0,11.045361017187261,23.0,23.021728866442675,21.213203435596427,37.21558813185679,26.1725046566048,26.0,19.0,21.0,1.0,17.0,4.0,4.0,8.06225774829855,8.06225774829855,9.0,28.0,30.0,33.015148038438355,215.45533179756774,214.1494805036893,207.03864373589778,194.0025773024678
288,14,865,0,28.862166666666187,1.0,74.06078584514209,3.0,10.04987562112089,21.0,22.02271554554524,22.360679774997898,36.345563690772494,26.30589287593181,25.5,19.0,22.0,1.5,15.5,3.5,3.5,7.280109889280518,8.06225774829855,8.5,29.0,29.0,33.015148038438355,217.74526401279087,214.39449619801343,209.15305400591214,196.04081207748553
289,14,866,0,28.895533333332853,2.0,76.05918747922567,3.0,10.0,21.0,22.02271554554524,22.561028345356956,37.33630940518894,27.459060435491963,26.0,19.0,22.0,1.5,16.5,4.5,3.5,8.246211251235321,9.0,9.0,30.0,29.0,34.0,217.66488003350472,216.390850083824,211.11608181282637,199.0628041598932
290,14,867,0,28.92889999999952,2.0,74.00675644831355,3.1622776601683795,10.04987562112089,21.0,22.0,21.37755832643195,36.49657518178932,26.476404589747453,25.0,21.0,22.0,0.5,14.5,3.5,1.5,8.246211251235321,8.0,8.5,31.0,29.0,34.0,216.12265036316762,213.60009363293827,208.24024587000469,195.0922858546693
291,14,868,0,28.962266666666185,1.4142135623730951,74.06078584514209,3.0,10.04987562112089,21.02379604162864,22.02271554554524,22.561028345356956,36.345563690772494,26.30589287593181,25.5,19.0,22.0,1.5,15.5,3.5,3.5,7.280109889280518,7.0,8.0,31.0,27.0,32.01562118716424,213.75921032788273,212.3982109152523,207.24140512938047,195.0922858546693
292,14,869,0,28.99563333333285,1.4142135623730951,76.10519036176179,4.123105625617661,8.246211251235321,22.02271554554524,23.021728866442675,23.53720459187964,36.6742416417845,28.442925306655784,27.5,20.0,24.0,1.0,14.0,4.0,4.0,2.0,3.0,3.0,32.0,29.0,33.015148038438355,213.75921032788273,210.4661492972207,206.29348026537338,197.1623696347759
293,14,870,0,29.02899999999952,1.0,80.05623023850174,6.082762530298219,10.0,24.020824298928627,23.021728866442675,23.194827009486403,38.2099463490856,28.284271247461902,28.5,22.0,25.0,0.5,14.5,3.5,4.5,4.123105625617661,4.123105625617661,4.0,33.0,31.0,33.0,209.6115454835444,208.34586628968668,203.19940944796076,194.09276132818556
294,14,871,0,29.062366666666183,1.4142135623730951,82.00609733428362,7.0710678118654755,11.0,23.0,24.0,23.021728866442675,40.01249804748511,29.017236257093817,29.5,24.0,25.0,1.5,15.5,2.5,4.5,3.1622776601683795,3.1622776601683795,3.0,32.0,33.0,35.014282800023196,211.15160430363773,209.11719202399405,204.0392119177096,195.0102561405425
295,14,872,0,29.09573333333285,2.23606797749979,79.00632886041473,6.0,11.0,24.0,24.0,25.0,41.048751503547585,30.066592756745816,30.5,28.0,27.0,2.5,13.5,0.5,2.5,3.0,4.0,4.0,30.0,32.0,36.013886210738214,216.0208323287363,211.00947846009194,204.00245096566854,195.00256408570633
296,14,873,0,29.129099999999514,1.4142135623730951,78.00640999302557,6.082762530298219,10.0,22.0,24.020824298928627,25.019992006393608,42.01190307520001,32.01562118716424,31.5,26.0,27.0,1.5,15.5,3.5,3.5,5.0,5.0,5.0,29.0,32.0,34.058772731852805,216.03703386225243,210.00952359357422,204.00245096566854,193.00259065618783
297,14,874,0,29.16246666666618,1.0,78.00640999302557,6.082762530298219,12.041594578792296,22.0,23.0,25.0,43.104524124504614,31.064449134018133,31.0,27.0,26.0,1.5,16.5,2.5,3.5,7.0710678118654755,7.0710678118654755,7.0,30.0,33.0,33.06055050963308,217.00230413523263,212.00235847744713,205.00975586542216,193.04144632694815
298,14,875,0,29.19583333333285,1.4142135623730951,80.00624975587844,6.082762530298219,11.045361017187261,23.021728866442675,23.0,25.0,41.10960958218893,30.066592756745816,30.5,26.0,25.0,0.5,15.5,3.5,3.5,8.0,7.0710678118654755,7.0,29.0,32.0,32.01562118716424,212.00235847744713,209.0,202.0,192.00260414900626
299,14,876,0,29.229199999999512,2.23606797749979,79.02531240052139,6.0,10.0,22.02271554554524,23.021728866442675,26.019223662515376,41.10960958218893,31.144823004794873,31.5,28.0,26.0,1.0,14.0,3.0,3.0,8.0,9.055385138137417,8.0,28.0,32.0,33.06055050963308,214.0,210.00238093888365,203.0098519776811,191.02355875650522
300,14,877,0,29.26256666666617,1.4142135623730951,82.00609733428362,6.0,10.04987562112089,24.020824298928627,26.019223662515376,25.019992006393608,40.11234224026316,30.066592756745816,30.5,26.0,25.0,0.5,14.5,3.5,3.5,8.0,8.246211251235321,8.0,28.0,32.0,31.064449134018133,213.00938946440834,211.03791128610044,204.0612653102004,194.09276132818556
301,14,878,0,29.295933333332844,2.23606797749979,83.02409288875127,6.082762530298219,9.055385138137417,24.020824298928627,25.0,24.0,41.10960958218893,32.0624390837628,31.0,25.0,23.0,0.0,17.0,7.0,4.0,8.0,8.06225774829855,7.5,28.0,33.0,31.016124838541646,213.00234740490538,210.02142747824567,204.02205763103166,195.0230755577401
302,14,879,0,29.32929999999951,9.055385138137417,87.02298546935747,5.0,11.045361017187261,25.019992006393608,26.0,22.0,47.042533945356304,36.013886210738214,31.5,24.0,22.0,1.0,24.0,12.0,2.0,7.0,8.06225774829855,7.0,28.0,32.0,31.064449134018133,217.03686322834653,213.03755537463343,206.0606706773517,195.0640920313116
303,14,880,0,29.362666666666176,12.041594578792296,88.0,4.0,9.055385138137417,27.0,28.0,21.0,46.04345773288535,37.013511046643494,31.0,21.0,21.0,0.0,25.0,14.0,2.0,6.0,8.06225774829855,7.5,28.0,33.0,32.0624390837628,217.00230413523263,212.00235847744713,204.00980368599937,194.0103090044444
304,14,881,0,29.39603333333284,8.246211251235321,86.00581375697809,4.0,11.045361017187261,25.0,27.0,21.02379604162864,44.04543109109048,33.015148038438355,29.0,20.0,21.0,0.5,23.5,10.5,2.5,7.0,8.06225774829855,7.5,27.0,32.0,32.0624390837628,214.02102700435768,211.0213259365034,205.03902067655318,195.04102132628407
305,14,882,0,29.429399999999507,6.082762530298219,86.0,3.1622776601683795,9.055385138137417,24.0,26.019223662515376,22.02271554554524,40.049968789001575,31.016124838541646,28.0,20.0,20.0,2.0,20.0,10.0,4.0,8.0,8.06225774829855,8.0,29.0,33.0,32.14031735997639,215.02092921387907,211.03791128610044,204.0612653102004,194.09276132818556
306,14,883,0,29.462766666666173,2.23606797749979,84.00595217006948,5.0,11.0,24.0,25.019992006393608,22.02271554554524,40.049968789001575,29.068883707497267,28.0,22.0,21.0,0.5,18.5,5.5,3.5,8.0,8.06225774829855,8.0,26.0,32.0,33.13608305156178,216.00231480241132,212.00235847744713,205.00975586542216,194.02319448973105
307,14,884,0,29.49613333333284,1.4142135623730951,85.00588214941364,6.0,12.041594578792296,24.0,26.019223662515376,21.02379604162864,40.11234224026316,28.071337695236398,27.5,23.0,22.0,1.5,17.5,3.5,2.5,7.0,8.06225774829855,8.0,26.0,33.0,33.13608305156178,215.00930212434997,213.00234740490538,205.00975586542216,195.0102561405425
308,14,885,0,29.529499999999505,1.4142135623730951,84.0,5.0,12.041594578792296,25.0,26.0,21.02379604162864,39.11521443121589,27.073972741361768,26.5,22.0,22.0,1.0,17.0,3.0,3.0,7.0,7.280109889280518,7.5,25.0,31.0,32.14031735997639,217.00230413523263,213.00234740490538,205.0,194.0025773024678
309,14,886,0,29.56286666666617,2.8284271247461903,83.00602387778854,4.0,11.0,25.0,25.019992006393608,21.02379604162864,38.118237105091836,27.16615541441225,26.0,22.0,21.0,0.5,16.5,3.5,2.5,7.0,8.06225774829855,8.0,27.0,33.0,34.058772731852805,217.00921639414304,212.00943375236866,204.00245096566854,193.00259065618783
310,14,887,0,29.59623333333284,1.4142135623730951,81.02468759581859,4.0,12.041594578792296,25.0,25.0,22.090722034374522,39.20459156782532,27.16615541441225,26.5,23.0,21.0,0.0,17.0,3.0,2.0,6.0,7.0710678118654755,7.0,26.0,32.0,34.058772731852805,216.0208323287363,212.00235847744713,203.00246303924493,191.0
311,14,888,0,29.629599999999503,2.8284271247461903,80.05623023850174,4.0,11.045361017187261,24.020824298928627,25.019992006393608,22.090722034374522,39.319206502675,28.284271247461902,27.0,23.0,20.0,0.5,17.5,4.5,3.5,8.0,9.219544457292887,8.5,25.0,32.0,33.13608305156178,213.08449028495716,210.08569680013915,203.03940504246953,191.04188022525324
312,14,889,0,29.66296666666617,1.4142135623730951,73.06161783043132,5.0990195135927845,11.180339887498949,23.0,24.0,21.02379604162864,38.3275357934736,27.16615541441225,26.5,24.0,21.0,1.5,15.5,2.5,1.5,9.0,9.219544457292887,9.0,25.0,32.0,34.132096331752024,213.11499243366245,210.11663427725088,201.06217943710845,190.09471323527123
313,14,890,0,29.696333333332834,2.23606797749979,74.06078584514209,4.123105625617661,12.041594578792296,22.0,23.021728866442675,22.02271554554524,39.319206502675,27.294688127912362,26.5,24.0,21.0,0.5,16.5,2.5,1.5,7.0,9.219544457292887,8.5,25.0,33.0,35.12833614050059,215.14878572745886,211.15160430363773,204.08821622033938,193.06475597581243
314,14,891,0,29.7296999999995,2.23606797749979,75.05997601918082,5.0990195135927845,11.045361017187261,23.0,23.0,22.090722034374522,39.45883931389772,28.442925306655784,27.5,24.0,21.0,0.5,16.5,3.5,2.5,8.0,9.219544457292887,8.5,26.0,33.0,34.132096331752024,214.03737991294884,210.02142747824567,202.00990074746338,191.01047091717248
315,14,892,0,29.76306666666617,2.23606797749979,78.02563681252464,4.0,12.041594578792296,22.02271554554524,23.021728866442675,23.08679276123039,40.311288741492746,28.284271247461902,27.5,22.0,20.0,2.0,19.0,5.0,4.0,9.0,9.219544457292887,9.0,25.0,32.0,33.13608305156178,215.14878572745886,211.11608181282637,202.12125073826354,189.0952141118331
316,14,893,0,29.796433333332832,3.605551275463989,78.31347265956222,4.123105625617661,10.04987562112089,24.08318915758459,25.079872407968907,25.019992006393608,42.2965719651132,32.2490309931942,30.5,28.0,21.0,0.5,17.5,6.5,1.5,8.0,9.486832980505138,8.5,25.0,32.0,31.144823004794873,215.03720608304042,212.03773249117714,205.08778608196053,191.12822920751398
317,14,894,0,29.82979999999949,4.47213595499958,78.16009211867653,5.0990195135927845,11.045361017187261,24.08318915758459,26.019223662515376,23.021728866442675,43.289721643826724,32.2490309931942,30.0,26.0,21.0,0.5,19.5,7.5,1.5,8.0,9.219544457292887,8.5,26.0,33.0,35.22782990761707,215.08370463612533,212.11553455605272,203.1206537996567,189.12958520548815
318,14,895,0,29.863166666666164,1.4142135623730951,75.0066663703967,4.123105625617661,10.04987562112089,22.02271554554524,22.0,23.08679276123039,38.3275357934736,28.284271247461902,27.5,22.0,21.0,1.5,16.5,4.5,3.5,10.04987562112089,10.198039027185569,9.5,26.0,33.0,31.144823004794873,217.05759604307792,212.02122535255756,202.00990074746338,190.01052602421794
319,14,896,0,29.89653333333283,1.4142135623730951,75.02666192761077,3.1622776601683795,9.055385138137417,23.0,24.020824298928627,24.0,37.12142238654117,28.071337695236398,27.5,24.0,22.0,1.0,14.0,3.0,2.0,10.0,10.04987562112089,9.5,27.0,33.0,33.13608305156178,216.03703386225243,211.03791128610044,202.00990074746338,189.01058171435798
320,14,897,0,29.92989999999949,1.0,77.00649323271382,5.0,10.04987562112089,24.0,24.020824298928627,21.02379604162864,36.124783736376884,26.076809620810597,26.0,21.0,20.0,0.5,15.5,3.5,3.5,8.0,10.198039027185569,9.5,26.0,32.0,34.058772731852805,216.08331726442927,211.05923339195564,203.0221662774782,190.01052602421794
321,14,898,0,29.96326666666616,2.0,80.0,3.0,12.041594578792296,25.019992006393608,25.0,21.02379604162864,36.22154055254967,24.186773244895647,24.0,18.0,18.0,3.0,18.0,4.0,4.0,9.0,9.219544457292887,9.5,26.0,32.0,33.06055050963308,215.08370463612533,211.0852908186641,202.06187171260194,190.06577808748213
322,14,899,0,29.996633333332827,2.0,80.00624975587844,4.0,11.0,24.0,24.08318915758459,20.024984394500787,35.12833614050059,24.186773244895647,24.0,16.0,17.0,3.5,18.5,5.5,5.5,10.0,10.198039027185569,10.0,26.0,32.0,33.06055050963308,215.03720608304042,211.03791128610044,202.00990074746338,189.01058171435798
323,14,900,0,30.029999999999493,1.0,86.00581375697809,3.1622776601683795,11.045361017187261,26.019223662515376,27.018512172212592,21.0,35.12833614050059,24.08318915758459,24.0,15.0,16.0,5.5,19.5,5.5,7.5,10.0,10.198039027185569,10.0,25.0,32.0,35.12833614050059,213.05867736377226,209.03827400741713,201.00995000248122,190.01052602421794
324,14,901,0,30.06336666666616,1.0,82.0,4.0,10.04987562112089,24.0,25.019992006393608,20.024984394500787,34.132096331752024,24.08318915758459,24.0,16.0,16.0,4.0,18.0,6.0,6.0,10.04987562112089,10.198039027185569,10.0,26.0,32.0,35.12833614050059,213.11499243366245,210.08569680013915,202.06187171260194,191.06543381784158
325,14,902,0,30.096733333332825,2.23606797749979,86.0,5.0,11.045361017187261,25.0,26.0,19.026297590440446,37.12142238654117,26.076809620810597,25.0,14.0,14.0,5.0,23.0,10.0,7.0,10.0,10.198039027185569,10.0,25.0,32.0,36.124783736376884,210.23796041628637,208.19462048765814,201.08953229842672,189.06612599828665
326,14,903,0,30.13009999999949,1.0,88.0,4.123105625617661,10.0,25.0,25.019992006393608,20.024984394500787,34.132096331752024,24.186773244895647,24.0,14.0,14.0,6.0,20.0,7.0,8.0,9.055385138137417,10.04987562112089,10.0,26.0,32.0,35.12833614050059,215.11392330576837,211.0852908186641,202.02227599945508,190.02368273454758
327,14,904,0,30.16346666666616,2.0,89.0,4.0,10.04987562112089,25.0,27.018512172212592,18.027756377319946,32.2490309931942,22.20360331117452,22.0,12.0,12.0,6.0,20.0,8.0,8.0,10.04987562112089,11.180339887498949,11.0,27.0,33.0,34.058772731852805,216.08331726442927,210.05951537600004,202.02227599945508,190.01052602421794
328,14,905,0,30.196833333332822,1.0,86.00581375697809,4.0,11.045361017187261,25.0,26.019223662515376,18.027756377319946,32.0624390837628,21.02379604162864,21.5,10.0,11.0,7.5,21.5,8.5,9.5,10.0,10.198039027185569,10.5,26.0,33.0,36.124783736376884,214.18916872708573,210.11663427725088,202.06187171260194,190.06577808748213
329,14,906,0,30.23019999999949,1.0,90.0,4.123105625617661,10.04987562112089,26.0,27.018512172212592,18.0,32.14031735997639,22.090722034374522,22.0,11.0,11.0,7.0,21.0,8.0,9.0,10.0,10.44030650891055,10.0,26.0,33.0,33.13608305156178,215.11392330576837,211.0852908186641,203.0615670184784,193.04144632694815
330,14,907,0,30.263566666666154,0.0,92.0,5.0990195135927845,12.041594578792296,28.0,28.0178514522438,17.0,34.058772731852805,22.02271554554524,22.0,11.0,11.0,6.0,23.0,8.0,9.0,8.0,8.246211251235321,8.5,26.0,33.0,35.12833614050059,216.23135757794242,212.19095173922943,205.19746587129188,194.164878389476
331,14,908,0,30.29693333333282,2.0,89.0,4.123105625617661,11.045361017187261,26.0,26.0,17.029386365926403,34.0147027033899,23.0,22.0,11.0,11.0,6.0,23.0,10.0,8.0,7.0,8.246211251235321,8.0,25.0,35.0,35.12833614050059,217.27862297059966,213.19005605327843,206.196508214858,195.12560057562922
332,14,909,0,30.33029999999949,2.0,94.02127418834527,5.0990195135927845,11.045361017187261,26.0,28.0,17.0,35.05709628591621,24.020824298928627,23.0,11.0,9.0,7.0,25.0,13.0,10.0,7.0,8.246211251235321,8.5,24.0,34.0,35.22782990761707,216.33307652783935,211.3409567499873,203.35437049643167,192.31484602078956
333,14,910,0,30.363666666666152,1.4142135623730951,93.02150289046077,6.0,11.045361017187261,27.0,28.0178514522438,18.0,36.05551275463989,25.019992006393608,24.5,11.0,9.0,8.0,26.0,13.0,12.0,7.0,8.06225774829855,8.0,25.0,34.0,34.23448553724738,217.18655575334307,215.23243250030885,207.2920644887305,196.30843079195554
334,14,911,0,30.397033333332818,1.4142135623730951,93.08598175880189,6.082762530298219,10.04987562112089,27.018512172212592,27.018512172212592,20.024984394500787,37.05401462729781,27.018512172212592,26.5,19.0,15.0,3.0,20.0,8.0,7.0,7.0,8.54400374531753,7.5,24.0,33.0,36.22154055254967,217.23029254687293,216.453228204155,209.53758612716717,199.56452590578317
335,14,912,0,30.430399999999484,3.1622776601683795,92.0869154657707,6.0,10.04987562112089,28.0178514522438,28.0178514522438,25.019992006393608,38.01315561749642,28.0,29.5,22.0,18.0,5.0,18.0,7.0,8.0,7.0,7.280109889280518,6.5,26.0,33.0,35.12833614050059,217.00230413523263,215.05813167606567,208.08652046684813,199.090431713832
336,14,913,0,30.46376666666615,2.0,92.02173656261873,5.0990195135927845,10.04987562112089,26.076809620810597,26.019223662515376,22.20360331117452,39.01281840626232,29.068883707497267,28.0,19.0,17.0,4.0,21.0,11.0,6.0,8.0,8.246211251235321,8.0,25.0,31.0,34.058772731852805,217.00921639414304,214.0023364358436,207.03864373589778,196.0637651377735
337,14,914,0,30.49713333333281,9.0,89.1403387922662,2.0,10.0,26.019223662515376,27.018512172212592,20.396078054371138,41.19465984809196,31.25699921617557,26.5,13.0,18.0,4.5,25.5,13.5,5.5,2.23606797749979,4.0,3.5,29.0,32.0,36.013886210738214,219.0821763631172,215.00930212434997,208.0,198.01010075246163
338,14,915,0,30.53049999999948,4.123105625617661,92.13576938409967,5.0,12.0,26.076809620810597,26.019223662515376,18.439088914585774,39.319206502675,27.459060435491963,25.0,10.0,15.0,5.5,26.5,12.5,9.5,2.0,3.1622776601683795,3.0,29.0,31.0,34.058772731852805,214.18916872708573,212.03773249117714,207.0,197.0101520226813
339,14,916,0,30.563866666666147,7.0710678118654755,82.21921916437786,4.0,12.041594578792296,25.079872407968907,26.019223662515376,17.26267650163207,40.311288741492746,28.284271247461902,24.5,12.0,18.0,2.0,25.0,11.0,5.0,2.0,2.0,2.5,30.0,31.0,35.014282800023196,213.45959805077868,211.19185590358356,206.03883129157958,195.0
340,14,917,0,30.597233333332813,5.0990195135927845,91.26883367283708,4.0,11.045361017187261,25.079872407968907,26.076809620810597,18.681541692269406,38.63935817272331,27.65863337187866,24.5,7.0,14.0,7.5,27.5,14.5,10.5,3.1622776601683795,4.0,4.0,27.0,28.0,32.0624390837628,213.60009363293827,212.235718011837,209.02152999152983,198.01010075246163
341,14,918,0,30.63059999999948,3.1622776601683795,88.05112151472007,5.0,10.04987562112089,22.0,22.0,21.840329667841555,36.40054944640259,26.570660511172846,25.5,14.0,17.0,5.5,19.5,7.5,9.5,2.23606797749979,3.0,3.0,26.0,27.0,31.144823004794873,216.92394980729998,216.390850083824,211.0852908186641,201.0
342,14,919,0,30.663966666666145,4.123105625617661,87.20665112249179,3.1622776601683795,10.04987562112089,23.021728866442675,24.08318915758459,18.384776310850235,35.4400902933387,25.632011235952593,22.0,6.0,12.0,8.0,25.0,13.0,9.0,1.0,4.0,4.0,27.0,28.0,34.0147027033899,218.01376103356412,216.52020690919358,212.11553455605272,198.0
343,14,920,0,30.69733333333281,4.123105625617661,87.20665112249179,3.1622776601683795,10.198039027185569,24.020824298928627,25.019992006393608,17.88854381999832,35.11409973215888,25.079872407968907,21.0,7.0,13.0,6.0,23.0,11.0,8.0,1.0,3.0,3.0,26.0,27.0,30.01666203960727,218.43534512527958,216.6679487141557,212.08488866489287,196.0025510038071
344,14,921,0,30.73069999999948,5.385164807134504,84.2140130857092,3.0,10.198039027185569,23.08679276123039,24.020824298928627,17.4928556845359,35.4682957019364,25.495097567963924,20.5,8.0,14.0,4.0,22.0,10.0,6.0,2.23606797749979,3.0,3.5,27.0,28.0,31.016124838541646,215.45533179756774,215.67104580819372,212.1508896988179,197.00253805471644
345,14,922,0,30.764066666666142,3.605551275463989,86.14522621712709,5.0,10.198039027185569,23.021728866442675,23.021728866442675,18.35755975068582,36.40054944640259,26.40075756488817,22.5,10.0,15.0,3.5,21.5,9.5,7.5,3.0,4.123105625617661,4.0,27.0,26.0,31.064449134018133,225.00888871331284,222.89908030317218,218.1857007230309,204.00980368599937
346,14,923,0,30.79743333333281,5.385164807134504,82.29823813423954,3.0,10.198039027185569,21.02379604162864,22.02271554554524,18.788294228055936,37.0,26.92582403567252,22.5,7.0,14.0,6.5,24.5,12.5,8.5,2.0,3.1622776601683795,3.5,28.0,28.0,32.01562118716424,221.65062598603234,219.65882636488797,214.0840956259946,200.0099997500125
347,14,924,0,30.83079999999948,3.1622776601683795,82.29823813423954,5.0990195135927845,12.165525060596439,23.021728866442675,24.0,19.235384061671343,39.21734310225516,27.313000567495326,23.5,8.0,15.0,5.5,25.5,11.5,9.5,3.1622776601683795,4.123105625617661,4.0,28.0,26.0,32.0,215.6965461012299,214.67417171145672,209.03827400741713,197.02284131541703
348,14,925,0,30.86416666666614,2.0,80.15609770940699,3.1622776601683795,11.180339887498949,22.0,24.0,20.591260281974,36.40054944640259,25.495097567963924,22.0,8.0,13.0,7.5,23.5,10.5,9.5,5.0990195135927845,5.0,5.0,28.0,27.0,29.017236257093817,210.15232570685484,210.95023109728987,207.1183236703117,196.01020381602586
349,14,926,0,30.89753333333281,2.8284271247461903,80.15609770940699,2.0,8.246211251235321,22.0,23.021728866442675,20.591260281974,33.1058907144937,25.059928172283335,21.0,9.0,14.0,6.5,18.5,8.5,6.5,4.123105625617661,6.0,6.0,28.0,27.0,31.016124838541646,210.01190442448734,208.95932618574363,204.15680248279753,193.00259065618783
350,14,927,0,30.930899999999472,1.0,81.15417426109393,3.0,8.246211251235321,21.02379604162864,22.0,17.46424919657298,28.792360097775937,20.615528128088304,19.0,7.0,12.0,6.5,17.5,7.5,8.5,4.123105625617661,5.0,5.0,28.0,26.0,29.017236257093817,211.72859986312668,211.6057655169159,205.08778608196053,193.01036241611484
351,14,928,0,30.964266666666138,1.0,77.10382610480494,3.1622776601683795,10.198039027185569,20.024984394500787,22.02271554554524,18.788294228055936,32.89376840679705,22.847319317591726,20.5,9.0,13.0,6.0,20.0,8.0,8.0,4.123105625617661,5.0,5.5,27.0,27.0,30.01666203960727,211.60340261914504,210.535032714273,204.08821622033938,190.01052602421794
352,14,929,0,30.997633333332804,2.23606797749979,78.16009211867653,3.0,12.041594578792296,21.0,22.0,19.235384061671343,35.11409973215888,23.706539182259394,20.5,9.0,14.0,5.5,21.5,8.5,7.5,5.0990195135927845,6.0,6.0,26.0,25.0,28.071337695236398,220.5379785887229,217.5890622251036,212.05895406702354,197.0406049523803
353,14,930,0,31.03099999999947,1.4142135623730951,80.15609770940699,4.123105625617661,11.180339887498949,21.0,23.0,18.35755975068582,34.539832078341085,23.706539182259394,20.5,10.0,15.0,3.5,19.5,7.5,6.5,4.0,5.0,5.5,29.0,27.0,31.016124838541646,217.0829334609241,216.92394980729998,212.2851855405836,198.00252523642217
354,14,931,0,31.06436666666613,4.123105625617661,77.23341245859851,3.1622776601683795,10.04987562112089,21.02379604162864,22.0,19.72308292331602,36.40054944640259,26.832815729997478,22.0,9.0,15.0,5.0,22.0,11.0,7.0,4.123105625617661,5.0,5.5,28.0,27.0,31.016124838541646,221.472345903501,221.19900542271884,216.390850083824,202.00990074746338
355,14,932,0,31.0977333333328,2.0,77.10382610480494,4.123105625617661,10.198039027185569,21.0,22.0,20.248456731316587,35.84689665786984,25.942243542145693,22.0,10.0,14.0,5.0,21.0,10.0,8.0,4.123105625617661,5.0990195135927845,6.0,29.0,27.0,28.0178514522438,216.0208323287363,215.45533179756774,211.4000946073582,196.02295783912658
356,14,933,0,31.131099999999467,1.4142135623730951,77.23341245859851,5.0990195135927845,11.40175425099138,19.026297590440446,21.0,18.867962264113206,36.24913792078372,25.059928172283335,21.5,10.0,16.0,3.0,20.0,8.0,8.0,6.0,6.082762530298219,6.5,29.0,27.0,29.068883707497267,220.79175709251467,219.31712199461307,213.3377603707323,198.00252523642217
357,14,934,0,31.164466666666133,0.0,75.23961722390672,4.123105625617661,10.198039027185569,19.0,21.0,21.95449840010015,35.84689665786984,25.942243542145693,23.0,10.0,16.0,6.0,20.0,9.0,8.0,5.0990195135927845,6.0,6.0,28.0,26.0,29.017236257093817,220.1317787144782,219.66565503054863,214.59729728027799,200.08997975910736
358,14,935,0,31.1978333333328,2.23606797749979,80.39900496896712,4.123105625617661,10.198039027185569,20.0,22.090722034374522,18.35755975068582,34.539832078341085,24.596747752497688,21.0,6.0,14.0,6.0,22.0,10.0,8.0,5.0990195135927845,6.0,6.0,28.0,25.0,26.019223662515376,221.46105752479374,219.06391761310215,214.93254755853056,201.20139164528658
