,video_id,frame_seq,gap,time_seconds,m1,m3,m4,m5,m6,m7,m8,m9,m10,m11,m12,m13,m14,m15,m16,m17,e1,e2,e3,b1,b2,b3,label_measures
0,69,204,1,6.806800000000008,27.156176047740978,165.1845701293805,15.97729287484526,26.62882145807544,48.22684681551412,47.9318786245357,37.65884045602198,107.04653743627726,80.59343801683794,66.57205364518859,58.58340720776596,53.25764291615087,18.640175020652805,50.59476077034333,18.640175020652805,7.988646437422631,15.97729287484526,16.841545442696866,15.97729287484526,53.25764291615087,63.909171499381046,48.226846815514094,{}
1,69,205,0,6.840166666666675,22.157949572148496,151.33580896738312,16.122276447013974,26.87046074502313,43.32731606838262,48.366829341041296,39.12398139987283,103.37272646891608,76.94528976700589,64.48910578805499,75.23729008606415,59.115013639050176,29.557506819525315,34.931598968530125,2.6870460745021774,13.435230372511342,21.49636859601833,22.157949572148496,21.49636859601833,42.99273719203666,59.11501363905063,53.74092149004588,{}
2,69,206,0,6.8735333333333415,15.722922769930392,152.34927118035242,16.573415809300744,26.723830004861703,37.05928436896634,47.168768309790096,31.879601830567506,90.47324314581556,63.759203661135466,55.03022969475478,62.89169107972021,52.40974256643312,26.20487128321656,31.44584553986033,5.240974256643767,15.722922769929935,15.722922769929935,20.963897026573704,20.963897026573704,41.9277940531465,47.16876830978981,57.650716823076834,{}
3,69,207,0,6.906900000000008,11.084415788529896,161.10579676115944,16.626623682794616,33.71193451435735,44.33766315411913,50.186826998194086,35.05200042408529,95.67334198348613,61.96376798506126,55.42207894264857,66.50649473117846,55.42207894264857,27.711039471324057,33.25324736558969,4.547473508864641e-13,11.08441578852944,22.168831577059336,22.16883157705979,22.16883157705979,44.33766315411913,49.87987104838385,55.69850000375646,{}
4,69,208,0,6.940266666666675,11.38681884619109,154.1432115263057,17.080228269287545,29.03080574723816,45.90173423558944,45.54727538476584,36.008282857695335,92.6819905787187,63.65425246889935,56.93409423095727,68.32091307714882,56.93409423095727,28.46704711547909,28.46704711547818,4.547473508864641e-13,17.080228269287545,17.08022826928709,17.08022826928709,19.92693298083532,45.547275384765726,45.547275384765726,51.55601507523251,{}
5,69,209,0,6.973633333333342,11.919076009447052,161.01785012138762,18.84571389726208,29.797690023618088,41.71676603306503,42.14029735878993,30.38780057808309,90.18417460736424,60.775601156166616,53.6358420425122,59.59538004723572,53.6358420425122,26.817921021256552,32.777459025979624,2.9797690023619907,8.939307007085517,23.838152018894107,24.57180467335785,20.85838301653257,47.67630403778867,53.6358420425122,53.6358420425122,{}
6,69,210,0,7.0070000000000086,6.043289018351516,157.2416886257031,19.110557856672923,30.21644509175576,42.30302312845845,48.34631214680962,30.81484863085351,85.46501291092642,55.71637177295888,51.36795665598538,60.43289018351197,54.38960116516091,27.194800582580683,27.19480058258023,3.0216445091755304,9.064933527527046,19.11055785667296,18.12986705505364,18.12986705505364,54.38960116516091,54.38960116516091,48.34631214680962,{}
7,69,211,0,7.040366666666675,0.0,149.86279623719494,18.668141738611663,31.11356956435293,44.00123205174639,43.55899739009397,39.35589838457862,88.0024641034926,57.37058756472463,56.004425215834544,68.4498530415758,56.004425215834544,24.890855651482525,24.89085565148207,6.222713912870859,12.445427825741262,18.668141738611663,18.668141738611663,18.668141738611663,43.55899739009374,49.78171130296414,50.169123459485725,{}
8,69,212,0,7.073733333333342,6.430735193624969,154.47156019899828,20.335770241257883,32.153675968123935,45.015146355373645,45.015146355373645,32.79044423904114,90.94432926854174,59.288449010702,54.66124914581087,64.30735193624832,57.87661674262336,28.93830837131145,28.93830837131145,3.2153675968124844,9.646102790437451,12.861470387249485,12.861470387249938,16.076837984062422,45.01514635537387,51.44588154899839,45.47216463427089,{}
9,69,213,0,7.107100000000009,6.643638388299223,159.58567043095232,19.93091516489767,33.87604178319186,46.97761756117624,46.97761756117624,35.77708763999627,95.12242565278147,61.25131947910186,56.47092630054294,66.43638388299178,59.79274549469256,29.896372747346504,29.896372747346504,3.321819194149612,16.609095970748058,19.93091516489767,13.287276776598446,16.609095970748058,46.50546871809456,53.149107106393785,46.97761756117624,{}
10,69,214,0,7.140466666666676,6.871067372240759,158.1838500667923,20.613202116723187,35.03570661026727,41.22640423344592,48.09747160568668,30.728347444622987,91.67147264241784,56.6602730729691,51.53300529180706,61.83960635016865,54.96853897792744,30.91980317508433,30.91980317508433,3.43553368612038,10.30660105836114,21.72822285274973,13.742134744481971,13.742134744481971,48.09747160568668,54.96853897792744,48.58578332901208,{}
11,69,215,0,7.173833333333342,13.981399634375066,146.97104714480105,15.631680001526576,27.96279926875013,41.94419890312497,41.94419890312497,35.645714781508524,91.9483002593654,64.45106775214946,55.92559853750026,62.91629835468757,55.92559853750026,24.46744936015648,31.458149177343785,3.495349908593653,10.486049725781411,20.972099451562823,15.631680001526677,13.981399634375066,48.93489872031296,48.93489872031296,41.9441989031252,{}
12,69,216,0,7.207200000000009,7.102208242284178,149.31537753096003,21.306624726852988,36.21429841700747,35.5110412114218,42.6132494537062,29.283154758070943,93.4149646020461,57.25983343138682,53.2665618171327,63.91987418055942,56.81766593827479,31.95993709027925,31.95993709027971,3.551104121142089,10.653312363426268,21.306624726852988,21.306624726852988,21.306624726852988,49.71545769599015,49.71545769599015,42.6132494537062,{}
13,69,217,0,7.240566666666676,16.166400316188895,138.12578484982066,21.68950203508348,28.91933604677797,43.37900407016696,43.97736342661092,22.86274258190703,87.95472685322184,59.61873857179892,50.60883808186145,65.06850610525044,50.60883808186145,36.149170058472464,28.91933604677797,7.229834011694493,14.459668023388986,21.68950203508348,16.166400316188895,18.074585029236005,43.37900407016696,43.37900407016696,43.97736342661114,{}
14,69,218,0,7.273933333333343,14.774337103061953,140.35620247909242,14.774337103062408,29.54867420612481,44.323011309187,44.323011309187,33.03642208494486,89.86878414050231,60.9161524244079,51.710179860717744,59.097348412249175,59.097348412249175,29.54867420612436,29.54867420612481,0.0,14.774337103061953,16.51821104247243,14.774337103061953,14.774337103061953,44.32301130918722,44.32301130918722,44.323011309187,{}
15,69,219,0,7.3073000000000095,0.0,120.92205800629591,22.49780305618788,23.71476666914936,30.920272781668515,37.49633842697949,33.53774465202557,78.29465322790091,54.59549283881278,52.49487379777156,74.99267685395853,59.99414148316691,37.49633842697949,7.499267685395353,14.998535370791616,22.49780305618788,14.998535370791616,14.998535370791616,14.998535370791616,44.99560611237576,52.49487379777156,44.995606112375526,{}
16,69,298,1,9.943266666666633,22.881327990056025,176.9989194518647,8.77458873335316,17.549177466706283,41.989868187031526,44.74179917511909,33.756516853852375,82.77930455201006,65.31029606538037,52.720603264430906,30.5224545215126,58.2701404501604,11.099074371459151,36.071991707242205,13.8738429643239,2.7747685928648025,17.5491774667063,16.87825842692617,15.261227260756243,66.59444622875475,22.19814874291825,51.1642048012338,{}
17,69,353,1,11.778433333333256,17.01465380035279,133.80053726952062,14.030642960434433,28.061285920868865,34.199030885995484,37.586598761471485,38.04592251121434,96.78930543240908,68.8200155692683,59.55128830123522,47.64103064098822,30.626376840635203,1.7014653800354154,56.14835754116461,25.521980700529184,8.507326900176395,7.609184502242591,7.609184502242794,6.805861520141207,40.83516912084701,68.05861520141161,65.45668010523256,{}
18,69,354,0,11.811799999999922,14.53881217197871,131.6545436683111,14.538812171979153,31.930917037467,35.437669386735166,35.96012021073414,39.42388975758581,100.29487144005668,68.46602909613426,59.9450582560853,49.36651856383492,31.735619076750936,1.7630899487085117,58.18196830737679,26.44634923062563,8.815449743541876,7.884777951517293,7.884777951517293,7.052359794833592,38.78797887158453,66.9974180509189,67.36757234875974,{}
19,69,355,0,11.845166666666588,18.681362064651648,136.00236871210006,14.65486610894618,25.906388007542105,36.81989540977237,40.46707170796272,37.36272412930311,96.37733449326583,70.47299449448788,60.451322699403136,43.96459832683854,32.97344874512896,1.831858263618188,56.78760617216676,27.477873954274173,9.159291318091393,3.663716527236602,5.181277601507977,5.495574790854789,40.300881799602166,69.61061401749475,66.35272838217305,{}
20,69,356,0,11.878533333333252,15.205718425394252,133.9161155782255,15.205718425394023,30.648105298394736,38.2038947262488,38.2038947262497,39.68809026232597,99.99999999999996,69.36958071318955,60.82287370157633,49.41858488253092,34.21286645713667,3.80142960634862,57.02144409522771,26.610007244439657,7.602859212697012,7.602859212697012,10.752066611409829,7.60285921269724,41.81572566983368,68.42573291427334,65.06999343970085,{}
21,69,357,0,11.91189999999992,12.35015042188864,133.7014302464729,15.621841911543244,31.486828998508628,35.365448769029705,39.2493920459552,39.828038372610166,98.87836168704573,67.41870081965183,60.534637407229866,50.77098621251548,35.14914430097224,3.905460477885754,54.67644669040124,23.43276286731475,7.810920955771735,3.905460477885754,5.523155175138142,5.858190716828631,39.054604778857765,66.3928281240585,62.973657997017256,{}
22,69,358,0,11.945266666666583,12.064719842340082,137.26472662478287,16.086293123119958,32.42296034331913,36.41689491870578,36.41689491870668,37.07707365041271,97.2688810299574,64.84592068663827,58.31281257131036,44.23730608858023,32.172586246240144,2.010786640390052,58.31281257131013,26.14022632506999,10.053933201949803,5.687363475756485,11.37472695151281,6.032359921170155,36.19415952702025,64.34517249248029,68.83824615892166,{}
23,69,359,0,11.978633333333253,13.129935873139376,129.78063263214696,16.608201156429004,29.35942915255289,33.474899614680176,37.59841448078084,38.28001222933993,96.93058997955768,67.59048176236057,60.20472919205508,49.82460346928679,33.21640231285801,4.152050289107365,53.97665375839392,24.91230173464328,8.304100578214275,9.284266692441417,9.284266692441417,8.304100578214502,37.368452601965146,66.43280462571579,66.94979922936034,{}
24,69,360,0,12.011999999999915,23.00173788077513,147.70500047703572,16.73622262150684,28.44610857696599,40.61384660534453,44.9772468358319,22.31496349534291,89.95449367166334,61.619206972853945,50.20866786452143,11.157481747671229,39.05118611684975,2.78937043691758,64.15552004911069,30.68307480609656,13.94685218458926,12.474443822753212,12.47444382275362,11.157481747671229,83.68111310753557,44.62992699068582,73.37687990485236,{}
25,69,361,0,12.045366666666585,13.442477945923656,127.44779871742352,14.16961590189971,31.684224371710485,31.684224371710904,36.12557399195118,41.31117434620728,100.19431491042266,68.54345735730485,60.491150756656,53.76991178369417,31.36578187382156,2.2404129909871244,56.01032477468152,24.64454290085996,6.721238972961828,4.480825981974476,10.019431491041871,8.961651963948952,40.32743383777051,67.2123897296176,67.80720123326861,{}
26,69,362,0,12.078733333333249,13.61791176822794,132.34231404797313,14.35453938760362,31.775127459198306,32.09772585637996,36.59703822301391,41.85031432088929,100.78890360943518,69.43799784057839,61.28060295702517,49.93234315016866,36.31443138194072,2.26965196137121,56.74129903428275,24.966171575084445,6.808955884114084,10.150192141783505,10.150192141783606,6.808955884113857,40.85373530468337,68.08955884113902,64.19545171275996,{}
27,69,363,0,12.112099999999916,18.57328688147186,130.75712685311277,13.929965161104064,28.24422337677432,37.14657376294417,37.43565651787913,38.28981181360391,98.4997282710898,70.26620796040318,60.36318236478405,51.07653892404801,37.146573762943945,6.964982580552032,53.39819978423179,25.53826946202389,6.964982580552032,9.286643440736045,13.133297102812056,9.286643440736045,37.146573762943945,65.00650408515185,69.80443160242838,{}
28,69,364,0,12.14546666666658,14.598367304469091,133.61915002430914,15.388030267285153,29.59946721438521,34.408681717473506,34.408681717473534,40.12707357192633,99.24981300277732,69.67227029379093,60.82653043528808,53.52734678305342,29.196734608938183,2.4330612174114776,55.96040800046512,26.76367339152671,7.29918365223466,4.866122434823183,6.881736343495093,4.866122434822955,38.92897947858432,68.12571408752251,64.00384774581191,{}
29,69,365,0,12.178833333333246,14.956827727351993,135.43983551594397,15.765880729730732,30.326277090687167,35.25358103683191,35.25358103683191,41.112387029359255,101.68687525761749,71.38306102482517,62.32011553063308,49.856092424506414,34.89926469715442,2.492804621225332,57.33450628818241,27.420850833478653,7.478413863675996,7.050716207366381,7.050716207366381,4.985609242450664,39.884873939605086,69.79852939430907,70.50716207366378,{}
30,69,366,0,12.212199999999912,16.231488588586693,135.0241332083195,15.398542126489474,30.79708425297917,36.29471186009193,36.294711860091056,37.367692938519895,98.73229059761758,68.48072537630728,59.02774481821007,51.328473754965216,30.79708425297917,5.13284737549634,56.46132113046201,25.66423687748284,5.1328473754967945,5.132847375496567,11.477395649741712,10.265694750993134,41.06277900397208,71.85986325695126,61.80766713054773,{}
31,69,367,0,12.245566666666578,21.713717463569388,143.74338182930722,10.532700073778187,26.331750184445355,36.86445025822377,42.13080029511275,42.45867139016144,100.61347618251858,74.47743646372615,63.19620044266912,52.663500368890936,31.59810022133456,0.0,57.92985040577992,26.331750184445585,10.532700073778187,10.532700073778187,7.447743646372606,5.266350036889207,42.13080029511298,73.72890051644754,68.66480365425231,{}
32,69,368,0,12.278933333333244,16.22066002983229,130.77514200803196,12.090166155539452,27.56982067182333,32.44132005966458,37.84820673627564,43.59171400267705,98.66642304616984,71.11649085361265,62.17919678102362,54.06886676610748,37.84820673627519,2.703443338305533,51.3654234278024,18.92410336813782,8.110330014916144,12.090166155539247,7.646492468276956,8.110330014916372,43.255093412886026,70.28952679593976,65.10753729322046,{}
33,69,369,0,12.31229999999991,11.110039592606428,139.87182450465198,17.566515003642035,28.325154339743587,33.78986627201665,38.88513857412181,39.27992167591445,95.89450970374232,67.57973254403464,61.10521775933421,49.99517816672778,33.330118777818825,2.777509898151493,52.77268806487928,24.99758908336389,8.332529694454479,7.855984335183354,7.855984335182871,5.555019796302986,38.885138574121584,72.21525735193995,66.89129626424685,{}
34,69,370,0,12.345666666666576,12.62263089040846,130.93508017363342,11.290024290336987,33.87007287101096,34.337268359709284,39.91626367729016,45.511542906624165,102.235518167928,68.67453671941857,62.09513359685343,56.450121451684936,39.515085016179455,2.822506072584474,53.62761537910046,19.7575425080895,2.8225060725840194,5.645012145168494,12.622630890408866,8.46751821775274,39.515085016179455,67.74014574202192,63.11315445204286,{}
35,69,371,0,12.379033333333242,12.64911064067362,125.6025477448607,16.970562748476823,28.284271247461675,28.844410203712147,34.40930106817071,40.00000000000032,96.82974749528152,68.81860213634111,62.22539674441623,50.91168824543138,33.941125496954555,2.828427124745758,53.74011537017759,25.45584412271592,8.485281374238639,5.656854249492199,8.000000000000064,5.656854249492199,39.597979746446526,67.88225099390843,68.11754546370523,{}
36,69,372,0,12.412399999999908,17.420601154186443,128.93337248991332,11.61373410279066,23.94232620682247,35.321793318651714,34.841202308372885,42.27463024660078,94.52894695506848,70.64358663730253,60.97210403965164,52.26180346255842,34.84120230837243,2.9034335256974373,49.35836993686144,26.130901731279664,2.903433525697892,5.806867051395557,8.21215013898106,5.806867051395329,40.64806935976799,69.68240461674509,64.13894296147247,{}
37,69,383,1,12.779433333333232,3.344383408714293,174.42169889606126,13.789246046690726,26.75506726971139,50.27710698610955,50.27710698610956,57.73300888205394,98.41810673326586,72.19531549323769,70.23205158299237,50.16575113070883,63.54328476556452,0.0,40.13260090456709,10.033150226141744,10.033150226141744,13.789246046690726,13.377533634855697,13.377533634855697,46.8213677219949,26.75506726971137,53.614544657318575,{}
38,69,384,0,12.812799999999898,3.591816389602627,184.06087772417936,14.367265558409713,28.95814951753793,50.28542945443405,57.58119709584434,58.470534620468605,102.16176528468408,73.2589674393008,71.83632779204873,50.28542945443411,68.24451140244628,1.7959081948012,41.305888480428,8.979540974006056,8.979540974006056,14.809438362155452,14.36726555840974,14.36726555840977,43.10179667522922,25.142714727217022,53.99684032159044,{}
39,69,385,0,12.846166666666564,7.520112351317948,181.4592358419207,15.040224702635667,26.32039322961225,52.77490332999018,52.774903329990174,56.89997486555972,98.91163496436886,73.0070850084409,71.44106733751909,48.8807302835657,67.68101116186023,1.880028087829487,39.48058984441843,9.400140439147322,9.400140439147322,11.280168526976697,15.503108770497668,15.040224702635612,45.12067410790678,26.32039322961225,53.17522438901541,{}
40,69,386,0,12.87953333333323,5.51947324660866,161.20263936048312,11.708570883764535,27.31999872878373,46.99662122644767,50.88702897794879,55.19473246608812,98.27142728000668,71.22045625510317,68.29999682195933,46.83428353505781,66.348568341332,1.9514284806274416,40.9799980931756,9.757142403137095,9.757142403137095,12.34191737940873,15.61142784501925,15.611427845019309,46.83428353505786,31.22285569003856,54.63999745756746,{}
41,69,387,0,12.912899999999896,6.001312930821372,183.26127060380267,12.730707208218403,25.46141441643681,51.09933830089158,55.32937136783242,55.815436675707794,98.42885046768264,73.25536005749008,70.0188896452014,46.6792597634676,63.65353604109214,0.0,42.43569069406135,12.730707208218403,12.730707208218403,12.730707208218403,12.730707208218403,14.852491742921472,46.67925976346754,25.461414416436867,59.56133019017962,{}
42,69,388,0,12.946266666666562,4.382657079127966,175.7986406796876,13.147971237383445,30.67859955389485,48.40802965349845,52.77417972473118,57.64485381774056,101.6549727922711,71.3444883253484,70.1225132660453,52.591884949534006,65.73985618691745,2.191328539563869,41.63524225171443,6.573985618691722,10.956642697819577,9.7999191510003,8.765314158255705,8.765314158255592,43.8265707912783,26.295942474767003,52.59188494953378,{}
43,69,389,0,12.979633333333227,4.531141797603596,172.71913739784864,18.124567190414723,27.56185954593172,50.04809697459948,50.04809697459948,50.65970537566203,96.86474806360624,69.31314133451107,67.96712696405507,49.842559773640346,63.43598516645136,6.796712696405507,38.51470527963125,6.796712696405507,11.327854494009216,13.593425392811014,9.062283595207418,11.327854494009216,40.78027617843293,18.12456719041461,49.84255977364046,{}
44,69,390,0,13.012999999999892,0.0,146.66666666666697,20.0,20.0,40.0,46.66666666666652,33.33333333333337,73.33333333333337,53.33333333333337,53.33333333333337,60.0,60.0,26.66666666666663,13.333333333333371,6.666666666666629,6.666666666666629,20.0,20.0,20.0,53.33333333333334,53.33333333333334,60.0,{}
45,69,391,0,13.04636666666656,7.214530267081143,179.71277597253754,15.30432982478544,25.50721637464233,51.26887040123447,56.34728268028719,57.03586973049607,103.17030535144788,78.03707641904096,73.97092748646287,51.014432749284765,71.42020584899865,5.101443274928442,40.81154619942777,10.202886549856998,10.202886549856998,10.202886549856998,15.30432982478544,12.75360818732122,45.91298947435621,20.405773099713883,56.34728268028719,{}
46,69,392,0,13.079733333333223,5.303249069610274,181.01100811521263,16.770346059137385,27.041370491385656,53.29699353740788,53.29699353740879,54.08274098277134,102.9704710669984,75.93097123266696,71.59386243973893,47.72924162649258,63.6389888353234,2.651624534805024,45.07761709168767,13.2581226740258,13.2581226740258,11.858425421261188,10.606498139220548,13.258122674025683,42.42599255688231,21.21299627844121,53.29699353740788,{}
47,69,393,0,13.113099999999893,7.737508415678461,164.9559852851195,16.41373401064243,21.884978680856648,49.544227673770486,49.24120203192797,49.54422767377116,93.65262326659456,71.9629880963336,68.39055837767728,49.24120203192774,65.65493604257017,8.2068670053211,35.563090356392195,8.206867005321328,8.206867005321328,10.942489340428438,10.942489340428324,10.94248934042821,43.76995736171341,27.356223351070867,32.8274680212844,{}
48,69,394,0,13.146466666666557,0.0,174.16655308118408,16.819859157630162,28.5882633535462,50.77010088052288,50.7701008805229,50.77010088052271,95.96987084507116,67.51264161618957,67.27943663052042,50.45957747289026,61.67281691131052,5.60661971921013,39.246338034470455,5.60661971921013,11.213239438420032,5.606619719210016,11.213239438420146,14.016549298025096,44.85295775368036,22.42647887684018,56.34583083298507,{}
49,69,395,0,13.179833333333224,6.035716402834623,181.97459739853963,18.10714920850387,24.142865611338262,54.32144762551161,54.65573661224088,61.55247143313092,104.1926197177276,80.52650063295589,78.46431323684942,54.32144762551116,72.4285968340148,3.017858201417539,39.2321566184246,9.053574604251708,9.053574604251708,6.035716402834396,12.071432805669248,12.071432805669248,42.25001481984191,24.142865611338262,54.65573661224088,{}
50,69,396,0,13.213199999999889,6.135719910779017,178.88543819998358,13.71988681140052,25.298221281346976,49.46775539206781,55.56130689184192,55.56130689184167,99.88228365548748,74.64425433938193,70.56077897395812,49.08575928623168,67.4929190185685,3.0678599553893946,39.88217942006327,9.203579866168411,9.203579866168411,6.135719910779017,12.271439821557806,12.271439821557578,49.08575928623168,24.54287964311584,55.561306891841895,{}
51,69,397,0,13.246566666666554,8.950987670106878,171.94285829827214,12.658608159699495,25.317216319398995,50.63443263879799,51.028480859106246,51.028480859106494,95.77975068333306,70.76377086405412,66.45769283842264,44.305128558948354,63.293040798497714,3.164652039924704,41.14047651902342,9.493956119774792,9.493956119774792,6.329304079849862,6.329304079849635,9.493956119774566,37.97582447909872,18.98791223954936,44.30512855894813,{}
52,69,398,0,13.27993333333322,0.0,171.04933518355978,14.613730936143542,26.141836622486835,52.69055621610028,52.283673244974125,59.18109970872107,98.89944307138012,73.06865468071786,71.89005071183897,52.28367324497367,71.89005071183897,3.267729577810769,35.9450253559196,9.803188733432762,9.803188733432762,9.242534974216198,13.070918311243304,9.803188733432536,45.748214089351904,26.141836622486835,59.18109970872122,{}
53,69,399,0,13.313299999999886,6.887344723738806,173.41890899163616,15.40057098675448,20.662034171215964,48.70088158525051,48.21141306617028,55.52754836416514,97.40176317050016,77.00285493377106,72.3171195992561,48.211413066170735,68.8734472373867,3.443672361869403,37.88039598056275,10.331017085607982,10.331017085607982,6.887344723738579,6.887344723738579,10.331017085607757,48.21141306617096,27.54937889495477,48.21141306617119,{}
54,69,400,0,13.346666666666552,0.0,178.12247653131686,15.881020420107124,28.4088329691374,50.22019609518316,50.22019609518226,57.25983343138679,100.44039219036512,72.42859683401485,71.0220824228436,49.71545769599038,63.91987418055919,0.0,42.6132494537062,7.102208242284405,14.20441648456881,7.102208242284405,15.88102042010692,10.653312363426494,49.71545769599038,28.4088329691374,58.56630951614101,{}
55,69,401,0,13.380033333333218,7.114555037960599,165.0208733549624,14.229110075920744,28.458220151841942,43.27614880465023,50.307501124667645,50.30750112466742,93.57736134425424,65.59295646633328,64.0309953416438,42.687330227762686,64.0309953416438,3.5572775189800723,39.13005270878261,10.671832556940672,10.671832556940672,10.06150022493371,7.114555037960372,10.671832556940672,42.687330227762686,21.343665113881343,57.35937648049339,{}
56,69,459,1,15.31529999999984,17.932114935504543,163.1531655155956,15.842166544618635,25.8195725603245,41.773858670862886,45.932039057237446,45.58925785590458,105.12235509839388,79.3097844577672,70.2996140417448,53.46731208808762,69.30947863270615,15.842166544618635,43.56595799770093,11.881624908463891,0.0,17.932114935504543,19.90147541781233,18.81257277173449,63.36866617847414,41.58568717962368,49.86194514052508,{}
57,69,460,0,15.348666666666505,22.0549118747308,156.78046634533493,14.119210518177644,26.263249714608605,42.35763155453257,44.33522033072856,47.96377069494581,110.27455937365409,84.07749798003982,72.88166336754762,57.90597911394195,75.87680021826873,18.96920005456729,42.930294860336176,10.982168452644146,2.995136850721224,16.098376854627265,18.40919823393319,15.974063203846072,61.89949491490341,41.93191591009588,50.27707926805096,{}
58,69,461,0,15.38203333333317,6.002852032233932,150.9226250660217,20.109305431981262,32.26436020584503,40.2186108639623,42.44657378452039,50.02376693528265,108.21795400621303,76.06244948337093,73.03469972551272,64.03042167716183,80.03802709645231,22.010457451524417,36.01711219340348,0.0,2.0009506774113106,14.567140814584633,16.50026198923603,15.00713008058483,68.03232303198439,50.0237669352826,54.17368409704319,{}
59,69,462,0,15.415399999999837,2.0018776408453505,140.8303490943938,18.12777303728092,28.31082509895018,34.26662557143022,38.5068852661338,50.0469410211349,98.27567834560746,70.09430984760384,69.06477860916607,62.05820686620723,76.07135035212502,19.017837588031284,29.02722579225815,3.0028164612681394,1.000938820422789,14.573889210248062,16.139653521051386,16.015021126763145,66.06196214789799,52.04881866198025,56.19538328071414,{}
60,69,463,0,15.448766666666502,1.9837746052248804,143.17576266149237,17.853971447023127,29.82267158823408,35.927686155134225,39.87337608569488,49.634024765211095,97.2251961467406,67.44833657764309,67.44833657764309,63.48078736719356,73.3996603933175,18.845858749635568,28.764731775759515,2.975661907837207,0.9918873026124402,12.546492233823413,14.027404757001229,13.886422236573594,63.4807873671935,49.59436513061996,53.89152923270112,{}
61,69,464,0,15.482133333333168,2.833496534643696,140.6082507595106,22.03943075526581,30.120481323139856,38.12079711578126,40.51999116634583,48.12775398369493,102.20245641862203,72.12904610814269,71.1272538010852,66.11829226579755,76.13621533637286,23.04122306232341,31.05556151878364,3.005376921172683,3.005376921172683,14.16748267321804,14.025092298805532,14.025092298805532,64.11470765168247,50.08961535287693,52.24709454146408,{}
62,69,465,0,15.515499999999834,7.980471737132916,138.0240986427729,19.95117934283257,34.150918033161524,37.95970754569795,40.3487631635066,43.89259455423155,105.81651120306496,71.82424563419704,67.83400976563064,65.83889183134738,75.81448150276356,26.93409211282392,34.91456384995695,2.992676901424943,6.982912769991344,12.135828614184204,12.13582861418411,11.970707605699488,59.85353802849761,49.87794835708132,55.898917912455815,{}
63,69,466,0,15.5488666666665,8.279186687777843,137.07434309712113,20.079977181126992,38.20476214573741,34.371384419777264,38.362742539086135,42.21573447765691,108.59908100504992,70.39456934577665,66.26392469771883,62.24792926149348,74.29591557016954,26.103970335464965,40.15995436225387,0.0,6.0239931543379726,12.214173280660216,14.198688030845974,12.047986308676172,60.23993154338069,54.215938389042606,52.20794067092993,{}
64,69,467,0,15.582233333333166,6.285316014532029,137.50340896447776,17.88832297786803,33.84746260317704,31.863514766031454,35.996812008886266,45.75779127464816,103.5266152026004,69.67918455874282,66.58431330650865,63.60292614353068,73.54088335345728,22.85730158283127,34.782850234743364,0.9937957209925798,4.96897860496324,13.913140093897312,14.054393868561762,13.913140093897368,59.62774325955991,51.677377491618586,51.71558627871787,{}
65,69,468,0,15.615599999999832,2.8383074400801416,134.7075183601275,20.06986437972955,32.17444020472286,30.371215891786,36.348070325727065,48.20946859688075,102.53324245024706,70.35911680054555,69.24103211006673,64.22356601513434,72.25151176702605,20.06986437972955,34.11876944554001,2.006986437972955,0.0,14.04890506581063,14.04890506581063,14.048905065810573,58.20260670121547,52.18164738729661,52.33580325456931,{}
66,69,469,0,15.648966666666498,5.789051497745131,139.55396898030435,22.51412663881581,34.85470556579916,30.97277806552891,35.03452467274065,51.20938804855503,112.86794802867192,78.01807431204045,75.72933505783499,69.58911870179429,79.82281262852871,23.537496031489127,37.86466752891761,1.023369392673544,1.0233693926733167,14.327171497428251,16.501335630906116,15.350540890101684,65.49564113110046,53.21520841901912,49.50400689271836,{}
67,69,470,0,15.682333333333164,16.57374411385549,144.83710563544997,22.70616902351578,37.06001848026784,33.147488227710966,37.513368896121065,47.4599805141425,123.77073116634784,86.73091980228506,78.1173581878378,71.95019833090328,88.39595794939544,32.89151923698444,43.17011899854185,2.055719952311506,10.278599761557643,14.536135184999615,16.44575961849216,15.417899642336463,65.7830384739687,51.39299880778805,55.84600771300308,{}
68,69,471,0,15.71569999999983,18.59962219901108,149.03778393927269,22.68700213601558,37.19924439802229,35.15855413419124,41.539269092395,43.328853950995054,121.81012272665038,84.61319956059656,74.9704402306121,69.8354785709812,88.32134054565267,35.94473161741678,42.106685608973976,1.026992331926181,13.350900315040576,12.493900951088497,14.523864842631928,13.350900315040576,65.72750924327636,45.18766260475252,52.00273812577044,{}
69,69,472,0,15.749066666666495,14.260634711480934,148.88539739947,20.268170089972976,34.52134145587866,34.8146461442709,39.15836303910287,42.54356298115172,111.57978445647905,77.06022650712497,69.57816140873581,62.519507352777055,84.70384867150437,31.259753676388527,37.310028581496,1.0083791508512832,9.075412357661207,14.260634711480934,16.259625244346292,14.117308111917453,66.55302395618202,44.3686826374547,48.77887573303876,{}
70,69,473,0,15.78243333333316,10.847348024853227,147.03024582928148,20.2434841593631,34.479295655199095,34.77224310861869,41.083859997139456,44.49738468722213,109.68239476903348,75.2066012065451,69.49341761307585,60.42905879397904,84.60068231157061,28.20022743719028,36.25743527638736,2.0143019597993543,6.042905879397949,12.739564176613426,14.243265751314349,13.092962738695462,64.45766271357763,42.3003411557853,52.71932742265541,{}
71,69,474,0,15.815799999999829,6.325504217141852,141.4425742149093,20.102766883464348,32.253869436520205,34.53053297173666,36.88371080079571,44.18807277685597,102.71886559734236,70.46623054267953,67.01005226181542,60.009002025506334,80.01200270067511,26.00390087771939,32.00480108027011,4.000600135033778,4.000600135033778,10.771945527300682,10.771945527300714,10.001500337584387,66.00990222805706,44.00660148537139,50.643552707420056,{}
72,69,475,0,15.849166666666491,4.52957273196727,140.70868173103256,20.35789744817623,30.654199293824487,36.68674298983628,39.33171743920246,52.70679030986583,107.83808285227448,77.2155985950579,74.95040077904093,66.84765474887445,83.05314680920753,22.28255158295815,32.410984120666285,2.025686507541764,2.025686507541764,12.32176998620501,14.74722037613602,13.166962299020724,64.82196824133268,44.56510316591618,53.28749226761107,{}
73,69,476,0,15.88253333333316,2.866481446193336,142.40384403246998,20.26908468748797,26.42765312918547,36.70887364854559,36.98760865814789,54.76405113485004,103.5510223280744,77.12912742999707,76.0090675780798,68.91488793745896,81.07633874995179,20.26908468748797,28.37671856248312,2.0269084687487293,0.0,12.819294739860789,14.756116388004491,14.18835928124156,66.88797946871023,46.61889478122225,51.03625117888917,{}
74,69,477,0,15.915899999999825,0.0,140.12916330006644,20.067168545322005,26.263249714608754,32.01046427459321,36.16282363294376,55.90922121346125,102.01068529950854,75.90306880144041,75.87680021826873,69.8865265168265,79.87031601923024,18.96920005456718,26.956231656490218,2.99513685072111,0.998378950240408,10.75287037403672,12.145804139121257,11.980547402884495,61.89949491490347,45.9254317110574,50.27707926805096,{}
75,69,478,0,15.94926666666649,0.0,144.27108215992223,24.070555431466097,30.249615019545704,34.04090594503282,38.18990191086711,51.97272147995591,106.1139802964008,75.98642882624472,75.9601313937817,69.96327891532519,79.95803304608592,22.98793450074959,30.983737805358373,2.998426239228138,0.9994754130759702,10.76467964018699,12.642475082632144,11.993704956912891,63.96642643686874,47.97481982765157,50.332295725581055,{}
76,69,479,0,15.982633333333157,8.456429501620002,152.27099177922145,24.61182497701316,35.10721525920082,34.92702305867617,39.184021330198064,49.2236499540262,117.0679765641217,82.06504990314858,77.93744576054155,71.7844895162882,84.09040200479478,28.71379580651524,38.96872288027089,2.0509854147511533,4.101970829502079,8.456429501620002,12.475657231036116,12.305912488506578,63.58054785728388,51.2746353687773,53.67942531820172,{}
77,69,480,0,16.015999999999824,14.276612204965046,150.07429158130498,22.300781169374595,36.39836211055668,36.56596865521636,42.82983661489501,46.437410791506295,119.27594724988224,82.87816243690014,75.71316976876028,70.66562511750965,84.79875014101151,31.294776837754284,41.38986614025566,1.0095089302501492,9.08558037225123,10.295011468983263,12.28120618985398,11.104598232751528,60.57053581500827,46.43741079150635,46.83077000336731,{}
78,69,481,0,16.04936666666649,18.62419238435852,153.57902478506824,22.716971768812144,39.293159868171,39.29315986817112,43.62915280203597,45.2473557121574,125.72801875187956,86.47919799231065,77.1261745093592,69.92773155515226,90.49471142431469,34.963865777576075,45.2473557121574,2.0566979869163333,10.283489934581212,10.487143168852937,13.00770019547704,11.31183892803938,65.81433558131977,47.30405369907356,45.666106232379626,{}
79,69,482,0,16.082733333333156,18.546506054862167,146.22918088432718,20.11651024708852,38.43253886360426,38.69488005832981,42.67356242857499,48.32151581529124,125.12728104264872,86.71126012464741,77.44856445129108,70.40778586480997,90.5242961118986,32.186416395341666,44.25632254359493,2.01165102470884,10.058255123544312,7.253110917927445,8.996376876512201,8.04660409883536,66.38448381539234,44.25632254359488,47.34864173603664,{}
80,69,483,0,16.116099999999822,12.14974065095613,145.19362557921417,22.06205997465237,36.17454417294139,36.44922195286863,42.69964315113637,49.93512647599823,120.1103289608349,83.98607314754544,77.89879730255734,69.90917706639755,89.88322765679698,29.96107588559903,39.94810118079863,1.99740505903992,5.9922151771197605,8.932666981230536,10.7563554295343,8.988322765679698,63.91696188927784,39.94810118079863,52.54352351294885,{}
81,69,484,0,16.149466666666488,4.455846194507889,144.85269972861494,20.026537874631245,28.18124575607735,36.3636363636364,40.30016677738757,53.84019441950562,106.08283375364728,77.94547443301562,75.72316991034631,67.75230991978356,87.67945989619045,23.91257997168828,27.898009966969767,5.978144992922012,3.985429995281265,10.731098675943716,10.731098675943851,9.963574988203447,63.76687992450224,35.868869957532524,50.45151407666577,{}
82,69,485,0,16.182833333333154,2.82722580900284,141.3612904501367,20.09121428988568,26.294719993667712,34.219945149734784,40.774830486698185,54.01407323937227,102.445493715901,76.20409434934406,74.96814530592962,65.97196786921813,85.96347328413265,21.99065595640616,25.98895703938888,5.997451624474479,1.999150541491531,10.765755140203623,12.643738193343872,10.995327978203022,65.97196786921808,35.98470974684619,50.96853810837274,{}
83,69,486,0,16.21619999999982,2.0041881186184582,143.70182547952442,22.13698131649946,30.32886963590819,36.29739060674019,38.551328193466645,56.15304498980701,108.6891007119004,78.39424802026048,78.16333662612419,68.14239603303133,88.18427721921705,22.04606930480429,30.06282177927858,4.008376237237144,2.004188118618572,14.590709742333582,16.52695861334456,15.031410889639233,66.13820791441276,40.08376237237138,50.74199029890735,{}
84,69,487,0,16.249566666666485,6.325504217141924,147.12747516417323,24.086802448969127,30.071103760660552,36.226975006415074,42.43277226447288,52.04625484886631,112.30219737414096,82.23155482284507,79.01185266691675,70.01050236309072,88.01320297074267,27.004050911477748,33.004951114028586,3.000450101275192,3.000450101275192,14.144257421490908,16.126934718260046,16.002400540135,68.01020229557389,40.00600135033761,50.643552707420056,{}
85,69,488,0,16.28293333333315,8.253126141202234,145.007657020227,22.10924628842349,34.26319298765758,36.251914255056754,42.46198368656548,50.081945220529256,114.53371819735835,80.29195717690983,76.06373007208765,70.05869875060705,86.07211560788858,28.023479500242843,36.030187928883606,2.0016771071601624,6.005031321480601,18.45455107860887,18.125957127528384,17.014255410861665,68.05702164344683,44.03689635752443,48.7029060207592,{}
86,69,489,0,16.316299999999817,6.009020300758266,145.10398167000625,22.03307443611357,32.29751365298105,38.10980282307498,40.5083049300377,48.1138736177364,108.32915404843962,76.14060793380618,73.10974699255871,68.1022300752602,84.1262842106155,28.04209473687183,32.04810827071071,4.006013533838768,6.009020300758266,16.14875682649047,18.13799770875076,18.0270609022748,66.09922330834075,42.06314210530775,48.73525803900496,{}
87,69,490,0,16.349666666666483,2.830798912437805,145.24233090114737,22.018448178762128,32.089325156843195,38.24198743639213,42.46198368656548,50.08194522052936,106.2587044814013,74.1701728078413,73.06121441134735,66.05534453628661,84.07043850072841,25.02096383950243,31.025995160983143,5.004192767900463,3.0025156607403005,16.138036766794198,16.138036766794116,16.01341685728164,64.05366742912645,42.03521925036421,50.40094172733993,{}
88,69,491,0,16.38303333333315,2.8486531502630323,145.92224024390129,22.24869234361111,30.481919825079064,38.48318490739462,42.72979725394325,48.34324703518314,103.04488445431274,72.62669000323983,71.5077195728752,66.47196467337687,82.58638035177137,26.18592547739104,28.200227437190165,6.042905879397949,4.028603919598709,18.240280030487625,20.14301959799303,19.135868618093355,64.45766271357763,42.3003411557853,49.01008194309375,{}
89,69,492,0,16.416399999999815,2.8486531502630323,142.4326575131439,20.14301959799297,30.481919825079064,36.75756145732044,39.11066950641143,48.34324703518325,100.8962223009144,70.52933846505373,69.49341761307585,62.44336075377839,82.58638035177137,24.17162351759157,28.20022743719028,6.042905879397836,2.0143019597992406,20.5419299985696,20.24348415936304,19.135868618093355,62.443360753778336,42.3003411557853,50.99805230541746,{}
90,69,493,0,16.44976666666648,2.904772968526352,144.71484474209186,20.64229039940637,31.08242810414017,33.11950754206065,39.88116824707469,49.29563193245724,103.02734659468553,72.00673813046838,70.86247090290738,65.72750924327636,82.15938655409548,24.64781596622868,28.7557852939334,6.161953991557198,4.107969327704723,20.946615763207337,20.64229039940632,21.56683897045008,65.72750924327642,43.13367794090016,51.71801235142426,{}
91,69,494,0,16.483133333333146,2.8486531502630323,143.92043019220003,20.243484159362986,28.486531502628697,34.479295655199,38.745871812917045,48.38519346132663,99.2133178893825,70.759076332299,69.49341761307596,64.45766271357763,80.57207839197201,24.17162351759157,26.185925477390924,6.042905879397836,4.028603919598595,22.52058054661141,22.24869234361111,22.15732155779233,64.45766271357763,42.3003411557853,49.01008194309375,{}
92,69,495,0,16.516499999999812,2.0130006733174923,139.8274955239327,20.230406392072364,30.26203573184448,36.73381520736034,38.7208410676629,50.32501683293458,100.83104096625009,70.56995842810173,70.45502356610848,64.41602154615634,80.52002693269537,22.14300740649128,28.18200942644341,6.039002019952136,2.013000673317378,22.506031721452587,24.1560080798086,23.14950774314991,64.41602154615634,46.29901548629988,46.691202387576375,{}
93,69,496,0,16.549866666666478,2.832679335302478,145.10398167000602,22.03307443611357,30.31099254076676,36.275995417501385,38.52860443982155,46.11267870566869,100.47030829327454,70.2196010892357,69.10373345871983,64.09621654142131,80.12027067677661,26.039087969952448,28.04209473687183,6.009020300758266,4.006013533838882,24.119395425821143,24.036081203033007,23.03457781957325,64.09621654142131,48.07216240606596,48.238790851642165,{}
94,69,497,0,16.583233333333144,2.844904161904976,141.51789813997095,22.12816127179736,30.441803897824297,36.43254958453512,38.43253886360449,46.31168446474895,100.90390205811612,70.52264366688048,69.4019603524556,64.37283279068345,78.45438996364544,25.14563780886067,29.168939858278463,5.029127561772157,3.0174765370633168,24.22348607355615,22.128161271797467,23.133986784151887,62.36118176597466,46.26797356830377,50.45195102905795,{}
95,69,498,0,16.61659999999981,2.8326793353025583,142.90298734237203,22.123932860493984,30.310992540766847,34.28595309655571,38.26739055042311,46.06915563914663,100.47030829327464,70.2196010892357,69.10373345871983,66.09922330834081,80.12027067677673,27.0405913534122,27.040591353412083,7.010523684218015,5.007516917298631,22.39429645111944,24.119395425821143,23.034577819573315,62.09320977450193,46.06915563914657,44.247865720988216,{}
96,69,499,0,16.649966666666476,2.0130006733174923,143.43247810594002,22.234319164631582,30.462227787339422,36.28988572594672,40.46081278414475,48.3539354873819,101.15203196036154,70.71336430334713,70.45502356610848,68.4420228927911,80.52002693269537,26.16900875312604,26.16900875312592,6.039002019952136,6.039002019952136,24.23973799492389,26.16900875312598,25.16250841646729,62.40302087283891,44.28601481298245,48.4794759898478,{}
97,69,500,0,16.68333333333314,2.0030067669192704,142.56568635114954,22.03307443611357,30.310992540766875,34.10997612743584,38.267390550423336,48.11387361773642,100.47030829327464,70.2196010892357,70.10523684217958,70.10523684217958,80.12027067677673,27.0405913534122,25.0375845864927,7.010523684218015,7.010523684218015,24.119395425821143,24.036081203033007,23.034577819573315,62.09320977450193,44.06614887222719,46.24300212721072,{}
98,69,501,0,16.716699999999808,2.0143019597993543,143.36963117649125,22.248692343611,30.481919825079093,34.30232633106493,38.48318490739462,46.37271357364372,101.0368722857764,70.61557775359385,69.49341761307585,70.50056859297558,80.57207839197213,29.207378417089785,25.178774497491304,7.05005685929757,9.06435881909681,24.50504097154691,24.17162351759157,23.16447253769195,62.443360753778336,44.31464311558466,48.51081511833984,{}
99,69,502,0,16.750066666666473,2.0130006733174923,143.27701101988586,22.234319164631472,28.46812853271609,36.28988572594672,38.45832386406523,46.29901548629982,98.82172748424676,70.48377485217202,69.44852322944973,70.45502356610848,80.52002693269537,29.188509763102047,23.14950774314991,9.05850302992826,9.05850302992826,24.239737994923853,24.1560080798086,24.1560080798086,64.41602154615634,46.29901548629988,46.47372937309567,{}
100,69,503,0,16.78343333333314,4.475886080615407,142.4710467027383,20.01677107160197,30.290871137430045,36.08574723394264,40.2332119212101,46.038573464684646,100.26384445299831,70.08728830443962,68.05702164344677,70.05869875060705,80.06708428640798,29.024318053822867,25.020963839502546,7.005869875060739,9.007546982220902,24.351453010379583,24.10338420207292,23.019286732342263,60.05031321480601,46.038573464684646,44.218492576846735,{}
101,69,504,0,16.816799999999805,4.504116109322252,143.36963117649125,24.25540755916993,32.2917169411846,34.24313331658823,40.486968318726205,44.31464311558466,104.9178716958498,72.62669000323983,70.50056859297558,70.50056859297558,80.57207839197213,31.22168037688914,29.2073784170899,5.035754899498215,9.06435881909681,24.255407559169967,24.17162351759157,23.16447253769195,60.42905879397904,46.32894507538396,48.38519346132675,{}
102,69,505,0,16.85016666666647,8.278560843722635,142.91011774426144,22.086305214969343,32.18821888819751,36.19695724459987,42.35555626530039,44.17261042993857,106.49157503444042,74.31742745943693,70.27460750217506,70.27460750217506,80.31383714534297,31.121611893820383,31.121611893820383,3.011768892950272,9.035306678851043,18.18181818181821,18.18181818181821,18.0706133577022,60.2353778590072,48.18830228720577,46.35472285084351,{}
103,69,506,0,16.883533333333137,10.14040253126791,142.09595222983248,22.308885568789265,32.70181555143223,36.56174128033109,42.78240514781003,46.6458516438322,111.61815186246716,79.09513974388938,74.02493847825542,77.06705923763582,83.1513007563965,33.4633283531839,31.43524784693045,5.070201265633841,11.154442784394632,14.340694787641509,14.196563543775028,14.196563543775028,60.84241518760723,48.67393215008576,46.68991953428758,{}
104,69,507,0,16.916899999999803,12.05984471542422,143.06159349518103,22.10971531161101,32.40985883340206,36.23532374632965,40.39997980001515,44.21943062322214,110.62164238001634,78.38899065025737,72.35906829254532,72.35906829254532,82.40893888873211,33.164572967416575,33.164572967416575,1.0049870596186563,11.054857655805565,10.248897255807808,12.22619525936623,11.054857655805565,58.28924945788373,48.23937886169688,48.28123516359446,{}
105,69,508,0,16.95026666666647,12.005704064467864,142.2927787104091,24.011408128935614,32.07767960205691,36.017112193403364,40.06900608932704,44.06636758929524,112.05323793503304,80.06303507303384,74.03517506421827,76.03612574162958,84.03992845127482,36.01711219340348,32.015210838580856,2.0009506774113106,14.006654741879174,10.004753387056551,12.171307805532305,11.005228725762151,56.02661896751658,48.02281625787134,48.022816257871455,{}
106,69,509,0,16.983633333333135,13.891719300036812,137.0620265203602,21.82984461434341,31.814457416154195,37.706095242956735,39.74020888514569,43.70476894046701,111.13375440029375,79.40605590984724,72.4353934930486,77.39672181449026,83.35031580022036,36.71382957866854,30.760235592938443,2.976796992865048,14.883984964325125,12.071432805669104,14.032755599137175,12.899453635748388,53.58234587157023,45.64422055726351,47.670078359459815,{}
107,69,510,0,17.0169999999998,12.182287237478215,140.32158745803702,22.030312533948404,34.10570035479271,38.10502566193762,40.25489106556401,46.10689836359574,114.17464072027956,80.11022739617596,74.10196034146276,78.10747171127156,84.11573876598476,35.04822448582695,33.04546880092278,3.004133527356544,13.017911951878546,14.019289794330804,16.022045479235203,16.022045479235203,58.07991486222761,48.06613643770561,46.06338075280132,{}
108,69,511,0,17.050366666666466,13.955413899505745,139.6822421635429,22.02036923775909,31.960329145828567,35.94068598927922,41.913682214245554,43.90515866130905,111.6611100500763,79.74522228288993,72.767515333137,77.75159172581778,83.73248339703446,36.882165305836565,30.901273634619884,2.990445835608284,14.952229178041875,16.07316340600051,16.07316340600051,15.949044456578008,57.81528615509524,49.84076392680623,43.90515866130893,{}
109,69,512,0,17.083733333333132,15.942511329846866,139.62502483039006,21.920953078539355,31.947237397213453,35.87065049215562,39.90606757366682,43.88717401235628,113.590393225159,81.72966956096607,73.73411490054173,77.7197427330035,83.6981844816961,36.86705745027086,32.881429617809204,0.9964069581154718,14.946104371731508,16.066579437049423,18.04569752011032,17.935325246077753,55.79878965446403,49.82034790577149,47.86903294224132,{}
110,69,513,0,17.117099999999798,16.015021126763145,140.18861969520768,22.02065404929931,30.293905762742643,38.03567517606234,42.08706722143027,44.086781841325255,112.12302037017972,82.10139278695527,74.06947271127956,80.07510563381572,84.07886091550654,38.03567517606257,30.028164612680825,2.001877640845464,18.01689876760861,18.127773037281,18.016898767608552,18.016898767608552,56.05257394367101,50.04694102113484,48.08675107870105,{}
111,69,514,0,17.150466666666464,14.089577450832849,144.9772683061936,22.14076456559451,32.45537284949422,36.23034201642736,42.31662894843426,44.32725090808867,112.73458957403204,80.53702717733434,73.46708242219995,78.4990743689259,82.52466792630673,36.23034201642725,32.20474845904664,2.0127967786903582,16.102374229523207,20.22835727643136,18.11517100821368,18.11517100821368,54.34551302464104,48.30712268856979,46.33806170225967,{}
112,69,515,0,17.18383333333313,16.022045479235203,138.24818095993692,22.030312533948404,32.04409095847052,36.04960232827921,40.10515133620834,42.10552704064232,112.17219867653844,80.13525793182697,72.09920465655836,78.10747171127156,82.11298308108036,38.05235801318361,32.04409095847052,0.0,16.022045479235203,18.135724064403544,18.135724064403544,19.026179006591803,52.07164780751441,46.06338075280121,48.10784242076907,{}
113,69,516,0,17.217199999999796,16.034913948137046,140.36275291352678,22.048006678688463,30.132201723006148,38.0829206268254,42.13934504883729,42.09164911385977,110.25825338090536,80.17456974068529,72.15711276661676,78.17020549716807,82.17893398420239,38.08292062682551,30.065463652756875,2.004364243517216,18.03927819165426,18.150290182159097,16.034913948137046,17.037096069895654,54.11783457496256,50.109106087928296,48.10474184441114,{}
114,69,517,0,17.25056666666646,16.159701152708546,138.35921811931388,22.13892667958817,30.065463652756875,38.0829206268254,42.0916491138596,42.09164911385977,110.24003339344216,80.17456974068529,72.15711276661676,78.17020549716807,82.17893398420239,38.08292062682551,30.065463652756875,2.004364243517216,18.03927819165426,18.150290182159097,20.043642435171307,19.04146031341276,54.11783457496256,50.109106087928296,50.10910608792824,{}
115,69,518,0,17.283933333333128,15.949044456578008,137.57495427771414,19.93630557072254,29.97083903344781,35.88535002730055,39.92242079377179,43.90515866130904,109.6496806389738,79.7701387722601,71.7707000546011,79.74522228289004,81.7388528399623,36.88216530583668,28.90764307754762,2.990445835608398,16.94585973511414,20.035739133042046,19.93630557072248,20.93312084925861,53.82802504095076,49.84076392680623,45.89682214477231,{}
116,69,519,0,17.317299999999793,14.089577450832849,138.8975624477388,22.14076456559451,32.2675870523776,36.23034201642736,40.30622408257679,42.31662894843432,110.70382282797247,78.52487521575871,71.45428564350954,78.49907436892596,80.51187114761632,37.23674040577248,31.198350069701405,1.0063983893451225,17.108772618868443,20.12796778690404,20.12796778690404,20.12796778690409,54.34551302464104,50.319919467260206,44.32725090808867,{}
117,69,520,0,17.35066666666646,14.177442357890412,141.78888961879497,24.30418689924079,30.44767040763793,36.45628034886113,42.58052236060518,42.58052236060506,111.39418995485356,81.03926923763204,73.92523515185735,78.98860742253248,81.01395633080256,37.46895480299611,31.39290807818611,1.0126744541350945,15.190116812025394,18.34031440349158,18.228140174430564,19.2408146285656,52.65907161502167,50.633722706751655,46.58302489021139,{}
118,69,521,0,17.384033333333125,18.05765078974241,140.4627257690872,20.064056433047085,28.089679006265783,38.12170722278938,40.178241696215096,44.186500751476174,110.37054892586836,82.28709609911947,73.23380598062175,80.25622573218817,82.26263137549296,37.1185044011371,29.092881827918177,1.003202821652394,17.054447968090017,18.168775843456487,18.05765078974236,19.06085361139469,52.16654672592233,52.16654672592233,46.14732979600808,{}
119,69,522,0,17.41739999999979,16.051245146437736,142.46892959117508,22.07046207635176,30.09608464957057,36.17099213157726,42.13451850939873,42.18226302161075,110.37054892586843,80.28130188519265,72.23060315896942,80.25622573218823,78.24982008888344,37.1185044011371,31.099287471222965,1.003202821652394,17.054447968090017,18.168775843456487,18.05765078974236,19.06085361139469,52.16654672592233,50.160141082617656,46.14732979600808,{}
120,69,523,0,17.450766666666457,16.060137355853158,142.53371903319658,20.07517169481639,30.112757542224585,36.13530905066955,40.15034338963278,44.21097957629234,110.43169296954837,80.32577682417704,72.2706181013391,80.30068677926567,80.30068677926567,36.13530905066955,30.112757542224585,2.0075171694816163,16.060137355853158,20.1752978605552,18.06765452533477,19.071413110075586,50.18792923704103,50.18792923704103,46.2165159705349,{}
121,69,524,0,17.484133333333123,12.099012080378088,145.18814496453683,24.198024160756063,32.32698648340272,36.353007031884296,40.330040267926734,42.394527047178265,110.90761073679896,78.6694268644939,72.59407248226836,78.6435785224574,78.6435785224574,36.29703624113415,32.26403221434157,0.0,14.115514093774436,20.26559442437309,20.26559442437309,21.1732711406616,52.42905234830499,52.42905234830499,48.43804056222927,{}
122,69,525,0,17.51749999999979,14.186902234252443,145.92242298088195,20.26700319178917,30.46798656835952,36.48060574522037,42.560706702757216,44.63344462534295,109.44181723566136,79.06729151604091,71.94786133085142,77.01461212879872,77.01461212879872,32.42720510686263,32.42720510686263,0.0,12.160201915073458,20.36808612903412,20.26700319178917,21.280353351378608,54.72090861783067,52.6942082986518,44.63344462534295,{}
123,69,526,0,17.550866666666455,14.262991646413385,145.24460373513608,20.27151992390866,30.256374339557965,38.37778547947972,42.40692287160213,44.37601569801837,108.92294762240864,78.66657328285066,71.60675260362041,76.6494816602135,78.66657328285066,33.28201177351366,31.264920150876605,1.0085458113185268,15.128187169778926,20.27151992390874,20.27151992390872,21.17946203769054,52.44438218856709,50.42729056592992,46.393107320655645,{}
124,69,527,0,17.58423333333312,16.208402118831145,145.88968818453108,22.378456614279003,30.45821410902939,38.54823527230086,42.54705556193176,42.59526753837582,111.45118168378518,81.14324987234656,72.93780953473993,76.98991006444771,79.0159603293016,35.45587963494302,33.429829370089124,1.0130251324269466,15.1953769864042,18.346665457477265,20.26050264853881,21.273527780965765,52.67730688620105,50.651256621347216,44.75691322855823,{}
125,69,528,0,17.617599999999786,18.14851812056713,147.25988324515967,20.165020133963367,32.32698648340272,38.31353825453039,44.36304429471943,44.40885023804703,114.94061476359173,82.70117038103515,73.60232348896659,76.62707650906111,80.66008053585381,34.2805342277378,36.297036241134265,2.016502013396348,16.132016107170784,20.26559442437309,20.165020133963424,21.1732711406616,50.41255033490864,50.41255033490864,42.34654228132308,{}
126,69,529,0,17.650966666666452,24.19034063824949,149.22824007265345,22.174478918395494,34.328888087676944,38.30137267722853,44.34895783679099,42.33309611693676,122.98408725782237,88.69791567358175,76.60274535445694,78.61860707431117,82.6503305140194,38.30137267722853,42.33309611693676,6.047585159562345,16.126893758833035,20.25915955391286,20.15861719854132,21.16654805846838,52.41240471620745,48.38068127649916,44.34895783679099,{}
127,69,530,0,17.684333333333118,30.24753020094522,153.37350468914866,20.165020133963367,34.33979189379491,40.330040267926734,44.4088502380468,42.39452704717832,127.0396268439698,92.78100852737438,77.63532751575929,78.64357852245746,84.6930845626465,39.32178926122867,45.37129530141783,9.074259060283566,19.156769127265303,20.26559442437309,20.165020133963424,21.1732711406616,54.44555436170134,50.41255033490864,44.36304429471943,{}
128,69,531,0,17.717699999999784,28.405287552441784,151.9058497070496,22.261722363867307,32.38068707471609,40.475858843395145,46.54723766990446,42.54781004666473,125.47516241452524,93.09447533980916,78.92792474462078,76.90413180245105,82.97551062896025,37.440169430140486,45.53534119881965,11.13086118193371,17.202240008442914,18.32622453119145,18.21413647952784,19.226032950612705,52.61861649641378,50.59482355424405,44.52344472773461,{}
129,69,532,0,17.75106666666645,26.17729716709028,153.15568868700908,22.150020679845625,30.27162051520072,40.27276487244649,44.30004135969125,42.33431973553906,120.81829461733965,90.6360919597566,77.52507237945957,76.51825325764838,82.55916798851541,37.25230750701303,41.27958399425779,7.0477338526782205,15.102286827167404,20.236813894336724,20.1363824362233,21.14320155803444,54.368232577802814,50.340956090558166,44.30004135969125,{}
130,69,533,0,17.784433333333116,18.136537986955545,153.27226033043965,22.258289963095105,32.30564691095086,38.341241000016296,42.36654172655616,44.37953522974431,116.89728234347167,84.6371772724595,75.56890827898172,76.57649372270151,82.62200638502003,35.26549053019153,37.280661417631,3.0227563311592576,13.09861076835682,20.252216774070973,20.25221677407092,21.15929431811486,54.40961396086681,48.36410129854829,44.33375952366941,{}
131,69,534,0,17.81779999999978,18.29037848914561,156.6953513797942,20.32264276571744,30.55163118888246,40.69606042385036,44.75597807631249,44.709814084578056,113.8249432584772,83.3228353394411,74.17764609486824,73.16151395658244,81.29057106286928,32.5162284251478,36.58075697829122,4.064528553143418,12.193585659430369,20.424003208793195,20.322642765717376,21.33877490400323,52.83887119086506,46.74207836114988,42.67754980800646,{}
132,69,535,0,17.851166666666447,16.265463462213802,150.57912576837575,20.43323558939206,30.56544161988215,38.63047572275809,42.745223294018366,44.77620938059942,111.8435432566195,81.32731731106935,73.19458557996245,73.19458557996245,79.29413437829271,31.51433545803945,35.58070132359285,1.0165914663883768,13.215689063048783,20.73447889786478,20.33182932776737,21.348420794155743,52.86275625219514,46.763207453864936,42.74522329401836,{}
133,69,536,0,17.884533333333113,12.132203050343946,149.75341532355165,20.2203384172401,30.397834029737027,36.39660915103218,40.4406768344802,44.48474451792822,107.1868677048956,76.83728598551227,70.77118446034035,72.79321830206425,78.85931982723628,31.3415245467221,31.3415245467221,3.033050762586072,11.121186129481998,22.607025614499683,20.220338417240043,21.23135533810205,56.616947568272224,48.52881220137618,46.55071486294151,{}
134,69,537,0,17.91789999999978,8.051187114761547,144.97726830619337,20.12796778690415,28.465245027248603,34.276694020410964,38.29607050044368,44.28152913118902,100.72031862665774,72.46068403285472,68.43509047547388,72.46068403285472,76.48627759023555,30.19195168035605,26.166358122975453,4.0255935573807164,12.076780672142377,20.526580102878217,20.12796778690409,21.13436617624928,54.34551302464098,48.30712268856979,46.29432590987949,{}
135,69,538,0,17.951266666666445,4.047585884339583,147.75074572365722,20.23792942169757,30.424279108097256,34.404480016886055,38.45206590122552,42.49965178556499,97.16314011367167,66.78516709160215,64.7613741494323,70.83275297594162,72.85654591811135,29.344997661461434,25.29741177712208,5.059482355424279,11.130861181933597,20.33886735170843,20.338867351708405,21.249825892782496,52.61861649641384,48.57103061207431,46.591212396452725,{}
136,69,539,0,17.98463333333311,4.01397287594591,144.5169602678007,20.06986437972944,32.11178300756717,34.11876944554024,40.18987210038315,42.146715197431945,98.34233546067446,66.2305524531073,64.22356601513434,74.25849820499911,72.25151176702616,31.10828978858069,25.087330474661822,5.017466094932388,13.045411846824209,20.06986437972944,20.16996407490452,21.07335759871592,50.17466094932371,48.167674511350754,48.20946859688075,{}
137,69,540,0,18.017999999999777,16.060137355853158,142.53371903319658,20.07517169481639,32.120274711706315,36.13530905066955,42.1578605591144,40.20049999056226,108.4245136805897,76.31206256830158,68.2555837623758,74.27813527082077,74.27813527082077,34.12779188118793,34.12779188118793,0.0,14.05262018637154,22.082688864298063,20.1752978605552,21.07893027955725,48.180412067559416,52.19544640652271,44.3475037702534,{}
138,69,541,0,18.051366666666443,22.19930089356228,143.30060807231746,18.27483812623668,34.36731563362968,40.362365261022205,44.444444444444585,40.362365261022205,115.03274099391332,80.7499530599266,69.62508007526321,76.68849399594217,78.70661225899323,37.33518786644549,37.33518786644561,1.0090591315255324,19.17212349898557,20.181182630511103,20.181182630511103,20.181182630511103,50.45295657627776,54.48919310238,40.56367506475238,{}
139,69,542,0,18.08473333333311,20.259159553912827,143.18295568669166,22.265920456516948,34.2696492375203,38.35438498312183,42.33309611693676,40.31723439708264,116.9199797515397,82.6503305140194,72.57102191474883,78.61860707431117,82.6503305140194,40.31723439708264,36.28551095737441,0.0,20.158617198541265,20.15861719854132,20.15861719854132,21.16654805846844,56.444128155915735,58.45998987576985,42.381065646339984,{}
140,69,543,0,18.11809999999977,16.062767429068572,142.91011774426167,22.086305214969343,30.38422234560013,36.1412267154044,42.21254328660683,42.16476450130506,110.50451453362456,80.31383714534297,72.28245343080869,74.2902993594422,84.32952900261012,37.14514967972104,31.1216118938205,3.011768892950272,15.0588444647517,22.448399923854307,20.17860184914136,22.086305214969286,60.2353778590072,54.21184007310649,44.172610429938686,{}
141,69,544,0,18.15146666666644,8.394313297611214,145.25115840557044,24.431040268643187,30.60658909920649,38.73602021626998,42.94777992181227,44.79024049251262,107.98056102625648,77.39174463577137,73.29312080592973,71.25720078354271,85.50864094025127,33.592680369384425,29.520840324610617,5.089800055967316,11.197560123128142,20.762391844530487,20.4607429995384,22.39512024625634,63.113520693994985,52.933920582060296,42.802767307730846,{}
142,69,545,0,18.184833333333103,4.046187852829689,140.12025064693145,22.25403319056352,28.61086868690532,36.63978934862635,40.66368466062903,48.59638374664097,103.3561443824332,74.88180939375378,72.83138135093498,70.80828742452013,82.9468509830092,28.32331496980805,26.300221043393208,6.069281779244534,6.069281779244534,20.631590817240788,20.631590817240845,21.24248622735604,62.71591171886064,50.57734816037152,44.554022063354815,{}
143,69,546,0,18.21819999999977,2.039489518475307,140.9610409944923,22.43438470322792,28.62559949950713,36.71081133255484,38.80393451109449,48.94774844340634,101.99486877986632,73.42162266510957,72.40187790587197,73.42162266510957,81.57958073901057,28.552853258653727,24.473874221703227,6.118468555425807,8.157958073901,22.52689802232871,20.496615991256107,22.43438470322792,61.18468555425795,53.0267274803569,42.82927988798065,{}
144,69,547,0,18.25156666666644,2.03405023637265,140.4084119092512,22.374552600099378,28.549255537146266,34.578854018335505,38.70044511113223,50.85125590931671,103.75650180762752,75.25985874578873,74.24283362760241,75.25985874578873,79.32795921853403,26.44265307284468,26.44265307284468,4.0681004727453,6.10215070911795,20.44195188265685,20.340502363726728,22.374552600099378,54.91935638206206,52.88530614568941,44.79530976098416,{}
145,69,548,0,18.284933333333104,2.025348908270076,137.7386172286741,22.278837990970715,28.35488471578094,32.468812997387154,36.512496697363616,48.65055026958205,101.28769687764196,72.9406851194809,71.89988624358716,72.91256069772226,74.93790960599233,25.316861353375884,27.34221026164585,3.03802336240517,7.08872117894532,20.354504617487137,20.354504617487137,22.278837990970715,54.68442052329169,56.70976943156177,46.62703342613924,{}
146,69,549,0,18.31829999999977,4.094817927888585,139.2238095482155,22.52149860338784,30.77930576271281,34.80595238705382,38.90077031494252,49.18045099095859,106.46526612510591,75.78179430395085,73.70672270199634,73.70672270199634,73.70672270199634,24.56890756733208,32.758543423109586,0.0,4.094817927888585,22.614371156590625,22.614371156590625,23.54520308535996,53.23263306255296,57.32745099044166,47.268106448068494,{}
147,69,550,0,18.35166666666644,6.178921462980952,146.29248116112157,24.71568585192415,35.01388829022585,37.07352877788617,41.244268623680526,49.431371703848185,115.33986730897914,80.32597901875329,77.23651828726281,76.20669804343265,80.32597901875329,28.834966827244784,37.07352877788617,0.0,6.178921462980952,22.74947275182411,22.65604536426377,23.68586560809393,53.55065267916888,57.66993365448957,47.55049310125393,{}
148,69,551,0,18.3850333333331,10.335537765398954,149.19018503213022,24.805290636957352,37.265311372640106,39.27504350851564,43.60568160251323,45.47636616775503,117.84326165291864,80.61719457011134,75.4494256874118,72.34876435779222,82.68430212319106,32.04016707273661,40.30859728505561,1.0335537765398612,9.30198398885898,20.774173803931347,22.738183083877573,23.77173686041749,55.81190393315399,57.879011486233765,43.45844759205927,{}
149,69,552,0,18.418399999999767,14.532958974404435,154.13831674718375,24.913643956122087,37.42809197602144,39.44660293052653,45.863365291505424,45.67501391955693,122.50967590217182,85.12161685008346,77.85513736288124,72.66479487202253,85.12161685008346,33.21819194149612,43.59887692321343,4.152273992686901,10.380684981717536,22.93168264575278,22.93168264575278,23.87557545795022,56.05569890127447,56.05569890127447,47.7962630194108,{}
150,69,553,0,18.45176666666644,24.724537059778868,157.68287676820037,24.724537059778868,35.08697452580325,39.20136665710207,45.51523963468031,43.31696869737318,127.80988800354156,92.73990423843104,80.3547454442812,72.11323309102158,90.65663588585574,38.11699463382581,46.35850698708521,7.211323309102113,13.392457574046944,20.603780883149057,22.66415897146396,22.66415897146396,59.75096456113215,55.63020838450234,45.3283179429277,{}
151,69,554,0,18.4851333333331,31.07751543820649,158.74777069570035,24.806946917841746,35.38554439508819,39.332029530759705,45.90030072709345,43.46134936801764,134.62515227078347,99.31388555105404,83.72344584771565,72.3535951770383,95.09329651839312,40.31128874149272,50.64751662392689,11.369850670677463,15.504341823650975,20.77556092200476,20.77556092200476,21.706078553111524,59.95012171811743,49.61389383568337,47.591567162232366,{}
152,69,555,0,18.518499999999765,40.80363565397719,160.80552883080065,24.53639055123951,30.835032878965407,38.92898737075341,45.24286870173082,38.715090216922704,134.73075743174465,103.9993292963154,83.5430894154648,71.31727145222601,95.76890737870347,44.8279991985421,50.94090818016139,14.263454290445113,18.338726944858195,18.451581714314283,20.477991649502474,21.395181435667723,57.05381716178084,42.79036287133562,44.874285219337175,{}
153,69,556,0,18.55186666666643,38.60622083521484,166.79382367019335,24.43357449378668,32.71822082900894,41.03596581303632,45.37200878497903,40.63265415044587,136.32759796802387,103.66287727909943,84.20756361271265,71.01842714325164,99.42579800055228,44.64015420432963,50.727447959465394,12.174587510271635,18.261881265407624,18.3742631339113,20.39218170278042,21.305528142975504,58.84383963297995,40.58195836757238,44.82423809543016,{}
154,69,557,0,18.585233333333097,41.042303087728776,168.8196969918176,18.377100711885703,28.70020950780972,43.05031426171454,47.07184348823563,42.66592876055425,130.6568960466409,101.97665456184636,81.17645105778746,66.97057212267458,95.38232999290022,38.55881425244911,48.70587063467247,14.205878935112764,16.235290211557526,16.36163678800058,18.71024748531327,19.27940712622444,60.88233829334058,40.5882255288937,45.06024293740221,{}
155,69,558,0,18.618599999999763,37.10785974148674,175.5181068893426,18.4141092657272,28.7580071585644,43.13701073784669,47.166638683705344,42.70346193798764,126.66588226196374,97.94624300345431,79.30642931340572,63.03844381321983,93.54091662606812,35.58621828165633,47.78720740679569,15.25123640642414,15.25123640642414,20.73769387807288,20.43640386038312,20.334981875232188,65.07194200074309,42.70346193798764,48.97312150172728,{}
156,69,559,0,18.65196666666643,31.03444193803532,181.9116238974668,18.69375932083433,31.23974368236508,45.603652924141535,48.19344498770186,43.40111184860695,124.2921573522976,93.10332581410592,77.41426387033579,59.86703072639301,88.76835590465174,30.965705548134338,49.54512887701492,14.450662589129363,10.32190184937815,19.032646596831007,21.05263157894733,20.643803698756187,66.06017183601983,43.35198776738804,49.71686294091892,{}
157,69,560,0,18.68533333333309,22.77880688986984,168.84612946852764,20.373984260835755,30.83143278171164,41.20383319258783,47.25710404240864,42.9789668819587,116.77332682854774,85.95793376391725,74.3650425520508,63.15935120859103,87.6081323215941,32.598374817337344,40.74796852167162,4.074796852167083,10.186992130417934,20.47560077280752,20.47560077280752,20.37398426083587,69.27154648684183,44.82276537383882,49.06705168473597,{}
158,69,561,0,18.71869999999976,22.35810278563716,168.05799281730404,18.329978655017747,30.63181808742893,40.68606753011482,44.94470070016517,44.71620557127429,116.0172908667979,85.40140864907967,73.88357432644341,62.75043298958212,89.06513069489074,31.37521649479106,39.472046557962926,5.060518789482444,11.1331413368614,20.64294724517909,22.358102785637136,22.266282673722685,66.79884802116806,40.48415031585944,50.96824292118987,{}
159,69,562,0,18.752066666666423,22.518867455552176,163.24548147221495,18.23889253248013,26.49199044634681,40.73363731518394,44.72135954999568,44.493999868979806,111.67178800079326,85.19158697237779,73.51642887410702,60.42446208830705,86.60839565990676,29.205156676015008,37.2617516211227,5.035371840692278,9.06366931324601,18.569533817705185,22.246999934489875,22.15563609904592,66.46690829713776,40.28297472553805,44.7213595499959,{}
160,69,563,0,18.78543333333309,18.31474185982524,159.61296954201205,16.306116991710276,28.60282134267625,38.64028383033601,42.90423201401435,44.67903522433068,107.87852777604094,79.29226237552267,69.77710881703433,60.67574679742109,84.94604551638952,28.31534850546313,34.3829231852053,2.0225248932473505,10.112624466236866,20.62578779479104,20.32612361775692,21.23651137909735,66.74332147716325,38.42797297170006,44.90734041664022,{}
161,69,564,0,18.81879999999976,16.29216919444156,157.80324996720384,18.29907594091755,28.57835528778381,38.8707656634956,42.8675329316757,44.640818024871656,107.78625149494724,79.22443798783067,70.72782086702614,60.62384645745101,86.89417992234644,29.30152578776801,33.34311555159809,1.0103974409574903,9.09357696861764,18.630808252885643,20.3087372190438,21.218346260107865,68.70702598511116,40.41589763830069,44.86892793129313,{}
162,69,565,0,18.852166666666424,14.276612204965046,153.68426563309822,18.28298432760818,28.55322440992997,38.57328206378055,43.16167207495253,44.60156233874919,105.68550871142352,77.1465641275612,69.6561161872595,58.55151795450797,84.79875014101162,27.256741116753687,33.31379469825458,1.0095089302501492,7.066562511750931,14.69867189286199,14.698671892862052,14.133125023501975,66.62758939650911,38.36133934950527,46.83077000336709,{}
163,69,566,0,18.88553333333309,10.431036784121888,155.7148559561464,20.558976485637626,31.293110352365595,37.33042374135514,43.39573613238745,45.19087120849452,107.33562973258574,76.13172840607592,70.5764643757243,59.32514396800013,85.91917402262095,27.61687736441388,33.753961223172496,1.0228473097931785,5.11423654896555,11.016402671540083,14.892881630497527,13.297015027310408,69.55361706593123,42.95958701131048,47.22852773515106,{}
164,69,567,0,18.91889999999976,10.368846939036462,150.43764067183255,20.43640386038312,29.11526318145428,36.82821853145416,41.12495574918019,45.15098708975788,104.97657429936206,75.92331750425778,70.15568746955103,58.9714474381733,83.37342568845202,26.435476437801867,32.535971000371546,0.0,6.100494562569679,12.369286580495574,12.369286580495633,12.200989125139358,69.13893837578951,40.66996375046443,51.20217605796238,{}
165,69,568,0,18.95226666666642,6.385834052177588,149.39303575270824,18.28624585977116,30.89054403991068,38.58016321610401,43.16937175784668,48.84223866392854,104.24764073316004,73.3954330404267,69.66854225836619,60.58134109423145,84.81387753192405,24.232536437692488,30.290670547115724,4.038756072948672,6.058134109423122,14.701294013532962,14.701294013532962,15.145335273557862,66.63947520365457,36.348804656538846,48.842238663928526,{}
166,69,569,0,18.985633333333087,7.301750576369154,147.8214389475494,20.3524175646383,30.645947879723,36.955359736887225,40.95594691966013,46.97280070257898,104.54515820112807,73.91071947377459,69.86737273686856,60.75423716249452,85.0559320274923,26.32683610374761,30.37711858124726,4.05028247749965,4.05028247749965,16.699742468319386,14.743250759412344,15.18855929062363,68.8548021174937,36.45254229749668,49.27381298251639,{}
167,69,570,0,19.01899999999976,10.947893815439336,148.39309251522798,18.40935208127618,29.10774141239689,35.09455254921188,41.114331341710006,46.93482274751339,104.9494541753435,75.90370313028573,70.1375631312643,60.98918533153426,85.3848594641479,26.428646976998262,30.49459266576708,4.065945688769034,6.098918533153551,18.743083519271845,20.431124227180344,20.329728443844715,69.1210767090721,36.59351119892051,51.47076134689497,{}
168,69,571,0,19.05236666666642,8.391379077901046,149.2794470743916,18.429595622867268,31.13270157207911,37.13906763541039,41.51026876277208,46.98643385431223,104.76876316495488,73.71838249146911,69.1970845655685,59.02104271769076,87.51395989174841,26.45770880448208,30.52812554363311,4.070416739151142,6.105625108726599,20.755134381386164,18.429595622867268,19.33447951096764,67.16187619599299,34.59854228278425,47.51241778353047,{}
169,69,572,0,19.085733333333085,9.05670694776548,148.16783638309002,20.3524175646383,28.995609884281723,34.66483422443195,39.32113023433714,46.75401609123838,104.54515820112807,75.61129987917072,70.87994335624353,60.75423716249452,87.08107326624213,27.33940672312258,29.36454796187229,5.062853096874619,7.087994335624444,21.143095256382896,20.251412387498192,20.25141238749813,68.8548021174937,34.42740105874685,46.97280070257908,{}
170,69,573,0,19.11909999999975,9.066356401112037,148.32570155780476,20.674473527476405,29.02650320858261,36.994733763423085,41.34894705495305,46.67192611610992,104.65654566596442,75.69185981280548,70.95546227394414,60.818967663380704,87.17385365084579,27.368535448521243,29.39583437063413,3.0409483831689386,5.068247305281716,20.67447352747646,20.374102014064988,22.300288143239584,68.92816335183153,36.49138059802846,49.03381932876105,{}
171,69,574,0,19.152466666666417,9.13049276530532,147.01227531091837,20.518230566823448,30.8956232122288,36.975677538777006,41.28961875468987,47.13492532463442,107.12290081303064,76.22731203557765,71.45740871952466,63.29084772300757,87.79053071255896,28.58296348780993,30.624603736939093,4.08328049825866,6.124920747387932,20.82072694009325,20.518230566823505,21.437222615857426,69.41576847039545,40.83280498258557,49.16920831151864,{}
172,69,575,0,19.185833333333083,9.250440490446984,148.6128681369499,18.730714401643496,29.615859855655703,35.707179587343354,42.18849967419888,49.81514657964717,106.78150127652208,77.228713921254,72.39614815459583,64.12230265121354,86.87537778551507,25.85576719807,29.992689949761143,3.102692063768359,5.171153439614045,23.126101226117488,20.78777955434088,21.718844446378853,70.32768677875032,41.36922751691196,53.93887350592563,{}
173,69,576,0,19.21919999999975,7.331881983678121,146.4259903359142,20.43640386038312,31.10654081710934,34.80788214539106,39.11511862572165,46.81464392356217,104.68072615553248,73.65643706290858,70.15568746955103,61.00494562569656,85.40692387597528,26.435476437801867,30.50247281284828,4.066996375046415,6.100494562569679,21.23034436305644,22.46072160898996,22.368480062755395,69.13893837578945,40.669963750464376,51.20217605796239,{}
174,69,577,0,19.25256666666641,9.220776377681013,150.4993415624074,18.67064915126206,29.52088835593871,35.29281519169992,42.05321050466639,47.60100217686485,104.4026451787649,74.9383110186345,70.10216147178483,61.85484835745717,86.59678770044002,26.803767621564702,28.86559590014668,6.185484835745683,6.185484835745683,23.051940944202567,22.77363769238287,22.680111064400933,72.16398975036662,41.236565571638096,51.91550952392006,{}
175,69,578,0,19.28593333333308,6.392272577811666,143.2354103104765,20.614459647879347,30.92168947181906,36.60936598271847,38.8826761197657,44.654496492529205,102.35623346430164,71.4677800734735,67.7173715812446,60.64242231156231,82.87797715913518,27.28909004020295,29.310504117255164,5.053535192630079,7.074949269682179,22.6000964348172,20.314960053156245,21.224847809046764,66.70666454271861,38.40686746398956,48.8914839156987,{}
176,69,579,0,19.319299999999743,7.302499339472673,140.93285268352884,18.34031440349156,32.970291522234824,36.68062880698314,40.96014677579138,44.970043725948926,102.89490072299763,69.92588601279954,65.82383951877705,62.78581615637199,81.01395633080256,27.34221026164585,29.36755916991592,7.088721178945207,7.088721178945207,23.092530524609003,22.37070987760894,22.278837990970715,66.83651397291214,40.50697816540128,46.75881051441511,{}
177,69,580,0,19.35266666666641,5.728551789226004,140.93285268352884,20.25348908270064,32.65776985741673,36.68062880698312,38.694236561588994,45.28817837046841,102.55547740316756,69.9258860127995,66.83651397291203,62.78581615637199,81.01395633080256,27.34221026164596,29.36755916991592,7.08872117894532,7.08872117894532,22.644089185234204,22.37070987760894,22.278837990970715,68.86186288118222,42.53232707367136,48.98665478612504,{}
178,69,581,0,19.38603333333308,7.2080397847189985,139.10985292744647,18.10307810232109,32.235333886309434,36.48107401862886,40.43031759714652,42.40838713504112,99.25535813143728,67.05354762045623,62.97324205698101,61.97366678623519,79.96602165965828,28.987682851626005,26.9885323101347,8.996177436711491,8.996177436711491,22.35118254015206,21.990655956406044,21.990655956406044,65.97196786921808,43.98131191281203,48.35300082946418,{}
179,69,582,0,19.419399999999744,6.364055497828817,140.03814548946158,18.223881570934736,34.4482979219258,34.448297921925914,40.45056954023767,42.69138211717961,101.60588805045045,67.1701864302179,63.39346816589602,62.387222639453285,80.49964211542363,29.18112026684105,29.18112026684116,9.056209737985114,9.056209737985114,24.4830103381058,22.22869022298069,23.143647108184325,66.41220474522459,44.27480316348306,48.46720270459033,{}
180,69,583,0,19.45276666666641,6.321869096671936,134.89452526694726,20.09121428988568,34.510689075829625,34.219945149734784,38.193717467066925,42.408387135041,103.20342385458436,68.70216889000913,64.97239259847242,65.97196786921802,81.9651722011497,31.986408663863244,27.988107580880524,9.9957527074572,11.994903248948615,22.351182540152102,22.08133945847856,22.99023122715176,67.97111841070955,45.98046245430351,46.15397424991478,{}
181,69,584,0,19.48613333333308,4.479982796899113,118.63075654058208,22.12948257407944,34.29455361170327,32.118696069895165,38.119362537968215,42.50084854971801,103.13694927653842,68.85195765011255,66.11580407451368,76.13335014640961,86.15089621830566,39.06842968039439,21.036846750981567,17.02982832222324,19.033337536602403,22.399913984495484,22.129482574079493,22.03860135817115,66.11580407451362,44.07720271634241,46.25460202758819,{}
182,69,585,0,19.51949999999974,8.326108942436191,100.60475713261434,22.577332809133924,32.87309277147063,28.34332139810793,32.56149244261895,42.83747710110625,106.5688374569857,73.7003823286413,68.6588532401289,80.77512145897526,98.94952378724464,47.45538385714792,15.145335273557976,21.20346938298087,25.242225455929656,18.617745583356346,20.294498098590854,19.184091346506648,68.65885324012896,40.38756072948763,48.842238663928526,{}
183,69,586,0,19.552866666666407,7.338048132758186,119.45476907871344,24.50715406979356,35.133143697396655,28.782192785089823,33.13079192400086,41.51026876277226,107.77000043464484,72.64297033485148,68.17948038078083,65.12666782641742,93.61958500047508,38.66895902193528,26.457708804482195,12.211250217453198,12.211250217453198,20.75513438138606,22.75432131373718,21.36968788054321,69.19708456556856,40.70416739151091,45.50864262747445,{}
184,69,587,0,19.58623333333308,6.406769124181855,117.99592134944812,24.3962499957116,34.67950453639271,27.030188546662647,33.41361974715531,42.930134036764535,107.68328606374288,73.21678628388699,67.87094263211003,70.90994006339855,103.32591266380922,46.59796061309044,18.23398458773101,20.259982875256696,20.259982875256696,20.66120960519797,22.65134946602778,20.259982875256696,64.83194520082151,34.44197088793641,42.97791383345203,{}
185,69,588,0,19.61959999999974,6.617946726636737,132.52427992453747,25.20039034837989,36.1269583901374,32.01335536479238,35.08136044158623,46.325627086456855,113.72474987556744,77.65872159202729,72.20085855990538,66.96891228744852,102.54614694015557,40.809180925164014,26.15973136228456,15.695838817370827,13.603060308387969,21.34223690986149,23.397975039680603,23.02056359881044,66.96891228744857,33.48445614372429,47.215235261714064,{}
186,69,589,0,19.652966666666405,2.915091089707123,120.63335879829935,24.821106229246343,35.28344176776117,31.531531189762,34.553360568998805,45.62839286032403,107.5427635846122,72.49732494311714,69.05290268983197,70.08354302848613,105.12531454272914,44.31753456213096,17.520885757121505,21.6434471117384,17.520885757121505,22.76758923862371,22.76758923862371,20.612806773084174,63.89970099656085,30.919210159626232,45.76785847194517,{}
187,69,590,0,19.68633333333307,2.0560186481736764,128.23360453318006,22.61620512991078,33.15230455376952,31.11320787214187,35.49238480474552,44.90412507934375,100.40867614756564,67.3483422765373,65.79259674155867,65.79259674155867,92.52083916781692,35.980326343039906,19.53217715765016,17.47615850947659,13.364121213129124,22.70946822714792,22.70946822714792,21.588195805823887,63.73657809338499,34.95231701895307,47.99823862906563,{}
188,69,591,0,19.719699999999737,2.872128745482079,113.53085711207048,20.410309608052472,34.58500993119138,34.763437649872074,39.065174428966806,45.819231099441424,102.83664894511624,68.51095743693521,66.00430565206534,85.29787191959201,105.60688904330448,50.77254280928105,6.09270513711374,30.463525685568584,28.432623973197337,20.4103096080524,24.455295049749527,22.33991883608365,60.92705137113717,36.55623082268227,49.12095919979362,{}
189,69,592,0,19.753066666666403,2.0346290557658904,123.15809841700272,20.447768945565382,32.80740773952312,30.587181615376963,35.12314319050699,45.49568877688648,100.70900017718496,67.90907855027358,66.12544431239007,69.1773878960388,85.45442034216558,32.554064892253564,22.38091961342434,14.242403390361003,14.242403390361003,22.74784438844326,22.38091961342428,21.3636050855414,61.03887167297541,44.76183922684862,49.000356415526525,"{'neutral': (['m1', 'm3', 'm12', 'e1', 'e2'], 2.9196320448671544, 120)}"
190,69,593,0,19.78643333333307,2.011905467611541,133.16625840677915,24.142865611338262,34.26151553967642,32.25329824879194,38.43739998843424,44.444444444444485,102.9222880087382,68.67055123089514,68.40478589879183,66.39288043118029,76.45240776923788,27.160723812755464,31.18453474797866,5.029763669028739,5.029763669028739,20.11905467611524,22.130960143726725,21.12500740992101,56.33335309312264,48.28573122267653,48.32762774355021,"{'neutral': (['m1', 'm3', 'm12', 'e1', 'e2'], 2.9196320448671544, 120)}"
191,69,594,0,19.81979999999973,2.008427975321865,134.57966178041644,22.092707728541768,34.143275580473755,34.143275580473755,36.20745024049882,46.23748429564126,102.50855836468388,68.40459195978677,68.28655116094751,70.29497913626949,72.30340711159147,25.10534969152468,31.130633617490844,5.0210699383048905,5.0210699383048905,22.18381206444979,24.101135703863804,23.09692171620281,54.2275553336936,56.23598330901558,50.250851887973326,"{'neutral': (['m1', 'm3', 'm12', 'e1', 'e2'], 2.9196320448671544, 120)}"
192,69,595,0,19.8531666666664,4.019897487640151,138.7010274048328,22.20060950153426,34.22819373421975,34.169128644940656,36.17907738876079,44.21887236404086,104.51733467864187,70.37691372966619,68.33825728988131,70.34820603370133,68.3382572898812,25.1243592977504,35.17410301685061,1.004974371910066,5.024871859550103,24.1193849258404,24.2029878972337,24.1193849258404,48.2387698516809,56.27856482696103,48.28062562515344,"{'neutral': (['m1', 'm3', 'm12', 'e1', 'e2'], 2.9196320448671544, 120)}"
193,69,596,0,19.886533333333063,8.0392875245916,138.6777097992058,22.10804069262701,36.23257923514146,34.22603334076083,40.19643762295823,44.26173558573306,110.54020346313509,74.39056439965394,70.34376584017684,72.35358772132474,72.35358772132474,28.137506336070714,38.18661574181033,0.0,8.0392875245916,24.117862573774914,24.20146026836885,23.112951633200964,48.23572514754983,58.284834553289386,50.28572740059565,"{'neutral': (['m1', 'm3', 'm12', 'e1', 'e2'], 2.9196320448671544, 120)}"
194,69,597,0,19.91989999999973,12.12105753264666,139.4067998151991,24.32614344572459,40.40352510882235,36.419245372338914,40.45399798934941,44.443877619704494,121.22740895967436,80.83229847641327,74.74652145132109,78.78687396220334,80.80705021764447,35.353084470219414,41.41361323654292,1.0100881277205644,13.131145660367224,24.242115065293376,24.242115065293376,24.242115065293376,50.504406386027824,58.58511140779228,50.54479376264276,"{'neutral': (['m1', 'm3', 'm12', 'e1', 'e2'], 2.9196320448671544, 120)}"
195,69,598,0,19.9532666666664,22.33042271192471,138.28123493666274,26.468462809594623,44.6608454238492,34.57030873416585,42.82370755982435,42.63080699549244,136.02772339680502,91.37428247459071,80.18651792009291,83.23157556262811,91.35172927605528,44.66084542384931,48.72092228056272,2.030038428356648,18.27034585521119,22.42250731996408,24.360461140281416,24.360461140281416,54.81103756563317,58.87111442234675,48.72092228056295,"{'neutral': (['m1', 'm3', 'm12', 'e1', 'e2'], 2.9196320448671544, 120)}"
196,69,599,0,19.986633333333064,22.39829045146457,138.26578696285486,28.38984310540502,42.584764658107474,34.47338091370602,40.75919887320809,42.633019364419376,135.865677718724,93.28091306061653,82.1277604120645,83.14168338011473,93.28091306061653,45.62653356225815,47.65437949835837,3.0417689041504445,17.236690456853125,22.30630529710396,24.334151233204352,24.334151233204352,56.77968621081004,58.807532146910376,52.72399433860937,"{'neutral': (['m1', 'm3', 'm12', 'e1', 'e2'], 2.9196320448671544, 120)}"
197,69,600,0,20.01999999999973,18.426495225654804,134.6859951129795,22.383525867779213,34.65251911219289,28.56070515656761,34.831295117867874,49.00606249885608,124.19352426420988,89.55722396303794,80.37720652520738,79.35977353121746,89.53410347111708,35.610154789648846,39.67988676560867,3.052298981969898,13.226628921869631,26.453257843739152,26.453257843739152,26.453257843739152,56.97624766343813,54.94138167545822,46.80191772353851,"{'neutral': (['m1', 'm3', 'm12', 'e1', 'e2'], 2.9196320448671544, 120)}"
198,69,601,0,20.053366666666395,6.043289018351288,133.19630789034085,22.15872640062105,30.2835183043466,26.264949535846743,30.483852473227262,50.40101431049126,108.85378526834728,78.58857901649846,75.54111272939019,74.53389789299831,82.59161658413325,28.202015418972223,30.2164450917561,2.014429672783649,6.043289018351175,24.25694542715096,26.18758574618857,25.180370909796693,54.38960116516091,52.37517149237715,52.37517149237715,"{'neutral': (['m1', 'm3', 'm12', 'e1', 'e2'], 2.9196320448671544, 120)}"
199,69,602,0,20.08673333333306,2.0625682330611426,138.330532951754,20.62568233061154,28.875955262856,31.0071995482252,35.12427134688444,53.66642417521701,105.21119920007467,76.34289207886468,75.28374050673176,76.31502462326239,82.50272932244582,25.78210291326434,25.78210291326434,5.1564205826528,5.1564205826528,24.83661045361825,24.75081879673371,24.75081879673371,57.75191052571205,53.62677405958976,49.50163759346742,"{'neutral': (['m1', 'm3', 'm12', 'e1', 'e2'], 2.9196320448671544, 120)}"
200,69,603,0,20.120099999999727,2.0425983159342422,138.95674891790011,22.468581475277347,30.638974739014543,30.706985865405645,34.78419591243584,51.10579353694915,106.23475098147922,75.60373533068952,74.55483853160183,77.61873600550337,81.70393263737196,28.5963764230803,26.55377810714583,4.085196631868712,6.127794947802954,26.63222370820348,24.51117979121153,24.51117979121159,55.15015453022608,53.107556214291776,53.10755621429166,"{'neutral': (['m1', 'm3', 'm12', 'e1', 'e2'], 2.9196320448671544, 120)}"
201,69,604,0,20.1534666666664,6.462212631667613,135.1205239212664,24.5223727684562,32.696497024608334,28.60943489653232,32.76029512824801,49.08730063865996,112.46849419346763,79.80243915304068,76.6324149014257,75.6106493694067,83.78477362555884,30.652965960570327,32.696497024608334,4.087062128076127,8.17412425615214,24.52237276845625,26.64438525556603,24.522372768456307,55.17533872902652,51.08827660095051,53.17109181650338,"{'neutral': (['m1', 'm3', 'm12', 'e1', 'e2'], 2.9196320448671544, 120)}"
202,69,605,0,20.18683333333306,8.101395633080188,131.78782090837126,22.278837990970715,34.43093144059105,30.380233624051016,34.490449084738,44.603682887312246,109.38759266970388,74.96527418956133,70.88721178945218,74.93790960599233,81.01395633080256,33.41825698645596,31.392908078186,3.038023362405056,11.139418995485244,22.278837990970715,24.30418689924079,23.29151244510569,52.65907161502167,48.60837379848152,50.63372270675154,"{'neutral': (['m1', 'm3', 'm12', 'e1', 'e2'], 2.9196320448671544, 120)}"
203,69,606,0,20.220199999999725,4.050697816540037,139.9837007744196,24.30418689924079,34.49044908473822,32.40558253232098,36.512496697363616,42.72478202522139,105.49326820809942,71.00285168979885,68.86186288118222,68.8618628811821,76.9632585142624,30.380233624050906,32.40558253232109,4.050697816540151,8.101395633080188,22.278837990970715,24.30418689924079,24.304186899240733,52.65907161502167,48.60837379848152,50.63372270675154,"{'neutral': (['m1', 'm3', 'm12', 'e1', 'e2'], 2.9196320448671544, 120)}"
204,69,607,0,20.25356666666639,4.052100529707786,142.05487843017747,22.28655291339271,32.4800565987596,34.50239275698446,38.54823527230086,44.75691322855812,103.50717827095303,71.02743921508873,68.88570900503214,70.91175926988603,79.0159603293016,30.390753972808284,28.36470370795439,6.07815079456168,8.104201059415573,24.39687588562522,22.28655291339271,23.299578045819658,54.70335715105495,50.651256621347216,48.66739743285295,"{'neutral': (['m1', 'm3', 'm12', 'e1', 'e2'], 2.9196320448671544, 120)}"
205,69,608,0,20.286933333333057,4.072684190015025,138.53114192815485,22.39976304508218,32.64504718743957,32.58147352011952,36.710679189676064,44.845782711769424,103.933272719462,71.3010579921836,69.23563123025428,71.2719733252618,75.34465751527671,28.50878933010472,30.54513142511212,4.072684190015025,8.145368380029936,22.49213359385302,22.39976304508224,22.39976304508229,50.9085523751869,50.9085523751869,48.91461567668677,"{'neutral': (['m1', 'm3', 'm12', 'e1', 'e2'], 2.9196320448671544, 120)}"
206,69,609,0,20.32029999999972,4.01397287594591,140.50338554418585,22.16788976401,32.111783007567055,34.11876944554024,38.18552122885149,44.19929142724524,102.35630833662026,70.2445253290532,68.23753889108025,72.25151176702605,74.258498204999,29.101303350607736,29.101303350607736,3.010479656959319,9.031438970878185,22.07685081770245,22.07685081770245,21.07335759871597,52.18164738729661,54.18863382526956,48.1676745113507,"{'neutral': (['m1', 'm3', 'm12', 'e1', 'e2'], 2.9196320448671544, 120)}"
207,69,610,0,20.35366666666639,10.09470352502467,141.38352160304214,22.20834775505432,32.30305128007899,34.32199198508397,38.412966670877694,42.39775480510377,107.00385736526177,74.70080608518276,69.65345432267043,70.6629246751728,74.70080608518276,30.28411057507401,34.32199198508397,0.0,10.09470352502467,22.20834775505432,22.20834775505432,22.20834775505432,52.49245833012839,54.511399035133365,46.43563621511362,"{'neutral': (['m1', 'm3', 'm12', 'e1', 'e2'], 2.9196320448671544, 120)}"
208,69,611,0,20.38703333333305,10.03998859056344,142.58197811378048,24.095972617352345,32.12796348980305,32.12796348980305,38.20476214573742,44.17594979847911,110.43987449619794,78.3119110063949,73.29191671111323,76.30391328828216,78.3119110063949,33.13196234885936,33.131962348859474,1.0039988590563098,11.043987449619747,22.08797489923961,20.07997718112688,21.083976040183245,52.20794067092993,54.215938389042606,50.24008685603594,"{'neutral': (['m1', 'm3', 'm12', 'e1', 'e2'], 2.9196320448671544, 120)}"
209,69,612,0,20.42039999999972,12.04798630867606,146.59758618609965,24.17949443665313,34.19496896363962,34.13596120791567,40.21012296939976,42.21573447765691,112.46579933633996,78.3119110063949,72.28791785205692,78.3119110063949,80.31990872450763,37.14795778508483,33.13196234885936,3.011996577169043,13.051985167732482,20.07997718112693,22.08797489923961,22.08797489923961,52.20794067092993,52.20794067092993,48.23376037943467,"{'neutral': (['m1', 'm3', 'm12', 'e1', 'e2'], 2.9196320448671544, 120)}"
210,69,613,0,20.453766666666382,14.191537200401108,142.62318373654062,22.167889764009885,36.12575588351308,34.11876944554001,40.18987210038292,44.19929142724524,116.42251372405468,80.30454093072163,73.25500498601252,76.26548464297196,82.28644395689082,35.1222626645266,37.12924910249956,1.0034932189864776,13.045411846824209,20.06986437972944,22.0768508177024,22.0768508177024,54.18863382526962,52.18164738729666,50.21478463502349,"{'neutral': (['m1', 'm3', 'm12', 'e1', 'e2'], 2.9196320448671544, 120)}"
211,69,614,0,20.48713333333305,11.9747300460333,143.91834396937395,21.95367175106093,35.92419013809979,33.987050763594674,40.11484918637797,43.95267892308064,113.77744100569488,77.86132812498472,71.84838027619946,73.84416861720501,81.82732198122721,33.92840179709424,35.92419013809979,1.99578834100555,11.9747300460333,19.957883410055445,21.953671751060995,21.953671751060995,55.88207354815518,49.894708525138526,45.90313184312754,"{'neutral': (['m1', 'm3', 'm12', 'e1', 'e2'], 2.9196320448671544, 120)}"
212,69,615,0,20.52049999999972,10.227485438059496,142.76271170426708,22.06352407923692,34.15711601265885,36.159621538692456,40.31557686544325,42.31186821214245,108.60859081811664,74.45721788008898,69.1992346121524,68.19634715400525,78.22522173547668,31.0895112025612,35.10106103514977,3.0086623744414283,9.025987123324285,20.157788432721624,20.05774916294274,20.05774916294274,58.16747257253394,52.15014782365114,52.188706163723616,"{'neutral': (['m1', 'm3', 'm12', 'e1', 'e2'], 2.9196320448671544, 120)}"
213,69,616,0,20.553866666666384,10.227485438059496,140.91907096353953,20.157788432721624,34.15711601265885,34.157116012659074,38.32027596997293,40.31557686544325,104.7813437472795,70.65909758417963,65.18768477956394,62.17902240512251,74.21367190288822,28.080848828119883,36.10394849329691,0.0,8.023099665177142,22.15450806968883,24.15272835832667,23.06641153738412,56.16169765623971,48.13859799106263,50.1844723723076,"{'neutral': (['m1', 'm3', 'm12', 'e1', 'e2'], 2.9196320448671544, 120)}"
214,69,617,0,20.58723333333305,7.190906487320281,138.13280285422044,19.943986197769163,35.9545324366013,34.1386053521296,38.10293213018306,40.33421592789836,102.41581605638824,66.56632183010274,62.82355652297281,61.82635721308429,73.79274893174568,27.92158067687683,33.904776536207464,5.983195859330749,7.977594479107665,21.938384817546023,23.932783437323,22.93558412743453,57.83755997353046,51.85436411419971,49.89983752438078,{}
215,69,618,0,20.620599999999715,7.302499339472769,138.4515240424542,20.25348908270064,36.51249669736361,34.66838895402572,38.95836410946133,40.9601467757914,104.00516686207692,67.59933842174088,63.798490610506974,62.78581615637199,76.9632585142624,29.36755916991592,33.41825698645607,5.063372270675131,9.114070087215282,22.278837990970715,22.278837990970715,22.278837990970715,58.7351183398319,52.65907161502167,52.81463789667511,{}
216,69,619,0,20.65396666666638,10.173145278829235,136.19511505232427,19.95117934283257,35.96750006328028,33.97563414849866,38.37685971426672,38.73818310827701,104.4344668510084,68.5635855988887,62.84621492992255,61.84865596278087,73.81936356848041,29.926769014248865,35.91212281709852,3.990235868566515,9.975589671416287,22.0367978560234,21.94629727711577,21.94629727711577,57.85842009421435,51.87306629136458,49.91783476757952,{}
217,69,620,0,20.687333333333047,10.227485438059384,134.9247082343696,20.05774916294274,36.15962153869246,34.333336181425146,38.58185085618703,42.54891134536685,108.77515431674004,72.65225746983992,67.19345969585822,66.19057223771108,78.22522173547668,30.08662374441417,36.1039484932968,4.011549832588685,10.028874581471428,20.157788432721624,22.06352407923697,21.060636621089884,60.173247488828224,54.15592273994537,50.14437290735691,{}
218,69,621,0,20.72069999999972,14.172995485588132,136.82630688729208,20.04364243517125,34.133093120901094,34.309189353031705,38.5547160235335,42.51898645676419,110.69463339794078,76.58665020881507,69.15056640134094,68.14838427958239,80.17456974068523,32.06982789627409,36.07855638330841,2.0043642435171023,10.021821217585623,22.13892667958817,24.05237092220557,23.050188800447017,60.13092730551392,50.10910608792824,50.14917735069975,{}
219,69,622,0,20.75406666666638,8.291419087314706,137.68867092043453,24.13157412936061,38.26120922591571,34.42216773010875,41.01578912644011,46.42672091056791,116.91298700753865,78.65930805272666,74.40568689886163,68.37279336652159,84.46050945276193,30.16446766170077,40.21929021560095,2.0109645107800134,6.032893532340154,22.211829014317026,24.13157412936056,23.12609187397049,62.33989983418144,52.2850772802812,50.434733347317255,{}
220,69,623,0,20.787433333333045,2.8465245027248622,137.8141244189898,22.14076456559451,30.45914230174886,30.45914230174888,34.74625965405957,52.37140957193626,106.98161624440826,76.59214100088727,75.47987920089031,66.42229369678353,82.52466792630673,22.14076456559451,32.20474845904653,2.012796778690472,0.0,22.232067074867096,22.14076456559451,22.14076456559451,62.3967001394027,50.319919467260206,48.68305927424125,{}
221,69,624,0,20.82079999999971,2.022938687920714,144.32501501676262,22.34408812371881,26.37589351973985,30.411436850788235,34.62713262717902,54.61934457385803,103.34821353354376,76.97806696718746,76.87167014098532,68.77991538930269,82.94048620474734,21.24085622316693,27.30967228692907,1.0114693439602434,1.0114693439602434,22.34408812371888,24.275264255048057,22.252325567127343,62.71109932554072,50.57346719801672,46.92171291711722,{}
222,69,625,0,20.854166666666377,2.0237929421697345,144.5985540747977,22.35352367030065,30.625544450111224,30.625544450111114,34.93608286696266,56.66620238075336,111.47407190016357,80.9770111470818,79.93982121570559,68.808960033772,84.99930357112999,20.23792942169757,34.404480016886055,0.0,0.0,18.32622453119148,20.23792942169757,20.23792942169763,60.71378826509283,48.57103061207425,48.73938824205905,{}
223,69,626,0,20.88753333333304,6.135719910779017,148.16348504491123,22.59041383829919,32.97850359471154,32.978503594711405,39.34097632622561,51.13099925649135,112.65541189869818,79.79057555696926,76.69649888473703,65.44767904830894,81.8095988103862,22.497639672856167,38.85955943493343,2.045239970259672,0.0,16.361919762077207,16.361919762077207,16.361919762077264,61.35719910778965,51.13099925649135,47.43898730305976,{}
224,69,627,0,20.92089999999971,6.222713912870631,156.6839327814704,22.816617680525383,39.62826079274869,37.56604739032597,44.00123205174653,49.78171130296437,118.3043222371772,78.82104289636038,75.70968593992507,64.30137709966243,82.96951883827398,23.853736666003783,44.596116375572365,1.0371189854784006,1.0371189854784006,14.66707735058213,16.723041153161954,15.55678478217635,64.30137709966232,49.78171130296437,52.02162365536204,{}
225,69,628,0,20.95426666666637,10.463380311934271,155.0069677109724,20.52037707257523,39.20412535030548,41.2454474555766,45.88495805820645,47.19686726692317,117.12804025526056,78.00442869895092,72.8473386076422,61.5611312177258,80.02947058304358,23.598433633461468,46.17084841329449,3.0780565608863526,3.078056560886239,11.050561244036276,12.312226243545126,11.2862073899164,61.56113121772586,47.19686726692317,47.374969285685154,"{'neutral': (['m1', 'm3', 'm12', 'e1', 'e2'], 2.0028154546977395, 132)}"
226,69,629,0,20.98763333333304,12.23221957593238,151.90437772558644,20.109645107800475,40.26953294626536,38.68167469924526,44.9665334644381,46.29587972721681,118.80018577436132,78.53067459289828,72.39472238808173,62.33989983418155,80.4385804312019,25.137056384750625,47.25766600333111,3.01644676617002,3.0164467661701337,12.232219575932325,14.07675157546032,12.06578706468025,62.33989983418149,42.23025472638102,50.63479257519556,"{'neutral': (['m1', 'm3', 'm12', 'e1', 'e2'], 2.0028154546977395, 132)}"
227,69,630,0,21.020999999999702,16.1877713955157,153.91157339496712,20.17860184914136,36.19695724459988,38.62168757392974,42.92284344985304,46.22408457459294,118.7348479602222,82.54176222731375,74.2902993594422,62.24322378764077,82.32168307397649,26.10199707223637,46.18045635857232,4.015691857267257,4.015691857267029,14.197614717145983,16.062767429068572,15.058844464751758,64.25106971627434,44.17261042993863,48.563314186547125,"{'neutral': (['m1', 'm3', 'm12', 'e1', 'e2'], 2.0028154546977395, 132)}"
228,69,631,0,21.05436666666637,10.283489934581253,152.59545511533662,22.18434131872732,38.53011325356244,40.53634017994597,43.113368224960624,44.41449440251071,115.23792936807496,76.74288723236553,71.59491971043826,60.5027490510746,80.67033206809936,26.21785792213234,44.36868263745464,2.0167583017024526,4.033516603405019,16.25962524434632,18.15082471532236,16.134066413619905,64.53626565447951,44.36868263745464,53.0526278412318,"{'neutral': (['m1', 'm3', 'm12', 'e1', 'e2'], 2.0028154546977395, 132)}"
229,69,632,0,21.08773333333304,10.35240552154137,153.3629611625766,22.425106645881115,38.6285927529195,38.78832572689625,43.40229572875111,44.66602272589353,115.88577825875826,77.25718550583878,72.07471848951002,62.9384865683046,81.21095041071555,27.408695763616493,43.65088584575972,1.0151368801340368,5.075684400669729,20.704811043082785,18.38491083508022,17.25732696227709,64.9687603285725,44.66602272589358,51.12098705419227,"{'neutral': (['m1', 'm3', 'm12', 'e1', 'e2'], 2.0028154546977395, 132)}"
230,69,633,0,21.121099999999704,12.21987159087879,149.7566024581917,20.08934514541977,38.38064000973756,36.659614772636445,42.61593654576995,46.205493834465415,116.67396334135914,78.37419740589884,72.32164252351117,62.27696995080123,80.35738058167897,25.11168143177474,45.2010265771944,1.0044672572709032,3.013401771813051,20.18954200212368,20.08934514541977,19.08487788814876,62.27696995080117,44.19655931992338,48.87948636351491,"{'neutral': (['m1', 'm3', 'm12', 'e1', 'e2'], 2.0028154546977395, 132)}"
231,69,634,0,21.15446666666637,8.33705910800153,148.72605298597617,22.334093770811787,36.45273348529667,36.62059039831701,42.893815238151895,46.55071486294152,113.30608761766612,76.86388708929881,72.79321830206425,60.66101525172019,78.85931982723628,23.25338917982617,43.473727597066045,3.033050762585958,1.011016920862062,20.620780032191423,20.321188611023533,19.20932149637809,62.6830490934442,44.48474451792816,51.55195008047867,"{'neutral': (['m1', 'm3', 'm12', 'e1', 'e2'], 2.0028154546977395, 132)}"
232,69,635,0,21.187833333333035,2.043531064038234,149.86204092332386,22.4788417044183,30.72100814409533,37.009921653224055,41.07446604295783,53.131807664988514,106.34218363300664,75.63825961293047,75.61064936940681,65.39299404921667,79.69771149748283,19.413545108361177,33.71826255662745,1.0217655320188896,1.021765532019117,20.537233021478965,22.478841704418244,21.45707617239924,61.305931921140655,44.95768340883649,51.73807411771557,"{'neutral': (['m1', 'm3', 'm12', 'e1', 'e2'], 2.0028154546977395, 132)}"
233,69,636,0,21.2211999999997,0.0,146.17632156064778,22.370709877608963,26.407318948337547,34.490449084738,40.55758028152724,52.69800623891009,101.28769687764196,74.93790960599233,74.93790960599233,68.86186288118222,78.98860742253248,21.26616353683573,27.34221026164585,3.03802336240517,1.0126744541350945,18.34031440349156,20.354504617487137,20.25348908270064,58.73511833983184,46.58302489021145,53.00845373294776,"{'neutral': (['m1', 'm3', 'm12', 'e1', 'e2'], 2.0028154546977395, 132)}"
234,69,637,0,21.254566666666367,2.026050264853893,146.1005623319617,22.37845661427909,30.45821410902939,34.50239275698424,38.707635960308735,52.677306886201,105.52979939435802,75.07329614953652,74.96385979959382,70.91175926988603,79.0159603293016,22.286552913392825,30.390753972808284,4.052100529707786,2.026050264853893,20.661739672019607,22.286552913392768,21.27352778096582,58.75545768076273,48.62520635649327,49.00361833878189,"{'neutral': (['m1', 'm3', 'm12', 'e1', 'e2'], 2.0028154546977395, 132)}"
235,69,638,0,21.28793333333304,2.852598329282716,143.44060307866204,22.188007849009185,32.33643863858667,36.36363636363629,38.53648134107867,52.48315807718332,108.94162279573445,76.6494816602135,75.64093584889497,70.59820679230188,78.66657328285066,22.188007849009068,34.29055758483241,1.1368683772161605e-13,2.017091622637168,20.2715199239088,20.17091622637196,20.17091622637196,58.49565705647871,50.42729056592992,50.58840053092392,"{'neutral': (['m1', 'm3', 'm12', 'e1', 'e2'], 2.0028154546977395, 132)}"
236,69,639,0,21.3212999999997,2.018118263051065,143.3432338056696,24.217419156613342,30.338969975054493,36.38214438690537,38.39731864551302,48.602723871436,104.9615528681882,74.77938363871272,73.66131660136557,70.63413920678886,74.6703757328911,24.217419156613232,32.28989220881783,1.1368683772161605e-13,2.018118263051065,22.29084479077835,22.199300893562224,22.19930089356228,58.525429628482186,52.47107483932888,50.61414854151367,"{'neutral': (['m1', 'm3', 'm12', 'e1', 'e2'], 2.0028154546977395, 132)}"
237,69,640,0,21.354666666666365,2.006405643304788,138.5727801487843,18.057650789742297,28.16124518341724,34.108895936179806,36.17099213157726,52.32065798257681,98.31387652193052,70.25285460623336,70.22419751566463,66.21138622905528,72.23060315896942,17.054447968090017,29.092881827918177,1.003202821652394,1.003202821652394,22.16147467722231,20.16412716072732,20.064056433047085,58.18576365583647,50.160141082617656,50.3203975327108,"{'neutral': (['m1', 'm3', 'm12', 'e1', 'e2'], 2.0028154546977395, 132)}"
238,69,641,0,21.38803333333303,0.0,139.9330880738806,17.962095069049838,28.012224244291087,35.979585992343374,38.12948271697597,51.92886322766368,97.7936287092715,69.88109738095712,69.85259193519391,65.86101525318281,73.84416861720501,17.962095069049838,27.94103677407759,3.9915766820111,1.99578834100555,20.05742459318892,20.05742459318892,20.95577758055822,57.87786188916073,51.89049686614408,50.05411694573102,"{'neutral': (['m1', 'm3', 'm12', 'e1', 'e2'], 2.0028154546977395, 132)}"
239,69,642,0,21.421399999999696,0.0,138.58379324013777,18.156902019246047,28.142840989445467,34.14552721692523,38.307274701057,52.17099962623059,98.27008355705586,70.17830395718829,70.17830395718829,66.16811515963468,74.1884927547419,18.04584958899125,28.071321582875385,2.005094398776805,2.005094398776805,20.15094931631313,22.14699150802984,21.053491187156453,60.152831963304266,50.12735996942024,50.48698693164276,"{'neutral': (['m1', 'm3', 'm12', 'e1', 'e2'], 2.0028154546977395, 132)}"
240,69,643,0,21.45476666666636,1.995117934283144,145.7665440412426,19.95117934283257,28.002814637543786,37.95970754569795,40.10137417802876,49.91783476757951,97.78113500681108,69.8291276999139,69.8291276999139,67.83400976563064,73.81936356848041,20.948738309974143,26.93409211282392,4.987794835708087,2.9926769014248293,22.03679785602342,21.94629727711577,21.94629727711577,59.85353802849761,47.88283042279812,48.255465073333546,"{'neutral': (['m1', 'm3', 'm12', 'e1', 'e2'], 2.0028154546977395, 132)}"
241,69,644,0,21.488133333333028,2.0363420950075124,146.84271675870446,20.363420950074783,30.61293424200428,34.67765630908225,38.90426109931013,52.98404042339469,103.87340906504592,73.3083154202692,73.3083154202692,65.16294704023926,73.3083154202692,16.290736760059758,34.617815615127256,1.1368683772161605e-13,2.0363420950075124,22.49213359385308,22.39976304508224,22.39976304508224,61.09026285022435,50.90855237518696,51.07119992176359,"{'neutral': (['m1', 'm3', 'm12', 'e1', 'e2'], 2.0028154546977395, 132)}"
242,69,645,0,21.52149999999969,2.883112211861329,144.9749690195032,22.42535015521776,32.68233742198723,36.75261357039632,40.97672360364056,51.00746196582959,108.06864539165989,75.43072324936873,74.41138915140425,65.23738226972432,73.39205505343989,18.34801376335997,38.73469572264878,2.038668195928836,2.038668195928836,20.48836180182017,22.51782621829236,21.40601605725328,59.121377681937645,53.00537309415097,48.9704905382215,"{'neutral': (['m1', 'm3', 'm12', 'e1', 'e2'], 2.0028154546977395, 132)}"
243,69,646,0,21.55486666666636,10.352805601623476,150.25978242947266,22.33387444670086,36.60269522607028,36.546340003692194,40.80957460492244,46.874320991483614,115.7300766783586,79.2097625543091,74.10785611859808,71.062327784957,73.09268000738439,25.37940278034182,43.65257278218792,3.045528333641073,5.075880556068341,22.42597328875847,22.425973288758502,22.333874446700804,56.84986222796567,56.84986222796567,52.82818858902208,"{'neutral': (['m1', 'm3', 'm12', 'e1', 'e2'], 2.0028154546977395, 132)}"
244,69,647,0,21.588233333333022,12.121212121212125,145.51065135651808,20.202020202020208,36.36363636363637,36.36363636363626,40.60555806513492,46.63998537622298,115.22237762908442,78.89141086774396,72.72727272727263,68.68686868686859,72.72727272727263,24.242424242424136,44.44444444444457,4.040404040404155,6.0606060606060055,24.24242424242425,22.586545227270587,22.22222222222223,54.54545454545456,56.56565656565658,50.54543839675483,"{'neutral': (['m1', 'm3', 'm12', 'e1', 'e2'], 2.0028154546977395, 132)}"
245,69,648,0,21.62159999999969,10.30091814739112,141.4267669751334,20.302520099924976,36.36317259793998,34.342996342498964,40.45399798934941,44.62715211939322,111.18313073543416,74.85564051883485,69.69608081271849,68.68599268499793,70.70616894043906,25.252203193014,41.4136132365428,3.0302643831616933,7.070616894043951,24.326143445724647,22.31357605969661,23.23202693757281,56.56493515235121,60.60528766323341,50.54479376264276,"{'neutral': (['m1', 'm3', 'm12', 'e1', 'e2'], 2.0028154546977395, 132)}"
246,69,649,0,21.65496666666636,8.371788072320179,140.1603643079984,20.405838824610868,36.54822335025381,34.57743424553585,38.79182370465544,44.71617369653854,109.66346896561038,73.12464205226033,69.03553299492376,69.03553299492376,73.09644670050761,26.395939086294447,38.57868020304568,1.1368683772161605e-13,8.121827411167601,22.42712896890814,24.449938231050336,23.350253807106583,54.82233502538071,56.85279187817264,50.76142131979691,"{'neutral': (['m1', 'm3', 'm12', 'e1', 'e2'], 2.0028154546977395, 132)}"
247,69,650,0,21.688333333333023,6.090664371644607,136.16112751325124,20.302214572148728,34.513764772652735,32.48354331543783,34.75179355721571,46.73920792683482,107.62088856069352,73.1161645427354,70.04264027391298,69.02752954530558,75.11819391695019,25.37776821518593,35.52887550126013,3.0453321858223035,7.105775100252117,24.362657486578428,24.44710369294636,24.362657486578428,56.84620080201637,56.84620080201637,48.725314973156856,"{'neutral': (['m1', 'm3', 'm12', 'e1', 'e2'], 2.0028154546977395, 132)}"
248,69,651,0,21.72169999999969,2.0398607638561543,136.80760815016342,20.39860763856234,32.63777222169972,32.70145574024904,34.737577080401465,46.96112143079262,102.013434760997,69.38525743887931,68.33533558918361,71.3951267349679,77.5147090265366,27.53812031205905,27.538120312059164,7.139512673496711,9.17937343735298,24.478329166274705,24.56317631554224,23.458398784346628,57.11610138797437,57.11610138797437,48.99913700286885,"{'neutral': (['m1', 'm3', 'm12', 'e1', 'e2'], 2.0028154546977395, 132)}"
249,69,652,0,21.755066666666355,4.079721527712422,138.95030832160586,20.39860763856234,32.637772221699606,30.66583143366475,36.94344968978646,44.92327335492431,102.01343476099704,69.38525743887942,67.31540520725548,67.31540520725548,75.47484826268044,26.51818993013103,30.59791145784333,6.11958229156869,6.11958229156869,24.478329166274705,24.563176315542297,23.458398784346628,57.11610138797431,57.11610138797431,51.037300005838645,"{'neutral': (['m1', 'm3', 'm12', 'e1', 'e2'], 2.0028154546977395, 132)}"
250,69,653,0,21.78843333333302,4.585841403607154,141.568125417495,22.559356847497497,34.924727629349164,32.877636576897885,36.97223538870094,43.116665199282245,104.61348619394916,69.72892116499213,67.67807054249238,71.77977178749188,75.88147303249139,30.762759337496504,30.762759337496504,6.152551867499255,8.203402489999007,22.55935684749744,24.695511737805976,24.610207469997192,57.42381742999351,61.52551867499301,53.322116184993774,"{'neutral': (['m1', 'm3', 'm12', 'e1', 'e2'], 2.0028154546977395, 132)}"
251,69,654,0,21.821799999999687,4.04019793414534,141.40692769508587,20.20098967072647,36.36178140730783,34.34168244023499,40.45245029097715,44.4421772755984,105.04514628777804,68.68336488047021,66.6632659133976,72.72356281461555,72.72356281461555,28.28138553901715,32.32158347316249,4.04019793414534,10.100494835363293,24.241187604871868,26.33886808977485,25.25123708840817,52.52257314388902,58.58287004510703,48.52444235449936,"{'neutral': (['m1', 'm3', 'm12', 'e1', 'e2'], 2.0028154546977395, 132)}"
252,69,655,0,21.85516666666636,6.030074618866252,140.75915867348417,20.100248729554323,34.170422840242395,34.229490166680115,38.19047258615319,42.2105223320641,102.51126852072709,68.34084568048468,65.32580837105161,72.36089542639559,68.34084568048468,28.14034822137603,32.16039796728694,4.02004974591091,10.050124364777162,26.13032334842063,24.2039046134178,24.120298475465177,50.25062182388581,60.30074618866297,48.28245430973887,"{'neutral': (['m1', 'm3', 'm12', 'e1', 'e2'], 2.0028154546977395, 132)}"
253,69,656,0,21.88853333333302,4.472080054348295,146.05295859150604,21.99972500515605,35.99955000843738,34.23405761420171,37.999525008906176,40.04946817377828,102.0771252853074,66.12027452100018,63.9992000149997,71.99910001687465,67.99915001593718,29.999625007031,31.999600007499907,3.999950000937474,11.999850002812424,25.999675006093582,26.076483666801977,25.99967500609364,47.99940001124981,59.99925001406223,50.039358524714906,"{'neutral': (['m1', 'm3', 'm12', 'e1', 'e2'], 2.0028154546977395, 132)}"
254,69,657,0,21.921899999999685,14.208717377829725,144.8034919449907,20.194381694831407,34.160073393410244,34.21912282969339,40.1883216393062,40.238525683414245,108.67579075901808,74.59238312894287,67.31543874583792,74.34839503271644,68.32014678682049,31.14594927046221,37.17419751635828,1.0047080409826776,13.061204532774468,26.19958030920223,24.19657379913151,24.11299298358369,50.23540204913269,64.30131462288983,48.60129112914155,"{'neutral': (['m1', 'm3', 'm12', 'e1', 'e2'], 2.0028154546977395, 132)}"
255,69,658,0,21.95526666666635,18.25507111726847,148.2910275458508,22.403761209406383,36.566441639196206,34.54140657704754,38.59182395686698,40.76915426294761,117.92323097332638,81.3615178084683,72.00611385144771,79.10530817482993,70.99194323382164,34.481800999284815,42.5951659402931,4.056682470504143,14.198388646764329,26.368436058276643,26.6786636251878,26.368436058276643,46.65184841079713,64.9069195280656,48.84892564470396,{}
256,69,659,0,21.988633333333016,20.36155316392055,144.07767530081907,20.361553163920664,36.52514058299041,32.48005659875949,38.54823527230063,40.57162493617328,117.79003906916336,81.26962161979496,70.91175926988615,79.0159603293016,70.91175926988603,34.44285450251607,42.54705556193164,6.07815079456168,16.20840211883103,24.31260317824666,26.64853061424984,25.325628310673608,46.59915609163943,66.8596587401783,46.993885405809934,{}
257,69,660,0,22.02199999999968,14.38290715413212,142.6157899738146,22.466819187831227,30.780765477422595,30.578480051889745,34.63862736289401,40.8839037653137,108.4932727676216,77.72095040314451,70.17473315485711,77.29390898216138,69.15770803667067,32.54480378196263,34.578854018335505,2.034050236372764,12.2043014182359,24.49320829929632,26.753753811141635,25.42562795465841,46.783155436571406,69.15770803667073,48.98641659859263,{}
258,69,661,0,22.055366666666348,8.460768214773136,143.87696697131588,20.92676062386859,30.848891032799283,32.89666699326435,37.16398351439462,39.042680085086936,99.03075296807404,68.21289409611242,63.61316892498337,73.8733574612711,65.66520663224094,30.78056560886296,28.72852790160539,4.104075414515137,12.312226243545297,22.66549729754061,24.96411615293036,24.62445248709037,45.14482955966565,71.82131975401353,49.4196122623793,{}
259,69,662,0,22.08873333333301,10.463380311934271,146.2139866221362,18.918852870102185,30.848891032799283,33.08811381027555,39.20412535030524,36.93667873063555,96.79442506268111,65.95314314589533,60.53511236409713,71.82131975401353,59.50909351046835,28.72852790160539,30.78056560886296,0.0,12.312226243545185,24.7098061311896,26.99034205224465,25.65047134071915,43.09279185240814,71.82131975401353,47.90530262761807,{}
260,69,663,0,22.12209999999968,6.511774062550703,147.37340254755372,20.69474171284244,35.24789074883871,33.20366301305376,39.60957527345172,37.12282379959175,99.3765848466025,64.13353677948655,60.74651105590101,74.13133552584543,55.59850164438399,27.799250822192107,33.9768621160124,1.029601882303382,11.325620705337542,24.796096888518115,27.47320486696844,25.74004705758523,39.124871527529535,72.07213176123861,50.48200081857583,{}
261,69,664,0,22.155466666666342,9.041424091239724,145.57815901841403,18.307488450095068,36.61497690019012,34.90036545661064,38.88863545505966,38.62498064927815,102.07203194911165,65.48013810612144,60.65171664424872,78.84723163752335,54.58654497982389,28.304134433982767,34.369306098407606,2.0217238881416506,14.15206721699144,24.595332626793383,26.97316094600484,25.27154860177035,38.41275387469085,74.8037838612401,49.563170352685965,{}
262,69,665,0,22.18883333333301,12.758667624495242,147.59578317178503,20.572733382710634,34.53099863486326,37.197588580376205,40.79782231225983,38.5408918671475,106.13493811663662,71.63625461934535,64.55431936392824,80.6928992049103,54.46770696331441,29.25117596177984,37.32046588227104,5.043306200306915,13.112596120797887,24.54178718723797,24.952900999437304,23.19920852141172,36.31180464220961,76.65825424466476,47.95120794804734,{}
263,69,666,0,22.22219999999968,18.706155103845013,152.80697529114212,20.691488682686103,32.71611620844249,37.412310207690005,41.38297736537219,38.763367660220766,110.7600645556676,78.05593419640704,67.9704077442899,85.21663060478147,56.81108706985424,32.463478325630945,38.55038051168685,8.115869581407765,16.231739162815416,24.68345369528713,25.09694064591114,25.36209244189922,40.579347907038766,79.12972841872556,46.26757525015376,{}
264,69,667,0,22.255566666666343,16.45273070756193,146.61901959793775,18.814417367672007,31.216861659173865,35.63946948999632,41.62248221223159,43.04882643666578,109.38282209703448,78.2153888875042,69.38414294372592,81.62840346320695,59.18059251082502,27.54958616883232,37.75313660173333,7.142485303030639,15.305325649351287,24.826309699703053,25.242189714700284,24.48852103896212,38.77349164502334,77.54698329004668,46.535349809413,{}
265,69,668,0,22.28893333333301,4.575569000235167,140.95426300911157,20.867805319654387,30.96548224647617,33.74772945206365,37.34068009042987,43.020082753880686,98.98469186862906,68.02072331559584,65.4802132497066,79.80400989807993,57.29518659349333,25.578208300666688,29.670721628773208,1.0231283320265447,11.254411652293356,26.679922731916832,27.300469000779337,25.57820830066663,42.97138994511994,77.75775323402655,44.690920127942384,{}
266,69,669,0,22.322299999999675,6.478635483917426,138.23956880738012,22.90543541756878,28.97333868696296,31.002826259819216,35.366467005590195,40.97448851833212,98.87085495800024,69.92725946259897,66.5835438422896,75.80280375891437,59.41300835158154,26.63341753691577,30.730866388749178,2.048724425916703,8.194897703666356,24.923808345744543,26.946762640233604,25.60905532395759,49.169386221998536,79.9002526107476,41.7859433028917,{}
267,69,670,0,22.35566666666634,4.569474373321459,139.9184693134507,24.607372582313825,32.950948309858624,30.924236433882022,34.97961732836267,42.96278029506775,104.71975193172317,71.7858461310824,69.48005617729268,77.65418043344482,61.305931921140655,26.5659038324942,34.74002808864634,4.087062128076013,6.13059319211402,26.64438525556603,27.264104961001888,27.58766936451326,53.131807664988514,81.74124256152078,44.113772812068255,{}
