,frame_seq,video_id,gap,time_seconds,m1,m3,m4,m5,m6,m7,m8,m9,m10,m11,m12,m13,m14,m15,m16,m17,e1,e2,e3,b1,b2,b3,label_measures,label_inf
0,0,15,0,0.0,1.0,30.01666203960727,3.0,5.0990195135927845,8.0,8.0,6.0,15.033296378372908,10.0,9.5,7.0,8.0,1.5,7.5,1.5,1.5,4.123105625617661,3.0,3.0,15.0,12.0,15.033296378372908,{},{}
1,1,15,0,0.0333333333333333,1.4142135623730951,30.01666203960727,3.0,5.0,7.071067811865476,8.06225774829855,6.0,15.033296378372908,10.04987562112089,9.5,7.0,8.0,1.5,7.5,1.5,1.5,4.123105625617661,4.0,4.0,15.0,11.0,14.142135623730953,{},{}
2,2,15,0,0.0666666666666666,1.0,29.017236257093817,3.0,5.0990195135927845,8.0,7.071067811865476,6.0,15.033296378372908,10.0,9.5,7.0,8.0,1.5,7.5,1.5,1.5,3.1622776601683795,3.0,3.0,15.0,12.0,14.142135623730953,{},{}
3,3,15,0,0.0999999999999999,0.0,29.017236257093817,3.0,6.082762530298219,8.06225774829855,8.0,6.0,15.033296378372908,9.0,9.0,7.0,8.0,1.5,7.5,1.5,1.5,4.123105625617661,4.0,4.0,15.0,12.0,14.0356688476182,{},{}
4,4,15,0,0.1333333333333332,0.0,30.066592756745816,3.0,5.0990195135927845,8.0,7.0,6.0,14.0356688476182,9.0,9.0,6.0,8.0,1.0,7.0,2.0,1.0,4.123105625617661,4.123105625617661,4.0,15.0,12.0,14.0356688476182,{},{}
5,5,15,0,0.1666666666666665,1.0,30.01666203960727,3.0,6.0,8.06225774829855,8.0,6.0,15.033296378372908,9.055385138137416,9.0,7.0,8.0,1.5,7.5,1.5,1.5,4.123105625617661,4.0,4.0,14.0,12.0,14.0356688476182,{},{}
6,6,15,0,0.1999999999999998,1.0,30.01666203960727,2.23606797749979,5.0,7.0,8.06225774829855,7.0,15.033296378372908,10.04987562112089,9.5,7.0,8.0,0.5,7.5,1.5,1.5,4.0,4.123105625617661,4.0,15.0,12.0,13.038404810405298,{},{}
7,7,15,0,0.2333333333333331,1.0,29.017236257093817,2.23606797749979,5.0,7.0,8.06225774829855,7.0,15.033296378372908,10.04987562112089,9.5,7.0,8.0,0.5,7.5,1.5,1.5,4.123105625617661,4.123105625617661,4.0,15.0,12.0,14.0356688476182,{},{}
8,8,15,0,0.2666666666666664,0.0,29.017236257093817,3.0,5.0,7.0,8.0,6.082762530298219,14.0356688476182,9.055385138137416,9.0,6.0,7.0,0.5,7.5,1.5,1.5,3.1622776601683795,3.0,3.0,14.0,12.0,14.142135623730953,{},{}
9,9,15,0,0.2999999999999997,0.0,29.017236257093817,3.0,5.0,7.0,7.071067811865476,6.082762530298219,14.0356688476182,9.055385138137416,9.0,6.0,7.0,0.5,7.5,1.5,1.5,3.1622776601683795,3.0,3.0,14.0,11.0,14.0356688476182,{},{}
10,10,15,0,0.333333333333333,0.0,29.017236257093817,3.0,5.0,7.0,8.0,6.082762530298219,14.0356688476182,9.055385138137416,9.0,6.0,7.0,0.5,7.5,1.5,1.5,3.1622776601683795,3.0,3.0,14.0,11.0,14.142135623730953,{},{}
11,11,15,0,0.3666666666666663,1.0,29.017236257093817,3.0,5.0,7.0,7.071067811865476,6.082762530298219,15.033296378372908,10.04987562112089,9.5,7.0,8.0,1.5,7.5,1.5,1.5,3.1622776601683795,4.123105625617661,4.0,14.0,11.0,14.0356688476182,{},{}
12,12,15,0,0.3999999999999997,0.0,29.068883707497267,3.0,5.0,7.0,8.06225774829855,7.071067811865476,15.033296378372908,10.04987562112089,10.0,7.0,9.0,1.0,7.0,1.0,1.0,3.1622776601683795,3.0,3.5,14.0,11.0,14.0356688476182,{},{}
13,13,15,0,0.433333333333333,1.0,29.017236257093817,3.0,5.0990195135927845,7.0,7.071067811865476,6.0,15.033296378372908,10.0,9.5,7.0,8.0,1.5,7.5,1.5,1.5,3.1622776601683795,3.1622776601683795,3.5,14.0,11.0,13.038404810405298,{},{}
14,14,15,0,0.4666666666666663,1.0,29.017236257093817,3.0,5.0990195135927845,8.0,7.071067811865476,6.0,15.033296378372908,10.0,9.5,7.0,8.0,1.5,7.5,1.5,1.5,3.1622776601683795,4.0,4.0,14.0,11.0,13.152946437965904,{},{}
15,15,15,0,0.4999999999999996,1.4142135623730951,29.017236257093817,3.0,5.0,7.0,8.06225774829855,6.0,15.033296378372908,10.04987562112089,9.5,7.0,8.0,1.5,7.5,1.5,1.5,3.0,4.0,4.0,14.0,11.0,14.0356688476182,{},{}
16,16,15,0,0.533333333333333,1.4142135623730951,28.0178514522438,3.0,5.0,7.0,7.071067811865476,5.0,14.0356688476182,9.055385138137416,8.5,6.0,7.0,1.5,7.5,1.5,1.5,3.0,4.0,4.0,14.0,11.0,14.0356688476182,{},{}
17,17,15,0,0.5666666666666663,1.0,29.017236257093817,2.0,5.0,7.0,8.06225774829855,6.082762530298219,14.0356688476182,9.055385138137416,8.5,6.0,7.0,0.5,7.5,1.5,1.5,3.1622776601683795,4.0,4.0,14.0,11.0,13.038404810405298,{},{}
18,18,15,0,0.5999999999999996,1.0,29.017236257093817,2.0,5.0,8.0,7.071067811865476,7.0,15.0,10.0,9.5,7.0,8.0,0.5,7.5,1.5,1.5,3.1622776601683795,4.0,4.0,14.0,11.0,13.038404810405298,{},{}
19,19,15,0,0.633333333333333,1.0,29.017236257093817,2.0,5.0,8.0,7.071067811865476,7.0,15.0,10.0,9.5,7.0,8.0,0.5,7.5,1.5,1.5,3.1622776601683795,4.0,4.0,14.0,11.0,13.038404810405298,{},{}
20,20,15,0,0.6666666666666663,1.0,29.017236257093817,3.0,5.0990195135927845,7.0,7.0,6.0,15.033296378372908,10.0,9.5,7.0,8.0,1.5,7.5,1.5,1.5,3.1622776601683795,4.0,4.0,14.0,11.0,13.038404810405298,{},{}
21,21,15,0,0.6999999999999996,1.0,29.017236257093817,3.0,5.0,7.0,8.06225774829855,6.0,15.0,10.0,9.5,7.0,8.0,1.5,7.5,1.5,1.5,3.1622776601683795,3.0,3.0,14.0,11.0,13.038404810405298,{},{}
22,22,15,0,0.733333333333333,1.0,29.017236257093817,3.0,5.0,6.0,7.071067811865476,6.0,15.0,10.0,9.5,7.0,8.0,1.5,7.5,1.5,1.5,3.1622776601683795,4.0,4.0,14.0,11.0,13.152946437965904,{},{}
23,23,15,0,0.7666666666666663,1.0,29.017236257093817,3.0,5.0,7.0,8.06225774829855,6.0,15.0,10.0,9.5,7.0,8.0,1.5,7.5,1.5,1.5,3.1622776601683795,3.0,3.0,14.0,11.0,14.0356688476182,{},{}
24,24,15,0,0.7999999999999996,1.0,29.017236257093817,3.0,5.0,7.0,7.0,6.0,15.0,10.0,9.5,7.0,8.0,1.5,7.5,1.5,1.5,3.1622776601683795,3.0,3.5,14.0,11.0,15.132745950421556,{},{}
25,25,15,0,0.8333333333333329,1.0,28.0178514522438,3.0,5.0,6.082762530298219,7.0,6.0,15.0,10.0,9.5,7.0,8.0,1.5,7.5,1.5,1.5,4.123105625617661,3.0,3.0,15.0,11.0,13.152946437965904,{},{}
26,26,15,0,0.8666666666666663,1.0,28.0178514522438,3.0,5.0,7.071067811865476,7.0,6.0,15.0,10.0,9.5,7.0,8.0,1.5,7.5,1.5,1.5,4.123105625617661,3.0,3.0,15.0,11.0,13.152946437965904,{},{}
27,27,15,0,0.8999999999999996,1.0,29.017236257093817,3.0,5.0,6.0,7.0,6.0,15.0,10.0,9.5,7.0,8.0,1.5,7.5,1.5,1.5,4.123105625617661,4.0,3.5,15.0,11.0,15.033296378372908,{},{}
28,28,15,0,0.9333333333333328,0.0,29.068883707497267,3.0,6.082762530298219,6.0,7.0,6.082762530298219,15.132745950421556,9.055385138137416,9.0,6.0,8.0,1.0,8.0,2.0,1.0,4.123105625617661,4.0,3.5,14.0,10.0,13.152946437965904,{},{}
29,29,15,0,0.9666666666666662,0.0,29.017236257093817,3.0,6.0,6.0,7.0,6.082762530298219,15.033296378372908,9.055385138137416,9.0,7.0,8.0,1.5,7.5,1.5,0.5,4.123105625617661,4.0,3.5,15.0,12.0,14.0356688476182,{},{}
30,30,15,0,0.9999999999999996,1.0,29.017236257093817,3.0,5.0,7.0,7.0,6.082762530298219,15.033296378372908,10.04987562112089,9.5,7.0,8.0,1.5,7.5,1.5,1.5,4.123105625617661,4.0,4.0,15.0,12.0,14.0356688476182,{},{}
31,31,15,0,1.0333333333333328,1.0,29.017236257093817,3.0,5.0,7.0,7.0,6.082762530298219,15.033296378372908,10.04987562112089,9.5,7.0,8.0,1.5,7.5,1.5,1.5,4.123105625617661,4.123105625617661,3.5,14.0,11.0,13.038404810405298,{},{}
32,32,15,0,1.066666666666666,1.0,29.068883707497267,3.0,5.0,6.082762530298219,7.0,6.0,15.0,10.0,9.5,7.0,9.0,2.0,7.0,1.0,1.0,4.123105625617661,4.0,4.0,14.0,11.0,13.038404810405298,{},{}
33,33,15,0,1.0999999999999992,1.0,28.0178514522438,3.0,6.0,7.0,7.0,6.0,16.0,10.0,9.5,7.0,8.0,1.5,8.5,1.5,1.5,4.123105625617661,4.0,4.0,14.0,11.0,13.038404810405298,{},{}
34,34,15,0,1.1333333333333324,1.0,28.0713376952364,3.0,6.082762530298219,8.06225774829855,7.0,6.0,16.0312195418814,10.0,9.5,7.0,9.0,2.0,8.0,2.0,1.0,4.123105625617661,4.0,4.0,14.0,11.0,13.038404810405298,{},{}
35,35,15,0,1.1666666666666656,3.0,28.0713376952364,3.0,6.082762530298219,8.0,8.06225774829855,6.0,18.027756377319943,12.0,10.5,8.0,10.0,3.0,9.0,3.0,0.0,4.123105625617661,4.0,4.0,14.0,11.0,13.152946437965904,{},{}
36,36,15,0,1.1999999999999988,3.0,29.017236257093817,3.0,6.082762530298219,7.0,7.071067811865476,6.0,18.027756377319943,12.0,10.5,8.0,9.0,2.5,9.5,3.5,0.5,4.123105625617661,4.0,4.0,14.0,11.0,13.152946437965904,{},{}
37,37,15,0,1.233333333333332,4.0,28.0713376952364,3.0,5.0990195135927845,8.06225774829855,8.0,6.0,18.027756377319943,13.0,11.0,8.0,10.0,3.0,9.0,3.0,0.0,4.123105625617661,4.0,4.0,14.0,11.0,13.152946437965904,{},{}
38,38,15,0,1.2666666666666653,4.123105625617661,28.0713376952364,3.0,6.0,7.0,8.0,6.0,19.026297590440446,13.038404810405298,11.0,8.0,10.0,3.0,10.0,3.0,1.0,2.23606797749979,2.23606797749979,2.0,15.0,11.0,14.0356688476182,{},{}
39,39,15,0,1.2999999999999985,4.123105625617661,28.0713376952364,4.0,6.0,7.0,8.0,5.0,19.026297590440446,13.038404810405298,11.0,8.0,10.0,4.0,10.0,3.0,1.0,2.23606797749979,2.0,2.0,15.0,12.0,13.038404810405298,{},{}
40,40,15,0,1.3333333333333317,4.0,29.068883707497267,3.1622776601683795,6.0,7.071067811865476,8.0,6.0,19.026297590440446,13.038404810405298,11.0,8.0,10.0,3.0,10.0,4.0,0.0,2.23606797749979,2.0,2.0,14.0,11.0,13.038404810405298,{},{}
41,41,15,0,1.366666666666665,4.0,28.0713376952364,4.123105625617661,6.0,7.0,8.06225774829855,5.0,19.026297590440446,13.038404810405298,11.0,8.0,10.0,4.0,10.0,3.0,1.0,2.23606797749979,2.0,2.0,15.0,11.0,13.038404810405298,{},{}
42,42,15,0,1.399999999999998,4.0,29.068883707497267,4.0,6.082762530298219,7.071067811865476,8.06225774829855,5.0990195135927845,19.1049731745428,13.038404810405298,11.0,8.0,10.0,4.0,10.0,4.0,0.0,3.1622776601683795,3.0,2.5,15.0,11.0,14.0356688476182,{},{}
43,43,15,0,1.4333333333333311,5.0,28.16025568065745,3.0,6.082762530298219,8.06225774829855,8.06225774829855,6.082762530298219,20.09975124224178,14.0356688476182,11.5,8.0,11.0,3.5,10.5,3.5,0.5,3.1622776601683795,3.0,3.0,15.0,11.0,14.142135623730953,{},{}
44,44,15,0,1.4666666666666646,5.0990195135927845,28.16025568065745,3.0,6.0,8.06225774829855,8.06225774829855,6.082762530298219,20.09975124224178,14.142135623730953,11.5,9.0,12.0,4.5,9.5,2.5,1.5,3.0,3.0,3.0,15.0,10.0,14.142135623730953,{},{}
45,45,15,0,1.4999999999999978,4.123105625617661,29.154759474226505,4.0,6.0,6.082762530298219,8.0,5.0990195135927845,19.1049731745428,13.152946437965904,11.0,8.0,11.0,4.5,9.5,3.5,0.5,3.1622776601683795,3.0,3.0,16.0,11.0,13.038404810405298,{},{}
46,46,15,0,1.533333333333331,4.0,28.16025568065745,4.123105625617661,6.082762530298219,7.071067811865476,7.071067811865476,6.0,20.09975124224178,14.0356688476182,12.0,9.0,12.0,4.5,9.5,2.5,0.5,3.1622776601683795,4.0,3.5,15.0,10.0,15.132745950421556,{},{}
47,47,15,0,1.5666666666666642,4.0,27.16615541441225,3.1622776601683795,6.082762530298219,7.071067811865476,7.071067811865476,6.0,19.1049731745428,13.038404810405298,11.0,9.0,12.0,4.5,8.5,1.5,1.5,3.1622776601683795,3.0,3.0,16.0,10.0,14.142135623730953,{},{}
48,48,15,0,1.5999999999999974,4.123105625617661,26.1725046566048,4.0,6.082762530298219,7.071067811865476,7.071067811865476,6.082762530298219,20.223748416156685,14.142135623730953,12.0,10.0,13.0,5.5,8.5,1.5,1.5,3.1622776601683795,3.0,3.0,15.0,9.0,14.142135623730953,{},{}
49,49,15,0,1.6333333333333306,3.1622776601683795,26.30589287593181,4.0,6.082762530298219,6.082762530298219,7.071067811865476,6.082762530298219,19.235384061671343,13.152946437965904,11.5,9.0,13.0,5.0,8.0,1.0,1.0,3.1622776601683795,3.0,3.0,15.0,10.0,13.152946437965904,{},{}
50,50,15,0,1.666666666666664,3.1622776601683795,27.29468812791236,4.0,7.071067811865476,7.071067811865476,7.071067811865476,5.0990195135927845,19.235384061671343,12.16552506059644,10.5,9.0,13.0,6.0,8.0,1.0,1.0,3.1622776601683795,3.0,3.0,15.0,10.0,13.152946437965904,{},{}
51,51,15,0,1.699999999999997,3.0,26.1725046566048,4.123105625617661,6.082762530298219,7.071067811865476,7.280109889280518,5.0,18.110770276274835,12.041594578792296,10.5,9.0,12.0,5.5,7.5,0.5,0.5,4.123105625617661,4.0,4.0,16.0,10.0,13.152946437965904,{},{}
52,52,15,0,1.7333333333333305,3.0,26.1725046566048,4.0,6.082762530298219,6.0,7.071067811865476,5.0990195135927845,18.110770276274835,12.041594578792296,10.5,9.0,12.0,5.5,7.5,0.5,1.5,4.123105625617661,4.0,3.5,15.0,10.0,14.142135623730953,{},{}
53,53,15,0,1.7666666666666635,3.0,26.1725046566048,4.123105625617661,6.082762530298219,6.082762530298219,7.071067811865476,6.0,19.1049731745428,13.038404810405298,11.5,10.0,13.0,5.5,7.5,0.5,1.5,4.123105625617661,4.0,3.5,15.0,10.0,13.038404810405298,{},{}
54,54,15,0,1.7999999999999967,2.0,26.1725046566048,4.123105625617661,7.071067811865476,6.082762530298219,6.082762530298219,6.0,19.1049731745428,12.041594578792296,11.0,10.0,13.0,5.5,7.5,0.5,1.5,4.123105625617661,4.0,3.5,16.0,11.0,14.142135623730953,{},{}
55,55,15,0,1.83333333333333,2.0,26.1725046566048,4.123105625617661,6.0,5.0,7.071067811865476,6.0,18.027756377319943,12.041594578792296,11.0,10.0,13.0,5.5,6.5,0.5,1.5,4.0,3.0,3.5,15.0,10.0,14.142135623730953,{},{}
56,56,15,0,1.8666666666666631,1.4142135623730951,26.1725046566048,4.0,6.0,6.0,6.082762530298219,6.082762530298219,17.11724276862369,11.180339887498947,10.5,10.0,13.0,5.5,5.5,1.5,1.5,4.123105625617661,3.1622776601683795,3.5,15.0,10.0,14.142135623730953,{},{}
57,57,15,0,1.8999999999999964,1.0,25.179356624028344,4.0,6.082762530298219,6.082762530298219,6.082762530298219,6.082762530298219,17.11724276862369,11.04536101718726,10.5,10.0,13.0,5.5,5.5,1.5,0.5,4.123105625617661,3.0,3.0,15.0,10.0,14.142135623730953,{},{}
58,58,15,0,1.9333333333333296,1.0,26.0768096208106,4.0,7.0,6.0,6.082762530298219,6.0,17.029386365926403,10.04987562112089,10.0,10.0,12.0,5.0,6.0,1.0,1.0,3.1622776601683795,4.123105625617661,3.5,15.0,10.0,13.038404810405298,{},{}
59,59,15,0,1.9666666666666628,1.4142135623730951,25.079872407968907,4.0,6.0,5.0,6.082762530298219,7.0,18.027756377319943,12.041594578792296,11.5,11.0,13.0,5.0,6.0,1.0,1.0,4.123105625617661,4.0,3.5,15.0,11.0,14.0356688476182,{},{}
60,60,15,0,1.999999999999996,2.0,24.020824298928627,5.0,7.071067811865476,5.0,6.082762530298219,6.0,20.024984394500787,13.0,12.0,12.0,13.0,6.5,7.5,0.5,1.5,3.1622776601683795,4.0,3.5,15.0,11.0,13.038404810405298,{},{}
61,61,15,0,2.033333333333329,3.1622776601683795,25.079872407968907,5.0,7.0,5.0990195135927845,6.0,6.082762530298219,21.095023109728988,14.142135623730953,12.5,12.0,14.0,7.0,8.0,1.0,2.0,4.123105625617661,4.0,3.5,15.0,11.0,13.038404810405298,{},{}
62,62,15,0,2.0666666666666624,4.123105625617661,25.079872407968907,4.0,7.0,7.071067811865476,8.0,6.0,21.02379604162864,14.0356688476182,12.0,11.0,13.0,6.0,9.0,2.0,2.0,3.1622776601683795,4.0,3.5,15.0,11.0,14.0356688476182,{},{}
63,63,15,0,2.099999999999996,5.0990195135927845,26.1725046566048,5.0,7.071067811865476,7.071067811865476,7.071067811865476,5.0,22.09072203437452,15.033296378372908,12.5,11.0,14.0,7.5,9.5,1.5,2.5,4.0,4.0,3.5,15.0,11.0,13.038404810405298,{},{}
64,64,15,0,2.133333333333329,5.0990195135927845,27.16615541441225,4.0,7.0,8.06225774829855,8.06225774829855,5.0990195135927845,21.095023109728988,14.142135623730953,11.5,10.0,13.0,6.5,9.5,1.5,2.5,3.1622776601683795,3.0,3.0,14.0,10.0,14.142135623730953,{},{}
65,65,15,0,2.166666666666662,5.0990195135927845,27.16615541441225,4.0,7.0,8.06225774829855,9.055385138137416,5.0990195135927845,21.095023109728988,14.142135623730953,11.5,10.0,13.0,6.5,9.5,1.5,2.5,3.0,4.123105625617661,3.5,15.0,11.0,14.142135623730953,{},{}
66,66,15,0,2.199999999999996,5.0990195135927845,29.068883707497267,4.0,7.071067811865476,7.071067811865476,9.0,5.0,21.095023109728988,14.0356688476182,11.5,10.0,12.0,6.0,10.0,2.0,2.0,4.123105625617661,4.0,3.5,14.0,10.0,13.152946437965904,{},{}
67,67,15,0,2.2333333333333285,5.0990195135927845,28.0713376952364,4.0,7.0,8.0,9.055385138137416,5.0990195135927845,21.095023109728988,14.142135623730953,11.5,10.0,12.0,6.0,10.0,3.0,2.0,3.1622776601683795,3.0,3.0,15.0,10.0,14.0356688476182,{},{}
68,68,15,0,2.2666666666666617,5.0990195135927845,28.0713376952364,4.0,6.082762530298219,8.06225774829855,9.055385138137416,5.0,20.09975124224178,14.0356688476182,11.5,10.0,12.0,6.0,9.0,2.0,2.0,4.123105625617661,4.0,3.5,14.0,10.0,14.0356688476182,{},{}
69,69,15,0,2.299999999999995,4.123105625617661,27.018512172212592,4.0,6.082762530298219,7.071067811865476,8.0,6.0,20.09975124224178,14.0356688476182,12.0,11.0,12.0,5.5,8.5,1.5,1.5,3.0,4.123105625617661,3.5,14.0,11.0,14.0356688476182,{},{}
70,70,15,0,2.333333333333328,1.0,26.019223662515376,4.0,7.0,7.0,6.082762530298219,6.0,17.029386365926403,10.04987562112089,10.0,11.0,12.0,5.5,5.5,1.5,1.5,4.0,4.0,4.0,14.0,11.0,13.038404810405298,{},{}
71,71,15,0,2.3666666666666614,1.0,27.018512172212592,4.0,6.0,7.0,7.0,5.0,16.0,10.0,9.5,10.0,11.0,5.5,5.5,1.5,1.5,3.0,4.0,3.5,14.0,11.0,13.038404810405298,{},{}
72,72,15,0,2.3999999999999946,0.0,27.073972741361768,4.0,6.0,6.082762530298219,7.0,6.0,16.0,10.0,10.0,10.0,12.0,5.0,5.0,1.0,1.0,3.0,4.0,4.0,14.0,11.0,13.038404810405298,{},{}
73,73,15,0,2.433333333333328,1.0,27.018512172212592,4.0,6.0,7.0,7.0,6.0,17.0,11.0,10.5,11.0,12.0,5.5,5.5,1.5,1.5,3.0,3.0,3.0,14.0,11.0,13.038404810405298,{},{}
74,74,15,0,2.466666666666661,6.0,25.019992006393608,4.123105625617661,6.0,7.0,8.0,6.0,22.02271554554524,16.0312195418814,13.0,13.0,14.0,7.5,8.5,1.5,3.5,4.0,4.0,4.0,14.0,12.0,13.038404810405298,{},{}
75,75,15,0,2.4999999999999942,6.0,26.019223662515376,4.0,6.0,7.0,7.071067811865476,6.082762530298219,22.02271554554524,16.0312195418814,13.0,12.0,13.0,6.5,9.5,2.5,2.5,4.0,4.0,3.5,14.0,12.0,13.0,{},{}
76,76,15,0,2.5333333333333274,2.0,26.0768096208106,4.0,6.0,7.071067811865476,7.0,7.0,19.0,13.0,12.0,11.0,13.0,5.0,7.0,1.0,1.0,4.123105625617661,4.123105625617661,3.5,14.0,11.0,13.038404810405298,{},{}
77,77,15,0,2.5666666666666607,0.0,26.019223662515376,4.0,6.0,7.0,8.06225774829855,7.0,17.0,11.0,11.0,11.0,12.0,4.5,5.5,0.5,1.5,3.1622776601683795,4.0,4.0,14.0,11.0,13.038404810405298,{},{}
78,78,15,0,2.599999999999994,1.0,27.018512172212592,4.0,6.082762530298219,7.0,7.071067811865476,6.0,17.029386365926403,11.0,10.5,11.0,12.0,5.5,5.5,1.5,1.5,3.0,4.123105625617661,4.0,14.0,11.0,13.038404810405298,{},{}
79,79,15,0,2.633333333333327,1.0,27.018512172212592,4.0,6.0,7.071067811865476,8.06225774829855,7.071067811865476,18.027756377319943,12.041594578792296,11.5,11.0,12.0,4.5,6.5,0.5,0.5,4.123105625617661,4.123105625617661,4.0,13.0,11.0,13.0,{},{}
80,80,15,0,2.6666666666666603,3.0,27.073972741361768,4.0,6.0,8.0,8.0,6.082762530298219,19.026297590440446,13.038404810405298,11.5,10.0,12.0,5.0,8.0,2.0,1.0,4.123105625617661,4.0,4.0,14.0,12.0,13.0,{},{}
81,81,15,0,2.699999999999993,4.123105625617661,28.0713376952364,3.0,7.0,8.06225774829855,8.0,6.0,20.024984394500787,13.038404810405298,11.0,10.0,12.0,5.0,9.0,2.0,1.0,4.0,4.0,4.0,14.0,11.0,14.0356688476182,{},{}
82,82,15,0,2.7333333333333267,4.123105625617661,28.0713376952364,4.0,7.0,8.06225774829855,8.0,6.0,21.02379604162864,14.0356688476182,12.0,10.0,12.0,5.0,10.0,3.0,1.0,3.1622776601683795,4.0,4.0,15.0,12.0,13.038404810405298,{},{}
83,83,15,0,2.76666666666666,5.0990195135927845,28.0713376952364,4.0,6.0,8.06225774829855,8.0,6.0,21.02379604162864,15.033296378372908,12.5,11.0,13.0,6.0,9.0,2.0,2.0,4.0,4.0,4.0,14.0,11.0,14.0356688476182,{},{}
84,84,15,0,2.799999999999993,6.0,29.068883707497267,4.0,7.071067811865476,8.06225774829855,9.0,5.0990195135927845,22.09072203437452,15.033296378372908,12.0,10.0,12.0,6.0,11.0,4.0,2.0,4.123105625617661,4.123105625617661,4.0,14.0,11.0,13.152946437965904,{},{}
85,85,15,0,2.8333333333333264,8.06225774829855,30.066592756745816,3.0,6.0,8.0,8.06225774829855,6.082762530298219,23.08679276123039,17.11724276862369,13.0,10.0,12.0,5.0,12.0,5.0,2.0,3.0,4.0,4.0,14.0,11.0,14.0356688476182,{},{}
86,86,15,0,2.86666666666666,9.055385138137416,30.066592756745816,3.0,6.0,8.0,9.0,6.0,24.020824298928627,18.027756377319943,13.5,11.0,13.0,6.0,12.0,5.0,3.0,4.0,4.0,4.0,14.0,11.0,12.041594578792296,{},{}
87,87,15,0,2.899999999999993,9.0,30.066592756745816,3.0,6.082762530298219,8.0,9.055385138137416,5.0990195135927845,23.08679276123039,17.029386365926403,12.5,10.0,12.0,6.0,12.0,6.0,3.0,3.0,4.123105625617661,4.0,14.0,11.0,12.041594578792296,{},{}
88,88,15,0,2.933333333333326,9.0,30.066592756745816,3.0,6.082762530298219,8.0,9.055385138137416,5.0990195135927845,23.08679276123039,17.029386365926403,12.5,10.0,12.0,6.0,12.0,6.0,3.0,3.0,4.0,3.5,14.0,11.0,13.038404810405298,{},{}
89,89,15,0,2.9666666666666592,9.0,30.066592756745816,3.0,6.082762530298219,8.06225774829855,9.0,5.0990195135927845,23.08679276123039,17.029386365926403,12.5,10.0,12.0,6.0,12.0,5.0,2.0,4.0,4.0,3.5,14.0,11.0,12.041594578792296,{},{}
90,90,15,0,2.9999999999999925,8.0,29.154759474226505,3.1622776601683795,5.0990195135927845,8.06225774829855,9.055385138137416,5.0,21.095023109728988,16.0312195418814,12.0,9.0,12.0,5.5,10.5,4.5,1.5,4.123105625617661,4.123105625617661,3.5,15.0,12.0,12.041594578792296,{},{}
91,91,15,0,3.0333333333333257,6.082762530298219,30.14962686336267,3.0,5.0990195135927845,8.06225774829855,9.055385138137416,6.0,20.09975124224178,15.033296378372908,12.0,9.0,12.0,4.5,9.5,3.5,1.5,3.0,4.0,4.0,14.0,11.0,13.038404810405298,{},{}
92,92,15,0,3.066666666666659,4.123105625617661,30.066592756745816,3.0,6.0,8.06225774829855,8.0,6.0,19.026297590440446,13.038404810405298,11.0,9.0,11.0,4.0,9.0,2.0,1.0,3.0,4.0,4.0,14.0,11.0,12.041594578792296,{},{}
93,93,15,0,3.099999999999992,4.0,30.14962686336267,3.0,6.082762530298219,8.06225774829855,8.0,6.082762530298219,19.1049731745428,13.038404810405298,11.0,8.0,11.0,3.5,9.5,2.5,0.5,3.0,4.0,4.0,14.0,11.0,13.038404810405298,{},{}
94,94,15,0,3.1333333333333253,4.123105625617661,30.066592756745816,3.0,5.0,8.06225774829855,9.0,6.0,18.027756377319943,13.038404810405298,11.0,9.0,11.0,4.0,8.0,2.0,1.0,3.0,4.0,3.5,15.0,11.0,12.041594578792296,{},{}
95,95,15,0,3.1666666666666585,4.0,31.064449134018133,3.0,6.082762530298219,8.0,9.055385138137416,6.082762530298219,19.1049731745428,13.038404810405298,11.0,9.0,11.0,4.0,9.0,3.0,1.0,4.0,4.0,3.5,14.0,11.0,13.038404810405298,{},{}
96,96,15,0,3.199999999999992,3.0,31.144823004794876,4.0,6.082762530298219,8.06225774829855,9.0,5.0990195135927845,18.110770276274835,12.041594578792296,10.5,8.0,11.0,4.5,8.5,2.5,0.5,4.123105625617661,3.0,3.0,14.0,11.0,13.038404810405298,{},{}
97,97,15,0,3.233333333333325,5.0,31.064449134018133,4.0,6.082762530298219,8.06225774829855,9.0,5.0990195135927845,20.09975124224178,14.0356688476182,11.5,9.0,11.0,5.0,10.0,3.0,1.0,4.0,3.0,3.0,14.0,11.0,13.038404810405298,{},{}
98,98,15,0,3.266666666666658,6.0,31.064449134018133,3.0,6.082762530298219,8.06225774829855,9.0,6.082762530298219,21.095023109728988,15.033296378372908,12.0,9.0,11.0,4.0,11.0,4.0,1.0,4.0,3.0,3.0,15.0,12.0,12.041594578792296,{},{}
99,99,15,0,3.2999999999999914,7.071067811865476,31.064449134018133,3.0,5.0,8.06225774829855,9.055385138137416,6.082762530298219,21.095023109728988,16.1245154965971,12.5,9.0,11.0,4.0,11.0,5.0,1.0,3.0,3.0,3.0,15.0,11.0,12.041594578792296,{},{}
100,100,15,0,3.3333333333333246,7.071067811865476,31.144823004794876,3.0,5.0,8.06225774829855,9.055385138137416,6.082762530298219,21.095023109728988,16.1245154965971,12.5,9.0,12.0,4.5,10.5,4.5,1.5,3.0,4.0,4.0,15.0,11.0,12.041594578792296,{},{}
101,101,15,0,3.366666666666658,6.082762530298219,31.144823004794876,4.0,6.0,8.06225774829855,9.055385138137416,6.082762530298219,22.09072203437452,16.1245154965971,13.0,9.0,12.0,4.5,11.5,5.5,0.5,3.1622776601683795,4.0,4.0,15.0,11.0,12.16552506059644,{},{}
102,102,15,0,3.399999999999991,7.0,31.144823004794876,3.0,6.082762530298219,8.0,9.0,6.082762530298219,22.09072203437452,16.0312195418814,12.5,9.0,12.0,4.5,11.5,4.5,1.5,3.0,4.0,4.0,15.0,11.0,12.16552506059644,{},{}
103,103,15,0,3.433333333333324,7.0,31.144823004794876,3.0,6.082762530298219,8.0,9.0,6.082762530298219,22.09072203437452,16.0312195418814,12.5,9.0,12.0,4.5,11.5,4.5,1.5,3.0,4.123105625617661,3.5,15.0,11.0,13.152946437965904,{},{}
104,104,15,0,3.466666666666657,7.071067811865476,31.144823004794876,3.0,5.0,8.0,9.055385138137416,6.082762530298219,21.095023109728988,16.1245154965971,12.5,9.0,12.0,4.5,10.5,4.5,1.5,3.1622776601683795,4.123105625617661,3.5,15.0,11.0,13.038404810405298,{},{}
105,105,15,0,3.4999999999999907,7.0,30.14962686336267,3.1622776601683795,5.0990195135927845,8.0,9.055385138137416,6.0,21.095023109728988,16.0312195418814,12.5,9.0,12.0,4.5,10.5,4.5,1.5,2.23606797749979,2.0,2.5,15.0,11.0,13.038404810405298,{},{}
106,106,15,0,3.533333333333324,7.0,32.14031735997639,3.1622776601683795,6.082762530298219,9.0,9.0,6.0,22.09072203437452,16.0312195418814,12.5,9.0,12.0,4.5,11.5,4.5,1.5,1.4142135623730951,2.0,1.5,15.0,11.0,13.038404810405298,{},{}
107,107,15,0,3.566666666666657,6.0,32.14031735997639,4.123105625617661,6.082762530298219,9.055385138137416,9.0,6.0,22.09072203437452,16.0312195418814,13.0,9.0,12.0,4.5,11.5,4.5,0.5,1.4142135623730951,1.0,1.5,15.0,11.0,13.038404810405298,{},{}
108,108,15,0,3.5999999999999903,7.0,32.14031735997639,3.0,5.0990195135927845,9.055385138137416,9.0,6.082762530298219,21.095023109728988,16.0312195418814,12.5,9.0,12.0,4.5,10.5,4.5,1.5,2.23606797749979,1.0,1.5,15.0,11.0,13.0,{},{}
109,109,15,0,3.633333333333324,6.0,31.144823004794876,3.1622776601683795,6.082762530298219,9.0,9.055385138137416,6.0,21.095023109728988,15.033296378372908,12.0,9.0,12.0,4.5,10.5,4.5,1.5,1.4142135623730951,1.0,1.0,15.0,11.0,13.038404810405298,{},{}
110,110,15,0,3.6666666666666567,6.082762530298219,32.0624390837628,3.0,6.0,8.06225774829855,9.055385138137416,6.082762530298219,21.095023109728988,15.132745950421556,12.0,9.0,11.0,4.0,11.0,4.0,1.0,1.4142135623730951,1.4142135623730951,1.0,14.0,11.0,13.038404810405298,{},{}
111,111,15,0,3.69999999999999,6.0,30.066592756745816,4.123105625617661,5.0,8.06225774829855,9.0,5.0,20.024984394500787,15.033296378372908,12.0,9.0,11.0,5.0,10.0,4.0,1.0,1.4142135623730951,2.0,1.5,15.0,11.0,13.038404810405298,{},{}
112,112,15,0,3.733333333333323,6.0,31.064449134018133,3.1622776601683795,6.0,8.06225774829855,9.055385138137416,5.0990195135927845,20.09975124224178,14.142135623730953,11.0,9.0,11.0,5.0,10.0,3.0,1.0,1.4142135623730951,2.0,1.5,15.0,11.0,13.038404810405298,{},{}
113,113,15,0,3.766666666666656,6.082762530298219,30.14962686336267,3.0,6.0,8.0,9.0,6.0,21.02379604162864,15.033296378372908,12.0,9.0,12.0,4.5,10.5,3.5,1.5,2.23606797749979,1.0,1.5,15.0,11.0,13.038404810405298,{},{}
114,114,15,0,3.7999999999999896,5.0990195135927845,31.144823004794876,3.0,6.0,8.0,9.055385138137416,6.082762530298219,20.09975124224178,14.142135623730953,11.5,9.0,12.0,4.5,9.5,3.5,1.5,2.23606797749979,1.0,1.0,15.0,11.0,13.038404810405298,{},{}
115,115,15,0,3.833333333333323,4.0,31.064449134018133,4.0,6.082762530298219,8.06225774829855,8.06225774829855,6.082762530298219,20.09975124224178,14.0356688476182,12.0,10.0,12.0,5.0,9.0,2.0,1.0,1.0,1.0,1.0,15.0,11.0,14.0356688476182,{},{}
116,116,15,0,3.866666666666656,4.123105625617661,31.064449134018133,4.0,6.0,8.0,8.06225774829855,5.0990195135927845,19.1049731745428,13.152946437965904,11.0,9.0,11.0,5.0,9.0,2.0,1.0,1.4142135623730951,1.0,1.0,15.0,11.0,13.038404810405298,{},{}
117,117,15,0,3.899999999999989,3.0,29.154759474226505,4.0,6.082762530298219,8.06225774829855,8.06225774829855,6.082762530298219,19.1049731745428,13.038404810405298,11.5,9.0,12.0,4.5,8.5,1.5,0.5,1.4142135623730951,1.0,1.5,14.0,11.0,13.038404810405298,{},{}
118,118,15,0,3.9333333333333225,2.23606797749979,29.068883707497267,4.0,6.0,8.06225774829855,8.0,6.0,18.027756377319943,12.041594578792296,11.0,9.0,11.0,4.0,8.0,2.0,0.0,2.23606797749979,1.0,1.0,14.0,11.0,14.0356688476182,{},{}
119,119,15,0,3.966666666666656,3.1622776601683795,29.017236257093817,4.0,6.0,7.0,8.06225774829855,6.0,19.026297590440446,13.038404810405298,11.5,10.0,11.0,4.5,8.5,1.5,0.5,2.0,2.0,2.0,14.0,11.0,13.038404810405298,{},{}
120,120,15,0,3.999999999999989,1.0,29.017236257093817,5.0,7.0,7.0,7.0,6.0,19.0,12.0,11.5,10.0,11.0,4.5,8.5,1.5,0.5,2.23606797749979,3.1622776601683795,2.5,14.0,12.0,14.0,{},{}
121,121,15,0,4.033333333333323,1.0,28.0178514522438,4.0,7.0,7.0,8.0,6.082762530298219,18.027756377319943,11.04536101718726,10.5,10.0,11.0,4.5,7.5,0.5,0.5,3.1622776601683795,3.0,3.0,13.0,11.0,14.0,{},{}
122,122,15,0,4.066666666666656,1.4142135623730951,28.0,4.0,6.0,7.0,7.0,6.0,17.029386365926403,11.04536101718726,10.5,10.0,10.0,4.0,7.0,1.0,0.0,3.0,4.0,3.5,13.0,12.0,14.0,{},{}
123,123,15,0,4.099999999999989,1.4142135623730951,27.018512172212592,4.0,7.0,7.0,7.0,6.0,18.027756377319943,11.04536101718726,10.5,10.0,11.0,4.5,7.5,0.5,0.5,3.0,3.1622776601683795,3.0,13.0,12.0,14.0,{},{}
124,124,15,0,4.133333333333322,2.0,28.0178514522438,4.0,6.0,7.0,8.0,6.0,18.0,12.0,11.0,10.0,11.0,4.5,7.5,0.5,0.5,3.0,3.1622776601683795,3.0,14.0,13.0,14.0,{},{}
125,125,15,0,4.166666666666655,3.0,28.0178514522438,4.0,7.0,7.071067811865476,8.0,6.082762530298219,20.024984394500787,13.038404810405298,11.5,10.0,11.0,4.5,9.5,2.5,0.5,3.1622776601683795,3.0,3.0,13.0,12.0,13.038404810405298,{},{}
126,126,15,0,4.199999999999989,4.0,29.0,4.0,7.0,7.0,8.0,6.082762530298219,21.02379604162864,14.0356688476182,12.0,11.0,11.0,5.0,10.0,2.0,1.0,3.1622776601683795,3.0,3.0,13.0,12.0,13.0,{},{}
127,127,15,0,4.233333333333322,5.0,27.018512172212592,4.0,7.0,8.0,9.0,5.0,21.0,14.0,11.5,10.0,11.0,5.5,10.5,2.5,1.5,3.1622776601683795,3.0,3.0,14.0,12.0,13.038404810405298,{},{}
128,128,15,0,4.266666666666655,6.082762530298219,29.017236257093817,3.0,7.0,9.0,9.0,6.0,22.02271554554524,15.033296378372908,12.0,11.0,12.0,5.5,10.5,2.5,2.5,4.0,3.0,3.0,14.0,12.0,14.0356688476182,{},{}
129,129,15,0,4.299999999999988,6.0,30.0,3.1622776601683795,7.0,8.0,9.0,5.0,21.02379604162864,14.0356688476182,11.0,10.0,10.0,5.0,11.0,3.0,2.0,3.0,4.0,3.5,13.0,12.0,14.0356688476182,{},{}
130,130,15,0,4.3333333333333215,6.0,30.01666203960727,3.0,6.082762530298219,8.06225774829855,9.0,6.0,21.02379604162864,15.0,12.0,10.0,11.0,4.5,10.5,3.5,1.5,3.0,4.123105625617661,3.5,13.0,12.0,12.0,{},{}
131,131,15,0,4.366666666666655,5.0990195135927845,31.016124838541646,3.0,6.0,9.0,9.0,6.0,20.024984394500787,14.0356688476182,11.5,9.0,10.0,3.5,10.5,4.5,1.5,3.0,3.1622776601683795,3.0,13.0,12.0,13.038404810405298,{},{}
132,132,15,0,4.399999999999988,6.082762530298219,30.01666203960727,3.0,6.0,8.0,9.0,5.0,20.024984394500787,14.0356688476182,11.0,9.0,10.0,4.5,10.5,4.5,1.5,3.0,3.1622776601683795,3.0,13.0,12.0,13.0,{},{}
133,133,15,0,4.433333333333321,6.082762530298219,31.016124838541646,3.0,6.0,8.0,8.0,5.0,20.024984394500787,14.0356688476182,11.0,9.0,10.0,4.5,10.5,3.5,1.5,3.0,3.1622776601683795,3.0,14.0,12.0,13.038404810405298,{},{}
134,134,15,0,4.466666666666654,6.0,31.016124838541646,3.1622776601683795,6.0,9.0,9.0,5.0,20.024984394500787,14.0356688476182,11.0,9.0,10.0,4.5,10.5,4.5,1.5,3.0,4.123105625617661,4.0,13.0,12.0,12.0,{},{}
135,135,15,0,4.499999999999988,5.0990195135927845,30.01666203960727,3.0,6.0,8.06225774829855,8.0,5.0,19.026297590440446,13.038404810405298,10.5,8.0,9.0,3.5,10.5,4.5,0.5,4.0,3.1622776601683795,3.0,14.0,12.0,13.038404810405298,{},{}
136,136,15,0,4.533333333333321,5.0,30.01666203960727,3.0,6.0,8.0,8.0,5.0990195135927845,19.026297590440446,13.038404810405298,10.5,8.0,9.0,3.5,10.5,4.5,0.5,3.0,3.1622776601683795,3.5,13.0,12.0,13.038404810405298,{},{}
137,137,15,0,4.566666666666654,5.0990195135927845,30.0,3.0,5.0,8.0,8.0,6.0,19.026297590440446,14.0356688476182,11.5,9.0,9.0,3.0,10.0,4.0,1.0,3.0,4.0,3.5,14.0,13.0,13.0,{},{}
138,138,15,0,4.599999999999987,6.0,30.066592756745816,3.0,5.0,8.06225774829855,9.055385138137416,5.0990195135927845,19.026297590440446,14.0356688476182,11.0,7.0,9.0,3.0,11.0,5.0,0.0,3.1622776601683795,4.0,4.0,14.0,12.0,14.0356688476182,{},{}
139,139,15,0,4.63333333333332,6.0,31.016124838541646,3.0,6.082762530298219,8.06225774829855,9.055385138137416,5.0,20.024984394500787,14.0,11.0,8.0,9.0,3.5,11.5,5.5,0.5,3.0,4.0,4.0,13.0,12.0,14.0,{},{}
140,140,15,0,4.666666666666654,6.0,30.01666203960727,3.0,5.0,8.06225774829855,9.0,5.0,19.0,14.0,11.0,8.0,9.0,3.5,10.5,4.5,0.5,3.0,4.0,4.0,13.0,12.0,14.0356688476182,{},{}
141,141,15,0,4.699999999999987,4.0,30.01666203960727,3.0,6.0,7.071067811865476,8.06225774829855,5.0990195135927845,18.027756377319943,12.041594578792296,10.0,7.0,8.0,2.5,10.5,4.5,0.5,4.0,4.123105625617661,3.5,14.0,12.0,13.038404810405298,{},{}
142,142,15,0,4.73333333333332,4.0,30.066592756745816,3.0,6.082762530298219,8.0,9.055385138137416,5.0,18.027756377319943,12.0,10.0,7.0,9.0,3.0,10.0,4.0,0.0,3.1622776601683795,4.123105625617661,4.0,14.0,12.0,12.041594578792296,{},{}
143,143,15,0,4.766666666666653,3.0,29.017236257093817,3.0,6.0,8.06225774829855,8.0,6.082762530298219,18.027756377319943,12.041594578792296,10.5,8.0,9.0,2.5,9.5,2.5,0.5,3.0,3.1622776601683795,3.0,14.0,11.0,12.16552506059644,{},{}
144,144,15,0,4.7999999999999865,1.0,29.068883707497267,3.0,6.082762530298219,8.0,7.0,7.071067811865476,17.11724276862369,11.04536101718726,10.5,8.0,10.0,2.0,8.0,1.0,1.0,4.0,4.123105625617661,4.0,14.0,12.0,12.041594578792296,{},{}
145,145,15,0,4.83333333333332,1.0,28.0178514522438,3.0,5.0,7.0,7.0,6.082762530298219,15.033296378372908,10.04987562112089,9.5,8.0,9.0,2.5,6.5,0.5,0.5,4.123105625617661,4.123105625617661,4.0,14.0,12.0,13.038404810405298,{},{}
146,146,15,0,4.866666666666653,1.0,28.0178514522438,4.0,6.0,7.0,7.071067811865476,6.0,16.0312195418814,10.04987562112089,10.0,8.0,9.0,2.5,7.5,1.5,0.5,4.123105625617661,4.0,4.0,14.0,12.0,13.038404810405298,{},{}
147,147,15,0,4.899999999999986,2.0,27.018512172212592,3.0,5.0990195135927845,7.071067811865476,7.0,7.071067811865476,17.11724276862369,12.041594578792296,11.0,9.0,10.0,2.5,7.5,1.5,0.5,4.123105625617661,3.0,3.0,14.0,11.0,13.0,{},{}
148,148,15,0,4.933333333333319,4.123105625617661,29.017236257093817,3.0,6.0,8.0,8.0,6.0,19.026297590440446,13.038404810405298,11.0,9.0,10.0,3.5,9.5,2.5,0.5,4.123105625617661,3.0,3.5,13.0,11.0,13.038404810405298,{},{}
149,149,15,0,4.966666666666653,4.123105625617661,28.0713376952364,3.0,6.0,7.071067811865476,8.06225774829855,6.082762530298219,19.1049731745428,13.152946437965904,11.0,8.0,10.0,3.0,10.0,3.0,0.0,3.1622776601683795,3.0,3.5,13.0,11.0,13.038404810405298,{},{}
150,150,15,0,4.999999999999986,4.123105625617661,29.017236257093817,3.0,6.0,8.0,8.0,6.0,19.026297590440446,13.038404810405298,11.0,9.0,10.0,3.5,9.5,2.5,0.5,3.1622776601683795,4.0,4.0,13.0,11.0,13.038404810405298,{},{}
151,151,15,0,5.033333333333319,4.123105625617661,29.017236257093817,3.0,5.0,8.06225774829855,8.0,6.0,18.027756377319943,13.038404810405298,11.0,8.0,9.0,2.5,9.5,3.5,0.5,4.123105625617661,4.0,4.0,14.0,12.0,13.038404810405298,{},{}
152,152,15,0,5.066666666666652,4.123105625617661,29.017236257093817,3.0,5.0,8.06225774829855,9.0,6.0,18.027756377319943,13.038404810405298,11.0,8.0,9.0,2.5,9.5,3.5,0.5,4.123105625617661,4.123105625617661,4.0,14.0,12.0,14.0356688476182,{},{}
153,153,15,0,5.099999999999985,3.1622776601683795,29.017236257093817,3.0,6.0,8.06225774829855,8.0,5.0,17.029386365926403,11.04536101718726,9.5,7.0,8.0,2.5,9.5,3.5,0.5,3.0,4.123105625617661,4.0,13.0,12.0,12.041594578792296,{},{}
154,154,15,0,5.133333333333319,3.0,29.0,3.1622776601683795,6.0,8.0,9.0,5.0,17.029386365926403,11.04536101718726,9.5,7.0,7.0,2.0,10.0,4.0,0.0,4.123105625617661,4.0,4.0,14.0,11.0,13.038404810405298,{},{}
155,155,15,0,5.166666666666652,3.0,30.01666203960727,3.0,6.0,8.0,8.0,6.0,18.0,12.0,10.5,8.0,9.0,2.5,9.5,3.5,0.5,4.123105625617661,3.0,3.5,13.0,12.0,13.038404810405298,{},{}
156,156,15,0,5.199999999999985,3.0,30.01666203960727,3.0,6.0,8.06225774829855,8.0,6.082762530298219,18.027756377319943,12.041594578792296,10.5,7.0,8.0,1.5,10.5,3.5,1.5,3.1622776601683795,4.0,4.0,14.0,12.0,12.041594578792296,{},{}
157,157,15,0,5.233333333333318,3.1622776601683795,29.0,4.0,6.082762530298219,7.0,9.0,5.0990195135927845,18.027756377319943,12.0,10.5,8.0,8.0,3.0,10.0,3.0,0.0,4.0,4.0,4.0,14.0,12.0,13.038404810405298,{},{}
158,158,15,0,5.266666666666652,3.1622776601683795,29.017236257093817,3.0,5.0,8.0,9.0,6.0,17.029386365926403,12.041594578792296,10.5,7.0,8.0,1.5,9.5,3.5,0.5,4.0,4.123105625617661,3.5,13.0,11.0,12.0,{},{}
159,159,15,0,5.299999999999985,3.0,29.017236257093817,3.0,6.0,7.071067811865476,8.06225774829855,5.0990195135927845,17.029386365926403,11.04536101718726,9.5,7.0,8.0,2.5,9.5,3.5,0.5,3.0,3.1622776601683795,3.0,13.0,11.0,13.038404810405298,{},{}
160,160,15,0,5.333333333333318,3.1622776601683795,29.017236257093817,3.0,6.0,8.0,8.06225774829855,5.0,17.029386365926403,11.04536101718726,9.5,7.0,8.0,2.5,9.5,3.5,0.5,3.0,4.0,4.0,13.0,11.0,13.038404810405298,{},{}
161,161,15,0,5.366666666666651,4.0,30.0,3.1622776601683795,5.0,8.06225774829855,9.055385138137416,5.0,17.029386365926403,12.041594578792296,10.0,7.0,7.0,2.0,10.0,4.0,1.0,3.1622776601683795,3.0,3.5,13.0,11.0,13.038404810405298,{},{}
162,162,15,0,5.399999999999984,4.0,30.01666203960727,3.0,5.0,8.0,8.0,6.082762530298219,18.027756377319943,13.038404810405298,11.0,8.0,9.0,2.5,9.5,3.5,0.5,4.0,4.0,4.0,13.0,12.0,13.038404810405298,{},{}
163,163,15,0,5.433333333333318,4.0,30.01666203960727,4.0,5.0,8.0,8.0,5.0,18.0,13.0,11.0,8.0,9.0,3.5,9.5,3.5,0.5,3.1622776601683795,4.0,4.0,14.0,12.0,13.0,{},{}
164,164,15,0,5.466666666666651,4.0,29.0,4.0,5.0990195135927845,8.0,8.0,5.0,18.027756377319943,13.0,11.0,8.0,8.0,3.0,10.0,4.0,0.0,4.0,4.123105625617661,4.0,14.0,11.0,12.16552506059644,{},{}
165,165,15,0,5.499999999999984,5.0990195135927845,29.017236257093817,3.0,6.0,8.0,9.0,5.0,19.026297590440446,13.038404810405298,10.5,8.0,9.0,3.5,10.5,4.5,0.5,3.0,3.1622776601683795,3.5,14.0,12.0,13.038404810405298,{},{}
166,166,15,0,5.533333333333317,5.0,30.01666203960727,3.0,6.0,8.0,9.0,5.0990195135927845,19.026297590440446,13.038404810405298,10.5,8.0,9.0,3.5,10.5,4.5,0.5,2.0,3.0,3.0,13.0,12.0,13.038404810405298,{},{}
167,167,15,0,5.56666666666665,5.0,30.01666203960727,3.0,6.0,8.0,9.0,6.082762530298219,20.024984394500787,14.0356688476182,11.5,9.0,10.0,3.5,10.5,4.5,1.5,1.0,2.0,2.0,14.0,12.0,13.038404810405298,{},{}
168,168,15,0,5.599999999999984,6.0,29.068883707497267,3.0,6.082762530298219,8.06225774829855,8.06225774829855,6.0,21.02379604162864,15.0,12.0,9.0,11.0,4.0,11.0,4.0,1.0,2.23606797749979,2.0,2.0,14.0,12.0,15.033296378372908,{},{}
169,169,15,0,5.633333333333317,7.0,28.0178514522438,3.0,6.082762530298219,8.0,9.0,6.0,22.02271554554524,16.0,12.5,10.0,11.0,4.5,11.5,4.5,1.5,1.0,2.0,1.5,14.0,12.0,13.038404810405298,{},{}
170,170,15,0,5.66666666666665,5.0990195135927845,28.0713376952364,4.0,7.0,7.071067811865476,8.0,6.0,22.02271554554524,15.033296378372908,12.5,10.0,12.0,5.0,11.0,3.0,1.0,1.4142135623730951,2.0,2.0,14.0,11.0,13.038404810405298,{},{}
171,171,15,0,5.699999999999983,6.082762530298219,27.073972741361768,4.0,6.0,7.071067811865476,8.0,6.0,22.02271554554524,16.0312195418814,13.0,11.0,13.0,6.0,10.0,3.0,2.0,2.0,2.0,2.0,15.0,11.0,14.142135623730953,{},{}
172,172,15,0,5.7333333333333165,4.123105625617661,26.1725046566048,3.0,6.0,6.0,8.06225774829855,7.071067811865476,20.09975124224178,14.142135623730953,12.0,10.0,13.0,4.5,8.5,1.5,1.5,2.0,2.0,2.0,15.0,11.0,13.038404810405298,{},{}
173,173,15,0,5.76666666666665,1.0,27.16615541441225,5.0,6.082762530298219,6.082762530298219,7.071067811865476,7.071067811865476,19.1049731745428,13.038404810405298,12.5,10.0,13.0,4.5,7.5,0.5,0.5,2.0,2.0,2.0,15.0,11.0,13.038404810405298,{},{}
174,174,15,0,5.799999999999983,1.0,27.16615541441225,4.0,5.0,7.071067811865476,7.071067811865476,7.0,16.0312195418814,11.04536101718726,11.0,9.0,12.0,3.5,5.5,0.5,0.5,2.23606797749979,1.0,1.5,15.0,11.0,13.038404810405298,{},{}
175,175,15,0,5.833333333333316,1.0,27.16615541441225,4.0,6.0,6.082762530298219,6.082762530298219,6.082762530298219,16.1245154965971,10.198039027185567,10.0,9.0,12.0,4.5,5.5,0.5,0.5,2.23606797749979,1.0,1.5,15.0,11.0,13.038404810405298,{},{}
176,176,15,0,5.866666666666649,0.0,27.16615541441225,4.0,6.082762530298219,6.082762530298219,7.071067811865476,6.082762530298219,16.1245154965971,10.04987562112089,10.0,9.0,12.0,4.5,5.5,1.5,0.5,1.4142135623730951,1.0,1.5,14.0,10.0,13.038404810405298,{},{}
177,177,15,0,5.899999999999983,0.0,27.16615541441225,3.0,6.082762530298219,7.0,7.071067811865476,7.071067811865476,16.1245154965971,10.04987562112089,10.0,9.0,12.0,3.5,5.5,0.5,0.5,1.0,2.0,2.0,14.0,10.0,13.152946437965904,{},{}
178,178,15,0,5.933333333333316,3.0,27.16615541441225,4.123105625617661,6.082762530298219,7.0,7.071067811865476,6.0,19.1049731745428,13.038404810405298,11.5,9.0,12.0,4.5,8.5,1.5,0.5,2.23606797749979,2.0,1.5,14.0,10.0,13.152946437965904,{},{}
179,179,15,0,5.966666666666649,4.123105625617661,27.16615541441225,4.0,7.071067811865476,7.071067811865476,8.0,6.0,21.095023109728988,14.0356688476182,12.0,10.0,13.0,5.5,9.5,1.5,1.5,2.23606797749979,2.0,1.5,14.0,10.0,13.038404810405298,{},{}
180,180,15,0,5.999999999999982,4.123105625617661,28.16025568065745,4.0,6.0,8.06225774829855,8.0,6.082762530298219,20.09975124224178,14.142135623730953,12.0,10.0,13.0,5.5,8.5,1.5,1.5,1.4142135623730951,2.0,2.0,15.0,11.0,13.038404810405298,{},{}
181,181,15,0,6.033333333333316,4.0,29.068883707497267,4.0,6.082762530298219,8.06225774829855,8.06225774829855,5.0990195135927845,19.1049731745428,13.038404810405298,11.0,9.0,11.0,5.0,9.0,2.0,1.0,3.0,3.0,2.5,15.0,10.0,13.152946437965904,{},{}
182,182,15,0,6.066666666666649,4.123105625617661,29.154759474226505,4.0,6.0,8.06225774829855,8.06225774829855,5.0990195135927845,19.1049731745428,13.152946437965904,11.0,9.0,12.0,5.5,8.5,1.5,1.5,3.1622776601683795,2.0,2.5,14.0,10.0,13.038404810405298,{},{}
183,183,15,0,6.099999999999982,3.1622776601683795,28.16025568065745,4.0,6.0,8.06225774829855,8.06225774829855,6.082762530298219,19.1049731745428,13.152946437965904,11.5,9.0,12.0,4.5,8.5,2.5,0.5,3.1622776601683795,3.0,3.0,14.0,9.0,13.038404810405298,{},{}
184,184,15,0,6.133333333333315,4.123105625617661,29.154759474226505,3.0,6.082762530298219,8.06225774829855,8.06225774829855,6.082762530298219,19.235384061671343,13.152946437965904,11.0,8.0,11.0,3.5,9.5,2.5,0.5,2.23606797749979,3.0,3.0,15.0,10.0,13.152946437965904,{},{}
185,185,15,0,6.166666666666648,4.123105625617661,29.154759474226505,4.0,6.082762530298219,7.071067811865476,9.055385138137416,6.082762530298219,20.223748416156685,14.142135623730953,12.0,9.0,12.0,4.5,9.5,2.5,0.5,4.123105625617661,3.0,3.5,14.0,9.0,12.16552506059644,{},{}
186,186,15,0,6.1999999999999815,5.0,29.27456233660889,4.123105625617661,6.082762530298219,7.071067811865476,8.06225774829855,5.0,20.09975124224178,14.0356688476182,11.5,8.0,12.0,5.0,10.0,3.0,1.0,3.1622776601683795,3.0,3.0,15.0,10.0,12.16552506059644,{},{}
187,187,15,0,6.233333333333315,5.0,29.27456233660889,3.1622776601683795,5.0990195135927845,7.071067811865476,8.06225774829855,6.0,19.1049731745428,14.0356688476182,11.5,8.0,12.0,4.0,9.0,3.0,1.0,3.1622776601683795,4.0,3.5,15.0,10.0,12.16552506059644,{},{}
188,188,15,0,6.266666666666648,5.0,29.154759474226505,3.1622776601683795,6.082762530298219,7.071067811865476,8.06225774829855,6.0,20.09975124224178,14.0356688476182,11.5,8.0,11.0,3.5,10.5,3.5,0.5,3.1622776601683795,4.0,3.5,15.0,10.0,12.16552506059644,{},{}
189,189,15,0,6.299999999999981,4.0,28.284271247461906,3.1622776601683795,6.082762530298219,7.071067811865476,8.06225774829855,6.0,19.1049731745428,13.038404810405298,11.0,8.0,12.0,4.0,9.0,3.0,1.0,4.123105625617661,4.0,3.5,15.0,10.0,12.041594578792296,{},{}
190,190,15,0,6.333333333333314,2.23606797749979,28.284271247461906,4.0,6.0,6.082762530298219,8.06225774829855,6.082762530298219,18.110770276274835,12.16552506059644,11.0,8.0,12.0,4.0,8.0,2.0,0.0,4.123105625617661,4.0,3.5,15.0,10.0,13.038404810405298,{},{}
191,191,15,0,6.366666666666648,1.4142135623730951,27.16615541441225,4.0,6.0,6.082762530298219,7.071067811865476,6.082762530298219,17.11724276862369,11.180339887498947,10.5,9.0,12.0,4.5,6.5,0.5,0.5,4.0,3.0,3.5,15.0,10.0,13.038404810405298,{},{}
192,192,15,0,6.399999999999981,1.0,27.16615541441225,4.0,6.082762530298219,6.082762530298219,7.071067811865476,6.082762530298219,17.11724276862369,11.04536101718726,10.5,8.0,11.0,3.5,7.5,0.5,0.5,3.0,3.0,3.0,15.0,10.0,13.152946437965904,{},{}
193,193,15,0,6.433333333333314,1.4142135623730951,28.16025568065745,4.0,6.0,7.071067811865476,7.071067811865476,6.082762530298219,17.11724276862369,11.180339887498947,10.5,8.0,11.0,3.5,7.5,0.5,0.5,3.1622776601683795,3.0,3.0,14.0,9.0,13.152946437965904,{},{}
194,194,15,0,6.466666666666647,3.1622776601683795,27.16615541441225,4.0,6.0,7.0,8.06225774829855,6.082762530298219,19.1049731745428,13.152946437965904,11.5,9.0,12.0,4.5,8.5,1.5,0.5,3.1622776601683795,3.0,3.0,15.0,10.0,13.152946437965904,{},{}
195,195,15,0,6.4999999999999805,3.1622776601683795,28.16025568065745,4.0,6.0,8.06225774829855,8.0,5.0990195135927845,18.110770276274835,12.16552506059644,10.5,9.0,12.0,5.5,7.5,0.5,0.5,3.1622776601683795,3.0,3.0,14.0,9.0,13.152946437965904,{},{}
196,196,15,0,6.533333333333314,3.1622776601683795,28.16025568065745,4.0,7.0,8.0,8.06225774829855,5.0990195135927845,19.1049731745428,12.16552506059644,10.5,9.0,12.0,5.5,8.5,0.5,1.5,3.1622776601683795,4.0,3.5,15.0,10.0,13.152946437965904,{},{}
197,197,15,0,6.566666666666647,1.0,28.16025568065745,5.0,8.06225774829855,7.071067811865476,8.06225774829855,5.0990195135927845,19.1049731745428,11.04536101718726,10.5,9.0,12.0,5.5,8.5,0.5,0.5,3.1622776601683795,3.0,3.0,15.0,10.0,13.152946437965904,{},{}
198,198,15,0,6.59999999999998,2.23606797749979,28.16025568065745,4.0,6.0,7.071067811865476,8.06225774829855,6.0,18.027756377319943,12.041594578792296,11.0,9.0,12.0,4.5,7.5,0.5,0.5,3.0,3.0,3.0,14.0,10.0,13.152946437965904,{},{}
199,199,15,0,6.633333333333313,0.0,27.073972741361768,4.0,6.082762530298219,7.071067811865476,7.071067811865476,7.071067811865476,17.11724276862369,11.04536101718726,11.0,10.0,12.0,4.0,6.0,0.0,0.0,3.1622776601683795,3.0,3.0,14.0,10.0,13.038404810405298,{},{}
200,200,15,0,6.666666666666647,1.4142135623730951,27.073972741361768,4.0,6.0,7.0,7.071067811865476,6.0,17.029386365926403,11.04536101718726,10.5,10.0,12.0,5.0,6.0,0.0,1.0,3.1622776601683795,3.0,3.0,14.0,10.0,13.038404810405298,{},{}
201,201,15,0,6.69999999999998,1.0,26.019223662515376,4.0,6.082762530298219,6.0,7.071067811865476,6.082762530298219,17.11724276862369,11.04536101718726,10.5,10.0,11.0,4.5,6.5,0.5,0.5,3.0,3.0,3.0,14.0,11.0,13.038404810405298,{},{}
202,202,15,0,6.733333333333313,2.0,27.018512172212592,4.0,7.0,7.0,8.0,6.082762530298219,19.026297590440446,12.041594578792296,11.0,10.0,11.0,4.5,8.5,0.5,0.5,3.1622776601683795,3.0,3.0,14.0,11.0,13.152946437965904,{},{}
203,203,15,0,6.766666666666646,2.0,26.019223662515376,4.0,7.0,7.071067811865476,7.071067811865476,6.082762530298219,19.026297590440446,12.041594578792296,11.0,10.0,11.0,4.5,8.5,1.5,0.5,3.0,4.0,4.0,14.0,12.0,14.0356688476182,{},{}
204,204,15,0,6.799999999999979,3.0,26.019223662515376,3.0,7.0,7.0,8.0,6.082762530298219,19.026297590440446,12.041594578792296,10.5,10.0,11.0,4.5,8.5,0.5,1.5,3.1622776601683795,4.0,4.0,14.0,12.0,14.0356688476182,{},{}
205,205,15,0,6.833333333333313,3.0,27.018512172212592,3.0,7.0,8.0,8.0,6.082762530298219,19.026297590440446,12.041594578792296,10.5,10.0,11.0,4.5,8.5,1.5,1.5,3.1622776601683795,3.0,3.0,14.0,12.0,13.038404810405298,{},{}
206,206,15,0,6.866666666666646,3.1622776601683795,27.073972741361768,4.0,6.0,7.0,8.0,5.0,18.027756377319943,12.041594578792296,10.5,9.0,11.0,5.0,8.0,1.0,1.0,4.123105625617661,3.0,3.0,14.0,12.0,14.0356688476182,{},{}
207,207,15,0,6.899999999999979,3.0,28.0178514522438,4.0,6.0,8.06225774829855,8.06225774829855,5.0990195135927845,18.027756377319943,12.041594578792296,10.5,9.0,10.0,4.5,8.5,1.5,0.5,3.1622776601683795,4.0,4.0,14.0,11.0,12.041594578792296,{},{}
208,208,15,0,6.933333333333312,4.0,28.0713376952364,4.0,6.0,8.06225774829855,7.0,5.0990195135927845,19.026297590440446,13.038404810405298,11.0,9.0,11.0,5.0,9.0,2.0,1.0,4.123105625617661,4.0,3.5,14.0,11.0,13.038404810405298,{},{}
209,209,15,0,6.9666666666666455,5.0,27.018512172212592,3.0,6.082762530298219,8.0,8.0,6.0,20.024984394500787,14.0,11.5,10.0,11.0,4.5,9.5,2.5,1.5,4.0,5.0990195135927845,4.5,14.0,12.0,13.038404810405298,{},{}
210,210,15,0,6.999999999999979,4.123105625617661,28.0713376952364,3.0,6.0,7.0,8.0,6.0,19.026297590440446,13.038404810405298,11.0,9.0,11.0,4.0,9.0,3.0,1.0,4.0,4.123105625617661,3.5,14.0,12.0,13.038404810405298,{},{}
211,211,15,0,7.033333333333312,4.0,28.0178514522438,3.0,6.0,7.0,8.06225774829855,6.082762530298219,19.026297590440446,13.038404810405298,11.0,9.0,10.0,3.5,9.5,2.5,0.5,4.0,4.0,4.0,13.0,11.0,13.038404810405298,{},{}
212,212,15,0,7.066666666666645,3.0,28.0713376952364,4.123105625617661,6.0,7.071067811865476,8.0,5.0,18.027756377319943,12.041594578792296,10.5,8.0,10.0,4.0,9.0,3.0,0.0,3.0,4.123105625617661,4.0,14.0,11.0,13.038404810405298,{},{}
213,213,15,0,7.099999999999978,3.0,28.0713376952364,4.0,6.0,7.0,8.0,5.0990195135927845,18.027756377319943,12.041594578792296,10.5,8.0,10.0,4.0,9.0,2.0,1.0,4.123105625617661,4.123105625617661,4.0,14.0,11.0,14.0356688476182,{},{}
214,214,15,0,7.133333333333312,3.0,28.0713376952364,4.0,6.0,6.0,7.0,5.0990195135927845,18.027756377319943,12.041594578792296,10.5,8.0,10.0,4.0,9.0,2.0,1.0,4.123105625617661,4.123105625617661,4.0,14.0,11.0,13.152946437965904,{},{}
215,215,15,0,7.166666666666645,3.0,28.0713376952364,4.0,6.0,6.0,7.0,5.0990195135927845,18.027756377319943,12.041594578792296,10.5,8.0,10.0,4.0,9.0,2.0,1.0,4.123105625617661,4.0,4.0,14.0,11.0,12.041594578792296,{},{}
216,216,15,0,7.199999999999978,3.0,28.0178514522438,3.0,6.0,8.06225774829855,8.0,6.082762530298219,18.027756377319943,12.041594578792296,10.5,9.0,10.0,3.5,8.5,1.5,0.5,4.0,4.0,4.0,14.0,11.0,13.038404810405298,{},{}
217,217,15,0,7.233333333333311,3.0,28.0178514522438,3.0,6.0,7.0,8.0,6.082762530298219,18.027756377319943,12.041594578792296,10.5,9.0,10.0,3.5,8.5,2.5,0.5,4.0,4.0,4.0,14.0,12.0,13.0,{},{}
218,218,15,0,7.266666666666644,4.0,28.0713376952364,3.0,6.082762530298219,8.0,7.0,6.0,19.026297590440446,13.0,11.0,9.0,11.0,4.0,9.0,2.0,1.0,4.123105625617661,4.123105625617661,4.0,14.0,12.0,14.0356688476182,{},{}
219,219,15,0,7.299999999999978,5.0,28.0178514522438,3.0,7.0,7.0,8.0,5.0990195135927845,20.024984394500787,13.038404810405298,10.5,9.0,10.0,4.5,10.5,3.5,1.5,4.0,4.0,4.0,14.0,12.0,13.038404810405298,{},{}
220,220,15,0,7.333333333333311,5.0,28.0713376952364,4.0,7.0,7.071067811865476,8.0,6.082762530298219,22.02271554554524,15.033296378372908,12.5,10.0,12.0,5.0,11.0,4.0,1.0,4.123105625617661,3.0,3.0,14.0,11.0,14.0356688476182,{},{}
221,221,15,0,7.366666666666644,5.0,28.0713376952364,4.0,6.082762530298219,8.06225774829855,8.0,5.0990195135927845,20.09975124224178,14.0356688476182,11.5,9.0,11.0,5.0,10.0,3.0,1.0,4.0,4.0,4.0,14.0,11.0,13.038404810405298,{},{}
222,222,15,0,7.399999999999977,5.0,28.0178514522438,4.0,6.082762530298219,8.0,8.06225774829855,5.0990195135927845,20.09975124224178,14.0356688476182,11.5,9.0,10.0,4.5,10.5,3.5,1.5,4.123105625617661,4.0,4.0,14.0,12.0,13.038404810405298,{},{}
223,223,15,0,7.4333333333333105,5.0,28.0713376952364,3.0,6.082762530298219,8.0,8.06225774829855,6.082762530298219,20.09975124224178,14.0356688476182,11.5,9.0,11.0,4.0,10.0,3.0,1.0,4.123105625617661,4.0,4.0,14.0,12.0,14.0356688476182,{},{}
224,224,15,0,7.466666666666644,4.0,28.0178514522438,4.0,6.082762530298219,7.0,7.0,5.0,19.026297590440446,13.0,11.0,9.0,10.0,4.5,9.5,2.5,0.5,3.1622776601683795,4.0,4.0,15.0,12.0,13.038404810405298,{},{}
225,225,15,0,7.499999999999977,3.0,27.018512172212592,4.0,6.0,7.071067811865476,8.0,6.082762530298219,19.026297590440446,13.038404810405298,11.5,10.0,11.0,4.5,8.5,2.5,0.5,4.0,4.123105625617661,4.0,15.0,12.0,14.0356688476182,{},{}
226,226,15,0,7.53333333333331,3.0,26.0768096208106,4.0,6.0,6.082762530298219,6.082762530298219,6.082762530298219,19.026297590440446,13.038404810405298,11.5,9.0,11.0,4.0,9.0,2.0,0.0,4.123105625617661,4.123105625617661,4.0,16.0,13.0,14.0356688476182,{},{}
227,227,15,0,7.566666666666643,2.0,25.019992006393608,4.0,7.0,6.082762530298219,6.082762530298219,6.082762530298219,19.026297590440446,12.041594578792296,11.0,10.0,11.0,4.5,8.5,1.5,0.5,4.0,5.0,5.0,17.0,14.0,14.0356688476182,{},{}
228,228,15,0,7.599999999999976,3.1622776601683795,24.020824298928627,4.0,7.0,5.0,5.0990195135927845,6.082762530298219,20.0,13.0,11.5,11.0,12.0,5.5,8.5,1.5,1.5,4.123105625617661,4.0,4.0,16.0,13.0,15.033296378372908,{},{}
229,229,15,0,7.63333333333331,2.0,23.021728866442675,4.0,7.0,5.0,6.082762530298219,7.0,20.0,13.0,12.0,12.0,13.0,5.5,7.5,0.5,1.5,3.1622776601683795,4.0,4.0,17.0,14.0,15.033296378372908,{},{}
230,230,15,0,7.666666666666643,2.0,22.0,5.0,7.0,6.082762530298219,6.082762530298219,6.0,20.0,13.0,12.0,12.0,12.0,6.0,8.0,1.0,1.0,4.123105625617661,4.123105625617661,4.0,16.0,13.0,14.0,{},{}
231,231,15,0,7.699999999999976,2.0,22.0,5.0,7.0,5.0990195135927845,6.0,6.082762530298219,20.024984394500787,13.038404810405298,12.0,12.0,12.0,6.0,8.0,0.0,1.0,4.123105625617661,4.123105625617661,4.0,16.0,14.0,14.0356688476182,{},{}
232,232,15,0,7.733333333333309,2.0,22.02271554554524,4.0,7.0,5.0990195135927845,7.0,7.0,20.0,13.0,12.0,12.0,13.0,5.5,7.5,0.5,1.5,4.0,4.123105625617661,4.0,16.0,14.0,14.0356688476182,{},{}
233,233,15,0,7.766666666666643,3.0,23.021728866442675,4.0,7.0,5.0,6.0,7.0,21.0,14.0,12.5,12.0,13.0,5.5,8.5,1.5,1.5,4.0,4.123105625617661,4.0,16.0,14.0,15.033296378372908,{},{}
234,234,15,0,7.799999999999976,5.0,23.0,5.0990195135927845,7.0,7.071067811865476,7.0,6.0,23.021728866442675,16.0312195418814,13.5,13.0,13.0,7.0,10.0,2.0,2.0,4.123105625617661,4.0,4.0,16.0,14.0,15.0,{},{}
235,235,15,0,7.833333333333309,6.0,25.0,5.0,8.0,6.0,8.0,6.082762530298219,25.019992006393608,17.029386365926403,14.0,14.0,14.0,8.0,11.0,2.0,3.0,4.0,5.0,4.5,16.0,14.0,14.0356688476182,{},{}
236,236,15,0,7.866666666666642,5.0,24.020824298928627,5.0,8.0,7.0,7.0,7.071067811865476,25.019992006393608,17.029386365926403,14.5,14.0,15.0,7.5,10.5,1.5,3.5,4.123105625617661,4.0,4.0,15.0,14.0,14.0,{},{}
237,237,15,0,7.899999999999975,4.123105625617661,24.08318915758459,5.0,8.0,7.071067811865476,7.0,6.082762530298219,23.08679276123039,15.132745950421556,13.0,12.0,14.0,7.0,10.0,1.0,2.0,4.0,4.0,4.0,15.0,13.0,13.0,{},{}
238,238,15,0,7.933333333333309,3.0,25.019992006393608,4.0,7.0,7.0,8.0,7.280109889280518,21.095023109728988,14.142135623730953,12.5,12.0,13.0,5.5,8.5,1.5,1.5,4.123105625617661,5.0,4.5,16.0,13.0,15.033296378372908,{},{}
239,239,15,0,7.966666666666642,3.0,25.079872407968907,4.0,7.0,6.0,7.0,7.071067811865476,21.02379604162864,14.0356688476182,12.5,11.0,13.0,5.0,9.0,2.0,1.0,4.123105625617661,4.0,4.5,16.0,14.0,14.0356688476182,{},{}
240,240,15,0,7.999999999999975,3.0,25.079872407968907,4.0,7.0,6.082762530298219,7.071067811865476,7.071067811865476,21.02379604162864,14.0356688476182,12.5,11.0,13.0,5.0,9.0,1.0,1.0,5.0990195135927845,5.0,5.0,15.0,13.0,14.0,{},{}
241,241,15,0,8.033333333333308,3.0,23.08679276123039,5.0,7.0,6.082762530298219,7.0,6.082762530298219,21.02379604162864,14.0356688476182,12.5,11.0,13.0,6.0,9.0,1.0,1.0,4.123105625617661,5.0,5.0,16.0,14.0,14.0356688476182,{},{}
242,242,15,0,8.066666666666642,3.0,24.08318915758459,5.0,7.0,6.0,7.071067811865476,6.082762530298219,21.02379604162864,14.0356688476182,12.5,11.0,13.0,6.0,9.0,1.0,2.0,4.123105625617661,4.0,4.0,15.0,13.0,13.038404810405298,{},{}
243,243,15,0,8.099999999999975,4.0,24.08318915758459,4.0,7.0,6.0,7.0,6.082762530298219,21.02379604162864,14.0356688476182,12.0,11.0,13.0,6.0,9.0,1.0,2.0,4.123105625617661,4.123105625617661,4.0,15.0,13.0,14.0356688476182,{},{}
244,244,15,0,8.133333333333308,3.0,24.020824298928627,4.0,8.0,6.0,7.0,7.071067811865476,22.02271554554524,14.0356688476182,12.5,12.0,13.0,5.5,9.5,1.5,1.5,4.123105625617661,5.0,4.5,15.0,13.0,14.0,{},{}
245,245,15,0,8.166666666666641,3.0,24.020824298928627,4.0,7.071067811865476,6.082762530298219,7.0,7.071067811865476,21.095023109728988,14.0356688476182,12.5,12.0,13.0,5.5,8.5,1.5,1.5,4.123105625617661,4.0,4.0,15.0,13.0,14.0,{},{}
246,246,15,0,8.199999999999974,2.0,25.079872407968907,5.0,8.0,6.0,7.0,6.082762530298219,21.02379604162864,13.038404810405298,12.0,11.0,13.0,6.0,9.0,1.0,2.0,4.123105625617661,5.0990195135927845,4.5,14.0,12.0,14.0356688476182,{},{}
247,247,15,0,8.233333333333308,3.0,24.020824298928627,4.0,7.0,6.082762530298219,7.071067811865476,6.082762530298219,20.024984394500787,13.038404810405298,11.5,11.0,12.0,5.5,8.5,1.5,1.5,4.123105625617661,5.0,4.5,15.0,13.0,14.0,{},{}
248,248,15,0,8.26666666666664,3.0,25.019992006393608,5.0,7.0,7.071067811865476,7.071067811865476,6.082762530298219,21.02379604162864,14.0356688476182,12.5,12.0,13.0,6.5,8.5,0.5,1.5,3.0,3.0,3.0,15.0,13.0,14.0,{},{}
249,249,15,0,8.299999999999974,3.0,25.019992006393608,5.0,7.0,6.082762530298219,7.071067811865476,6.082762530298219,21.02379604162864,14.0356688476182,12.5,12.0,13.0,6.5,8.5,0.5,1.5,2.0,3.0,3.0,15.0,13.0,14.0356688476182,{},{}
250,250,15,0,8.333333333333307,3.0,26.019223662515376,5.0,8.0,6.082762530298219,7.071067811865476,6.082762530298219,22.02271554554524,14.0356688476182,12.5,12.0,13.0,6.5,9.5,1.5,1.5,3.0,2.0,2.0,15.0,13.0,14.0356688476182,{},{}
251,251,15,0,8.36666666666664,5.0990195135927845,27.018512172212592,4.0,7.0,7.0,8.0,6.0,22.02271554554524,15.033296378372908,12.5,12.0,13.0,6.5,9.5,1.5,2.5,3.1622776601683795,2.0,2.5,15.0,13.0,14.0356688476182,{},{}
252,252,15,0,8.399999999999974,6.0,27.018512172212592,4.0,7.0,7.071067811865476,8.06225774829855,6.082762530298219,23.021728866442675,16.0312195418814,13.0,12.0,13.0,6.5,10.5,2.5,2.5,3.1622776601683795,2.0,2.5,15.0,13.0,13.038404810405298,{},{}
253,253,15,0,8.433333333333307,6.0,27.018512172212592,5.0,7.0,7.071067811865476,8.06225774829855,5.0990195135927845,23.021728866442675,16.0312195418814,13.0,12.0,13.0,7.5,10.5,2.5,2.5,2.23606797749979,2.0,2.5,14.0,12.0,13.038404810405298,{},{}
254,254,15,0,8.46666666666664,7.0,27.073972741361768,4.0,7.071067811865476,8.0,8.06225774829855,6.0,24.020824298928627,17.0,13.5,12.0,14.0,7.0,11.0,3.0,3.0,3.1622776601683795,2.0,2.0,15.0,12.0,13.038404810405298,{},{}
255,255,15,0,8.499999999999973,6.082762530298219,28.0178514522438,5.0,7.0,8.06225774829855,8.0,6.082762530298219,24.08318915758459,17.11724276862369,14.0,13.0,14.0,7.5,10.5,3.5,2.5,2.0,2.0,2.5,14.0,12.0,13.0,{},{}
256,256,15,0,8.533333333333307,7.071067811865476,28.0713376952364,4.0,7.0,8.06225774829855,8.0,6.082762530298219,24.08318915758459,17.11724276862369,13.5,11.0,13.0,6.0,12.0,4.0,2.0,1.4142135623730951,2.0,2.0,15.0,13.0,14.0356688476182,{},{}
257,257,15,0,8.56666666666664,6.0,28.0713376952364,4.0,7.071067811865476,8.0,9.0,6.082762530298219,23.08679276123039,16.0312195418814,13.0,12.0,14.0,7.0,10.0,3.0,3.0,2.0,2.0,2.0,14.0,12.0,13.038404810405298,{},{}
258,258,15,0,8.599999999999973,7.0,28.0713376952364,4.123105625617661,7.0,7.071067811865476,9.055385138137416,5.0,23.021728866442675,16.0312195418814,12.5,11.0,13.0,7.0,11.0,3.0,2.0,1.0,2.0,2.0,15.0,12.0,13.038404810405298,{},{}
259,259,15,0,8.633333333333306,6.0,28.0713376952364,4.123105625617661,7.071067811865476,7.0,9.0,6.0,23.08679276123039,16.0312195418814,13.0,12.0,14.0,7.0,10.0,2.0,3.0,1.0,2.0,1.5,14.0,12.0,13.038404810405298,{},{}
260,260,15,0,8.66666666666664,5.0,27.073972741361768,4.123105625617661,8.06225774829855,7.071067811865476,9.055385138137416,6.0,23.08679276123039,15.033296378372908,12.5,12.0,14.0,7.0,10.0,2.0,2.0,2.23606797749979,3.0,2.5,14.0,12.0,13.038404810405298,{},{}
261,261,15,0,8.699999999999973,5.0,28.0713376952364,4.0,8.06225774829855,8.0,9.0,5.0990195135927845,22.09072203437452,14.0356688476182,11.5,11.0,13.0,7.0,10.0,1.0,3.0,2.0,3.0,2.5,14.0,11.0,13.038404810405298,{},{}
262,262,15,0,8.733333333333306,5.0,28.0713376952364,4.0,7.071067811865476,8.06225774829855,8.06225774829855,5.0990195135927845,21.095023109728988,14.0356688476182,11.5,11.0,13.0,7.0,9.0,1.0,2.0,2.23606797749979,3.0,2.5,14.0,11.0,14.0356688476182,{},{}
263,263,15,0,8.766666666666639,4.123105625617661,28.0713376952364,4.0,7.0,7.0,8.06225774829855,6.082762530298219,21.095023109728988,14.142135623730953,12.0,11.0,13.0,6.0,9.0,1.0,2.0,2.23606797749979,3.0,3.0,15.0,12.0,13.038404810405298,{},{}
264,264,15,0,8.799999999999972,4.0,27.073972741361768,3.0,7.071067811865476,7.0,8.06225774829855,6.082762530298219,20.09975124224178,13.038404810405298,11.0,10.0,12.0,5.0,9.0,2.0,2.0,3.1622776601683795,3.0,3.0,14.0,11.0,14.0356688476182,{},{}
265,265,15,0,8.833333333333306,4.0,27.16615541441225,4.0,6.0,7.071067811865476,7.071067811865476,6.082762530298219,20.024984394500787,14.0356688476182,12.0,10.0,13.0,5.5,8.5,1.5,1.5,3.1622776601683795,3.0,3.0,15.0,11.0,12.16552506059644,{},{}
266,266,15,0,8.866666666666639,3.0,27.16615541441225,4.0,7.071067811865476,7.071067811865476,8.06225774829855,6.082762530298219,20.09975124224178,13.038404810405298,11.5,10.0,13.0,5.5,8.5,0.5,1.5,3.1622776601683795,4.123105625617661,3.5,15.0,11.0,13.038404810405298,{},{}
267,267,15,0,8.899999999999972,4.0,27.16615541441225,4.0,7.071067811865476,6.082762530298219,8.06225774829855,6.082762530298219,21.095023109728988,14.0356688476182,12.0,10.0,13.0,5.5,9.5,1.5,1.5,3.1622776601683795,3.1622776601683795,3.0,15.0,12.0,12.041594578792296,{},{}
268,268,15,0,8.933333333333305,3.1622776601683795,27.16615541441225,4.0,8.0,8.06225774829855,8.06225774829855,6.082762530298219,21.095023109728988,13.152946437965904,11.5,10.0,13.0,5.5,9.5,1.5,1.5,3.0,3.0,3.0,14.0,11.0,13.038404810405298,{},{}
269,269,15,0,8.966666666666638,4.0,28.16025568065745,4.123105625617661,7.071067811865476,7.071067811865476,9.055385138137416,6.082762530298219,21.213203435596427,14.142135623730953,12.0,10.0,13.0,5.5,9.5,1.5,1.5,3.1622776601683795,3.0,3.0,14.0,11.0,12.041594578792296,{},{}
270,270,15,0,8.999999999999972,3.1622776601683795,28.0713376952364,4.0,7.0,7.071067811865476,8.06225774829855,6.082762530298219,20.09975124224178,13.152946437965904,11.5,10.0,12.0,5.0,9.0,1.0,1.0,3.0,4.0,3.5,15.0,11.0,12.041594578792296,{},{}
271,271,15,0,9.033333333333305,4.123105625617661,28.16025568065745,4.0,7.0,8.0,8.06225774829855,5.0990195135927845,20.09975124224178,13.152946437965904,11.0,9.0,12.0,5.5,9.5,1.5,1.5,3.0,4.0,3.5,14.0,11.0,13.038404810405298,{},{}
272,272,15,0,9.066666666666638,3.1622776601683795,28.16025568065745,4.0,7.0,7.071067811865476,8.0,6.082762530298219,20.09975124224178,13.152946437965904,11.5,10.0,13.0,5.5,8.5,1.5,1.5,3.1622776601683795,4.0,4.0,15.0,12.0,13.038404810405298,{},{}
273,273,15,0,9.099999999999971,3.0,29.154759474226505,4.0,7.071067811865476,8.06225774829855,8.0,6.082762530298219,20.09975124224178,13.038404810405298,11.5,10.0,13.0,5.5,8.5,0.5,1.5,4.123105625617661,3.0,3.0,15.0,12.0,13.038404810405298,{},{}
274,274,15,0,9.133333333333304,4.123105625617661,29.154759474226505,4.0,7.0,8.0,8.06225774829855,5.0990195135927845,20.09975124224178,13.152946437965904,11.0,9.0,12.0,5.5,9.5,1.5,1.5,3.1622776601683795,3.1622776601683795,3.0,14.0,11.0,13.152946437965904,{},{}
275,275,15,0,9.166666666666638,4.0,29.154759474226505,4.0,7.071067811865476,8.06225774829855,8.06225774829855,5.0990195135927845,20.09975124224178,13.038404810405298,11.0,9.0,12.0,5.5,9.5,1.5,1.5,3.1622776601683795,4.123105625617661,3.5,15.0,11.0,13.152946437965904,{},{}
276,276,15,0,9.19999999999997,3.0,29.154759474226505,4.0,7.071067811865476,8.06225774829855,9.055385138137416,6.082762530298219,20.09975124224178,13.038404810405298,11.5,10.0,13.0,5.5,8.5,0.5,1.5,3.0,3.0,3.5,15.0,11.0,13.038404810405298,{},{}
277,277,15,0,9.233333333333304,4.0,29.068883707497267,4.123105625617661,7.071067811865476,7.0,9.055385138137416,5.0990195135927845,20.223748416156685,13.152946437965904,11.0,10.0,12.0,6.0,9.0,1.0,2.0,4.0,3.0,3.0,15.0,12.0,13.038404810405298,{},{}
278,278,15,0,9.266666666666636,4.123105625617661,29.068883707497267,4.0,7.0,7.0,8.06225774829855,5.0990195135927845,20.09975124224178,13.152946437965904,11.0,10.0,12.0,6.0,9.0,1.0,2.0,4.123105625617661,3.0,3.0,15.0,12.0,13.038404810405298,{},{}
279,279,15,0,9.29999999999997,4.0,29.154759474226505,4.123105625617661,7.071067811865476,7.0,9.0,5.0,20.09975124224178,13.038404810405298,11.0,9.0,12.0,5.5,9.5,1.5,1.5,3.0,3.0,3.0,15.0,12.0,12.041594578792296,{},{}
280,280,15,0,9.333333333333304,3.0,29.154759474226505,4.123105625617661,7.071067811865476,7.0,8.06225774829855,5.0,19.1049731745428,12.041594578792296,10.5,9.0,12.0,5.5,8.5,0.5,1.5,4.123105625617661,4.0,4.0,15.0,12.0,13.038404810405298,{},{}
281,281,15,0,9.366666666666635,3.1622776601683795,28.0713376952364,4.0,6.0,7.071067811865476,8.0,5.0990195135927845,18.110770276274835,12.16552506059644,10.5,9.0,11.0,5.0,8.0,1.0,1.0,3.1622776601683795,3.0,3.0,14.0,12.0,13.038404810405298,{},{}
282,282,15,0,9.39999999999997,3.0,28.0713376952364,4.0,6.082762530298219,6.0,7.071067811865476,5.0990195135927845,18.110770276274835,12.041594578792296,10.5,9.0,11.0,5.0,8.0,1.0,1.0,4.0,4.123105625617661,4.0,14.0,12.0,12.041594578792296,{},{}
283,283,15,0,9.433333333333303,1.0,27.018512172212592,4.0,7.0,6.082762530298219,7.071067811865476,6.082762530298219,18.027756377319943,11.04536101718726,10.5,9.0,10.0,3.5,8.5,1.5,0.5,4.123105625617661,4.123105625617661,4.0,14.0,12.0,12.0,{},{}
284,284,15,0,9.466666666666637,2.0,26.0768096208106,4.0,6.082762530298219,6.082762530298219,7.071067811865476,6.082762530298219,18.110770276274835,12.041594578792296,11.0,9.0,11.0,4.0,8.0,1.0,0.0,3.1622776601683795,4.0,4.0,14.0,11.0,12.041594578792296,{},{}
285,285,15,0,9.49999999999997,2.0,27.018512172212592,3.0,7.0,6.0,7.071067811865476,6.082762530298219,18.027756377319943,11.04536101718726,10.0,9.0,10.0,3.5,8.5,1.5,0.5,4.123105625617661,5.0990195135927845,4.5,15.0,12.0,13.038404810405298,{},{}
286,286,15,0,9.533333333333305,2.0,26.019223662515376,4.0,6.0,6.082762530298219,7.0,6.082762530298219,18.027756377319943,12.041594578792296,11.0,10.0,11.0,4.5,7.5,0.5,0.5,3.1622776601683795,4.0,4.0,14.0,12.0,13.038404810405298,{},{}
287,287,15,0,9.566666666666636,2.0,26.019223662515376,3.0,7.0,6.0,8.0,6.082762530298219,18.027756377319943,11.04536101718726,10.0,9.0,10.0,3.5,8.5,1.5,0.5,4.123105625617661,4.123105625617661,4.0,14.0,11.0,12.041594578792296,{},{}
288,288,15,0,9.59999999999997,3.0,28.0713376952364,4.0,6.0,7.0,8.0,6.082762530298219,19.026297590440446,13.038404810405298,11.5,9.0,11.0,4.0,9.0,2.0,1.0,4.123105625617661,4.123105625617661,4.0,14.0,12.0,13.038404810405298,{},{}
289,289,15,0,9.633333333333304,4.0,28.0178514522438,3.0,7.071067811865476,8.0,8.0,6.082762530298219,20.09975124224178,13.038404810405298,11.0,10.0,11.0,4.5,9.5,2.5,1.5,4.123105625617661,4.0,4.0,14.0,12.0,13.038404810405298,{},{}
290,290,15,0,9.666666666666636,5.0,28.0713376952364,3.0,7.0,7.0,8.06225774829855,6.082762530298219,21.02379604162864,14.0356688476182,11.5,9.0,11.0,4.0,11.0,3.0,1.0,4.123105625617661,4.0,4.0,14.0,12.0,13.038404810405298,{},{}
291,291,15,0,9.699999999999967,5.0,28.0713376952364,3.0,7.0,7.0,8.06225774829855,6.082762530298219,21.02379604162864,14.0356688476182,11.5,9.0,11.0,4.0,11.0,3.0,1.0,4.123105625617661,4.0,4.0,14.0,12.0,13.038404810405298,{},{}
292,292,15,0,9.733333333333302,4.0,28.0178514522438,4.0,6.082762530298219,7.071067811865476,7.071067811865476,6.082762530298219,20.09975124224178,14.0356688476182,12.0,10.0,11.0,4.5,9.5,2.5,0.5,4.123105625617661,4.0,4.0,14.0,12.0,13.038404810405298,{},{}
293,293,15,0,9.766666666666636,4.0,28.0713376952364,3.0,6.082762530298219,8.0,7.0,6.082762530298219,19.1049731745428,13.038404810405298,11.0,9.0,11.0,4.0,9.0,3.0,1.0,4.123105625617661,4.0,4.0,14.0,12.0,13.038404810405298,{},{}
294,294,15,0,9.799999999999969,4.0,28.0713376952364,3.0,6.082762530298219,8.0,8.06225774829855,6.082762530298219,19.1049731745428,13.038404810405298,11.0,9.0,11.0,4.0,9.0,2.0,1.0,4.123105625617661,4.0,4.0,14.0,12.0,12.041594578792296,{},{}
295,295,15,0,9.833333333333302,4.0,28.0713376952364,3.0,6.082762530298219,7.0,7.0,6.082762530298219,19.1049731745428,13.038404810405298,11.0,9.0,11.0,4.0,9.0,2.0,1.0,4.123105625617661,4.0,4.0,15.0,12.0,13.038404810405298,{},{}
296,296,15,0,9.866666666666635,3.0,28.0178514522438,4.0,7.071067811865476,8.06225774829855,8.0,5.0990195135927845,19.1049731745428,12.041594578792296,10.5,9.0,10.0,4.5,9.5,2.5,0.5,4.123105625617661,4.0,4.0,15.0,12.0,13.038404810405298,{},{}
297,297,15,0,9.899999999999968,3.0,28.0178514522438,4.0,6.0,7.071067811865476,8.0,5.0990195135927845,18.027756377319943,12.041594578792296,10.5,9.0,10.0,4.5,8.5,2.5,0.5,4.123105625617661,5.0,4.5,14.0,11.0,14.0356688476182,{},{}
298,298,15,0,9.933333333333302,4.0,28.0178514522438,4.0,6.082762530298219,8.06225774829855,8.0,5.0990195135927845,19.1049731745428,13.038404810405298,11.0,9.0,10.0,4.5,9.5,2.5,0.5,4.123105625617661,4.0,3.5,15.0,12.0,14.142135623730953,{},{}
299,299,15,0,9.966666666666637,4.0,28.0713376952364,4.0,6.082762530298219,8.0,9.055385138137416,5.0990195135927845,19.1049731745428,13.038404810405298,11.0,8.0,10.0,4.0,10.0,3.0,1.0,4.123105625617661,4.0,4.0,14.0,11.0,14.0356688476182,{},{}
300,300,15,0,9.999999999999968,6.0,28.0178514522438,3.0,6.082762530298219,8.0,8.06225774829855,6.082762530298219,21.095023109728988,15.033296378372908,12.0,10.0,11.0,4.5,10.5,3.5,1.5,4.123105625617661,4.123105625617661,4.0,15.0,12.0,14.0356688476182,{},{}
301,301,15,0,10.0333333333333,6.0,28.0713376952364,3.0,7.071067811865476,8.0,8.06225774829855,6.082762530298219,22.09072203437452,15.033296378372908,12.0,10.0,12.0,5.0,11.0,3.0,2.0,4.123105625617661,4.0,4.0,14.0,11.0,12.041594578792296,{},{}
302,302,15,0,10.066666666666634,7.0,28.0713376952364,3.0,7.071067811865476,7.0,8.06225774829855,6.082762530298219,23.08679276123039,16.0312195418814,12.5,10.0,12.0,5.0,12.0,4.0,2.0,4.0,4.123105625617661,4.0,14.0,11.0,13.038404810405298,{},{}
303,303,15,0,10.099999999999968,8.0,27.073972741361768,4.0,6.082762530298219,8.0,8.0,5.0990195135927845,23.08679276123039,17.029386365926403,13.0,11.0,13.0,7.0,11.0,4.0,3.0,4.0,4.0,4.0,14.0,12.0,14.0356688476182,{},{}
304,304,15,0,10.1333333333333,8.0,25.179356624028344,4.0,7.071067811865476,7.071067811865476,8.06225774829855,5.0990195135927845,24.08318915758459,17.029386365926403,13.0,11.0,14.0,7.5,11.5,4.5,3.5,4.123105625617661,4.123105625617661,4.0,15.0,12.0,13.152946437965904,{},{}
305,305,15,0,10.166666666666634,9.0,25.019992006393608,4.0,7.0,7.0,8.06225774829855,6.082762530298219,26.019223662515376,19.026297590440446,14.5,14.0,15.0,8.5,11.5,3.5,4.5,4.0,5.0,5.0,15.0,12.0,12.041594578792296,{},{}
306,306,15,0,10.199999999999967,10.0,24.08318915758459,4.0,7.071067811865476,8.06225774829855,8.06225774829855,5.0990195135927845,26.0768096208106,19.026297590440446,14.0,13.0,15.0,9.0,12.0,4.0,4.0,4.123105625617661,4.0,3.5,15.0,12.0,13.152946437965904,{},{}
307,307,15,0,10.2333333333333,8.06225774829855,23.08679276123039,4.0,7.0,7.071067811865476,8.06225774829855,6.0,25.019992006393608,18.027756377319943,14.0,13.0,15.0,8.0,11.0,3.0,4.0,4.123105625617661,4.0,4.0,15.0,11.0,14.0356688476182,{},{}
308,308,15,0,10.266666666666634,5.0,24.186773244895647,4.0,7.071067811865476,7.071067811865476,7.0,6.082762530298219,22.09072203437452,15.033296378372908,12.5,12.0,15.0,7.5,8.5,0.5,2.5,3.1622776601683795,3.0,3.0,15.0,12.0,14.0356688476182,{},{}
309,309,15,0,10.299999999999969,3.0,26.0768096208106,5.0,6.082762530298219,7.071067811865476,7.071067811865476,5.0990195135927845,19.1049731745428,13.038404810405298,11.5,11.0,13.0,7.0,7.0,0.0,2.0,2.0,2.23606797749979,2.0,15.0,12.0,13.038404810405298,{},{}
310,310,15,0,10.3333333333333,1.0,26.1725046566048,5.0,7.071067811865476,6.082762530298219,7.071067811865476,5.0,18.027756377319943,11.0,10.5,10.0,13.0,6.5,6.5,1.5,1.5,1.4142135623730951,3.0,2.5,15.0,11.0,13.152946437965904,{},{}
311,311,15,0,10.366666666666632,1.0,26.0768096208106,4.0,6.082762530298219,7.0,8.0,6.082762530298219,17.11724276862369,11.04536101718726,10.5,11.0,13.0,6.0,5.0,2.0,2.0,1.4142135623730951,2.23606797749979,2.0,15.0,12.0,13.038404810405298,{},{}
312,312,15,0,10.399999999999968,1.0,26.0768096208106,4.0,6.0,7.071067811865476,7.0,6.0,16.0312195418814,10.04987562112089,10.0,10.0,12.0,5.0,5.0,1.0,1.0,2.0,2.0,2.0,14.0,11.0,13.038404810405298,{},{}
313,313,15,0,10.4333333333333,0.0,27.073972741361768,4.0,7.071067811865476,6.0,7.071067811865476,6.082762530298219,17.11724276862369,10.04987562112089,10.0,10.0,12.0,5.0,6.0,1.0,1.0,2.23606797749979,2.0,2.0,15.0,11.0,13.152946437965904,{},{}
314,314,15,0,10.466666666666631,2.0,26.1725046566048,4.0,6.082762530298219,6.0,7.0,7.071067811865476,19.1049731745428,13.038404810405298,12.0,11.0,14.0,5.5,6.5,0.5,1.5,2.23606797749979,3.0,2.5,15.0,11.0,13.038404810405298,{},{}
315,315,15,0,10.499999999999966,3.0,26.0768096208106,4.0,7.071067811865476,7.071067811865476,8.06225774829855,7.071067811865476,21.095023109728988,14.0356688476182,12.5,11.0,13.0,5.0,9.0,1.0,1.0,2.23606797749979,2.0,2.0,15.0,11.0,13.152946437965904,{},{}
316,316,15,0,10.5333333333333,2.23606797749979,26.1725046566048,5.0,8.0,7.071067811865476,8.06225774829855,6.082762530298219,21.095023109728988,13.152946437965904,12.0,11.0,14.0,6.5,8.5,0.5,1.5,2.23606797749979,2.0,2.0,15.0,11.0,13.152946437965904,{},{}
317,317,15,0,10.566666666666633,4.123105625617661,27.16615541441225,4.0,7.0,7.071067811865476,8.06225774829855,5.0990195135927845,20.09975124224178,13.152946437965904,11.0,10.0,13.0,6.5,8.5,0.5,2.5,2.0,3.0,2.5,15.0,10.0,12.16552506059644,{},{}
318,318,15,0,10.599999999999966,4.123105625617661,26.1725046566048,4.0,8.0,7.071067811865476,8.06225774829855,5.0990195135927845,21.095023109728988,13.152946437965904,11.0,10.0,13.0,6.5,9.5,0.5,2.5,3.0,3.0,2.5,16.0,11.0,12.16552506059644,{},{}
319,319,15,0,10.6333333333333,4.0,27.16615541441225,4.123105625617661,7.071067811865476,7.071067811865476,8.06225774829855,5.0,20.09975124224178,13.038404810405298,11.0,10.0,13.0,6.5,8.5,0.5,1.5,2.23606797749979,3.0,3.0,15.0,10.0,13.152946437965904,{},{}
320,320,15,0,10.666666666666632,4.0,27.16615541441225,4.0,7.071067811865476,7.071067811865476,8.06225774829855,5.0990195135927845,20.09975124224178,13.038404810405298,11.0,10.0,13.0,6.5,8.5,0.5,1.5,2.23606797749979,3.0,3.0,16.0,11.0,12.16552506059644,{},{}
321,321,15,0,10.699999999999966,4.0,27.16615541441225,4.123105625617661,7.071067811865476,7.071067811865476,8.06225774829855,5.0,20.09975124224178,13.038404810405298,11.0,10.0,13.0,6.5,8.5,0.5,1.5,3.1622776601683795,3.0,3.0,15.0,10.0,13.152946437965904,{},{}
322,322,15,0,10.7333333333333,4.123105625617661,27.16615541441225,4.0,7.071067811865476,7.071067811865476,7.071067811865476,5.0,20.09975124224178,13.038404810405298,11.0,10.0,13.0,6.5,8.5,0.5,1.5,3.1622776601683795,4.0,3.5,15.0,10.0,13.152946437965904,{},{}
323,323,15,0,10.766666666666632,4.0,27.16615541441225,4.123105625617661,7.071067811865476,7.071067811865476,7.071067811865476,5.0990195135927845,20.223748416156685,13.152946437965904,11.0,10.0,13.0,6.5,8.5,0.5,1.5,3.1622776601683795,4.0,3.5,16.0,11.0,13.152946437965904,{},{}
324,324,15,0,10.799999999999963,4.123105625617661,27.16615541441225,4.0,7.071067811865476,7.071067811865476,7.071067811865476,5.0990195135927845,20.223748416156685,13.152946437965904,11.0,10.0,13.0,6.5,8.5,0.5,1.5,3.1622776601683795,4.0,3.5,16.0,11.0,13.152946437965904,{},{}
325,325,15,0,10.833333333333298,4.123105625617661,27.16615541441225,4.0,7.071067811865476,7.071067811865476,7.071067811865476,6.082762530298219,21.213203435596427,14.142135623730953,12.0,10.0,13.0,5.5,9.5,1.5,1.5,3.1622776601683795,4.0,3.5,15.0,11.0,13.152946437965904,{},{}
326,326,15,0,10.866666666666632,4.0,27.29468812791236,4.123105625617661,7.071067811865476,7.071067811865476,8.06225774829855,5.0990195135927845,20.223748416156685,13.152946437965904,11.0,9.0,13.0,6.0,9.0,1.0,2.0,4.123105625617661,4.0,3.5,15.0,11.0,13.152946437965904,{},{}
327,327,15,0,10.899999999999965,4.0,26.1725046566048,4.123105625617661,7.071067811865476,7.071067811865476,7.071067811865476,5.0,20.09975124224178,13.038404810405298,11.0,10.0,13.0,6.5,8.5,0.5,2.5,4.123105625617661,3.0,3.5,15.0,10.0,13.038404810405298,{},{}
328,328,15,0,10.933333333333298,4.0,27.16615541441225,4.123105625617661,7.071067811865476,7.071067811865476,8.06225774829855,5.0990195135927845,20.223748416156685,13.152946437965904,11.0,10.0,13.0,6.5,8.5,0.5,1.5,4.123105625617661,3.0,3.5,15.0,10.0,13.038404810405298,{},{}
329,329,15,0,10.966666666666631,4.0,27.16615541441225,3.1622776601683795,8.06225774829855,7.071067811865476,8.06225774829855,6.0,21.095023109728988,13.038404810405298,11.0,10.0,13.0,5.5,9.5,1.5,1.5,4.123105625617661,3.0,3.5,15.0,10.0,13.038404810405298,{},{}
330,330,15,0,10.999999999999964,4.123105625617661,28.16025568065745,3.0,6.0,7.071067811865476,7.071067811865476,6.082762530298219,19.1049731745428,13.152946437965904,11.0,10.0,13.0,5.5,7.5,0.5,1.5,3.0,3.0,3.5,15.0,10.0,13.038404810405298,{},{}
331,331,15,0,11.033333333333298,2.23606797749979,28.16025568065745,4.0,7.0,7.0,8.0,5.0990195135927845,18.110770276274835,11.180339887498947,10.0,9.0,12.0,5.5,7.5,0.5,1.5,4.123105625617661,3.0,3.0,15.0,11.0,14.0356688476182,{},{}
332,332,15,0,11.066666666666633,2.23606797749979,28.16025568065745,4.0,6.0,8.0,8.06225774829855,5.0990195135927845,17.11724276862369,11.180339887498947,10.0,9.0,12.0,5.5,6.5,0.5,1.5,3.1622776601683795,4.123105625617661,4.0,15.0,11.0,14.0356688476182,{},{}
333,333,15,0,11.099999999999964,2.23606797749979,28.284271247461906,4.0,6.082762530298219,7.0,7.071067811865476,5.0,17.11724276862369,11.04536101718726,10.0,8.0,12.0,5.0,7.0,0.0,1.0,3.1622776601683795,4.0,4.0,15.0,11.0,13.152946437965904,{},{}
334,334,15,0,11.133333333333296,2.23606797749979,29.154759474226505,4.0,6.0,7.071067811865476,8.0,5.0,17.029386365926403,11.04536101718726,10.0,8.0,11.0,4.5,7.5,0.5,0.5,3.1622776601683795,4.0,3.5,16.0,11.0,13.152946437965904,{},{}
335,335,15,0,11.16666666666663,2.0,29.27456233660889,3.1622776601683795,7.0,7.0,8.06225774829855,7.0,19.026297590440446,12.041594578792296,11.0,9.0,13.0,4.0,8.0,1.0,1.0,3.1622776601683795,4.0,3.5,15.0,11.0,14.0356688476182,{},{}
336,336,15,0,11.199999999999964,2.23606797749979,29.154759474226505,3.0,7.0,7.0,7.071067811865476,6.0,18.027756377319943,11.04536101718726,10.0,9.0,12.0,4.5,7.5,0.5,1.5,3.0,4.123105625617661,3.5,15.0,11.0,13.038404810405298,{},{}
337,337,15,0,11.233333333333295,2.0,29.154759474226505,4.0,7.071067811865476,7.071067811865476,7.071067811865476,6.082762530298219,19.1049731745428,12.041594578792296,11.0,9.0,12.0,4.5,8.5,1.5,0.5,3.1622776601683795,3.0,3.5,16.0,12.0,12.16552506059644,{},{}
338,338,15,0,11.26666666666663,4.0,28.16025568065745,4.0,7.071067811865476,7.071067811865476,8.0,6.082762530298219,21.095023109728988,14.0356688476182,12.0,10.0,13.0,5.5,9.5,2.5,1.5,3.0,4.0,4.0,15.0,11.0,12.16552506059644,{},{}
339,339,15,0,11.299999999999963,6.0,28.0713376952364,3.0,7.071067811865476,7.0,8.06225774829855,6.082762530298219,22.09072203437452,15.033296378372908,12.0,10.0,12.0,5.0,11.0,4.0,2.0,4.0,4.0,4.0,15.0,11.0,13.038404810405298,{},{}
340,340,15,0,11.333333333333297,7.0,28.16025568065745,3.0,6.082762530298219,7.071067811865476,8.06225774829855,6.082762530298219,22.09072203437452,16.0312195418814,12.5,10.0,13.0,5.5,10.5,3.5,1.5,4.0,4.0,4.0,15.0,11.0,12.16552506059644,{},{}
341,341,15,0,11.36666666666663,7.071067811865476,28.16025568065745,3.0,6.0,7.071067811865476,8.06225774829855,6.082762530298219,22.09072203437452,16.1245154965971,12.5,10.0,13.0,5.5,10.5,3.5,2.5,4.123105625617661,4.0,4.0,15.0,11.0,13.038404810405298,{},{}
342,342,15,0,11.399999999999965,6.082762530298219,28.16025568065745,3.0,6.082762530298219,7.0,9.055385138137416,6.0,21.095023109728988,15.033296378372908,12.0,9.0,12.0,4.5,10.5,3.5,1.5,3.1622776601683795,4.0,3.5,16.0,12.0,13.152946437965904,{},{}
343,343,15,0,11.433333333333296,5.0,29.154759474226505,3.0,6.082762530298219,7.0,8.06225774829855,6.082762530298219,20.09975124224178,14.0356688476182,11.5,9.0,12.0,4.5,9.5,2.5,1.5,4.0,4.0,3.5,16.0,11.0,13.152946437965904,{},{}
344,344,15,0,11.46666666666663,3.0,30.14962686336267,4.0,6.082762530298219,7.071067811865476,8.06225774829855,6.082762530298219,19.1049731745428,13.038404810405298,11.5,8.0,11.0,3.5,9.5,2.5,0.5,3.1622776601683795,3.0,3.0,15.0,11.0,13.152946437965904,{},{}
345,345,15,0,11.499999999999964,2.23606797749979,30.14962686336267,4.0,7.0,7.071067811865476,8.0,6.082762530298219,19.1049731745428,12.16552506059644,11.0,8.0,11.0,3.5,9.5,2.5,0.5,3.1622776601683795,3.0,3.5,15.0,11.0,13.038404810405298,{},{}
346,346,15,0,11.533333333333296,3.0,30.14962686336267,3.0,6.082762530298219,8.06225774829855,8.06225774829855,6.082762530298219,18.110770276274835,12.041594578792296,10.5,8.0,11.0,3.5,8.5,1.5,0.5,3.1622776601683795,4.0,4.0,15.0,11.0,12.041594578792296,{},{}
347,347,15,0,11.56666666666663,3.1622776601683795,30.066592756745816,4.0,6.0,8.06225774829855,8.06225774829855,5.0990195135927845,18.110770276274835,12.16552506059644,10.5,8.0,10.0,4.0,9.0,2.0,0.0,3.1622776601683795,4.0,4.0,15.0,11.0,13.152946437965904,{},{}
348,348,15,0,11.599999999999962,3.0,30.14962686336267,3.0,6.082762530298219,8.06225774829855,8.06225774829855,6.082762530298219,18.110770276274835,12.041594578792296,10.5,8.0,11.0,3.5,8.5,1.5,0.5,3.1622776601683795,4.0,4.0,15.0,11.0,13.038404810405298,{},{}
349,349,15,0,11.633333333333296,3.1622776601683795,30.066592756745816,4.0,6.0,8.06225774829855,8.06225774829855,5.0990195135927845,18.110770276274835,12.16552506059644,10.5,8.0,10.0,4.0,9.0,3.0,0.0,3.1622776601683795,3.0,3.5,15.0,11.0,13.038404810405298,{},{}
350,350,15,0,11.666666666666629,3.1622776601683795,30.14962686336267,4.0,6.0,7.071067811865476,8.06225774829855,6.082762530298219,19.1049731745428,13.152946437965904,11.5,8.0,11.0,3.5,9.5,2.5,0.5,4.123105625617661,4.0,3.5,16.0,12.0,13.152946437965904,{},{}
351,351,15,0,11.699999999999962,2.0,28.16025568065745,4.0,6.082762530298219,7.071067811865476,7.071067811865476,6.082762530298219,18.110770276274835,12.041594578792296,11.0,8.0,11.0,3.5,8.5,1.5,0.5,4.123105625617661,4.0,4.0,16.0,11.0,13.038404810405298,{},{}
352,352,15,0,11.733333333333295,0.0,28.16025568065745,4.0,6.082762530298219,7.071067811865476,7.071067811865476,7.071067811865476,17.11724276862369,11.04536101718726,11.0,9.0,12.0,3.5,6.5,0.5,0.5,3.1622776601683795,4.0,3.5,16.0,12.0,14.0356688476182,{},{}
353,353,15,0,11.766666666666628,0.0,27.16615541441225,4.0,6.082762530298219,6.0,7.0,6.082762530298219,16.1245154965971,10.04987562112089,10.0,9.0,12.0,4.5,5.5,0.5,0.5,3.1622776601683795,4.0,4.0,17.0,13.0,13.152946437965904,{},{}
354,354,15,0,11.799999999999962,0.0,28.0713376952364,4.0,6.082762530298219,7.071067811865476,7.071067811865476,7.071067811865476,17.11724276862369,11.04536101718726,11.0,10.0,12.0,4.0,6.0,1.0,0.0,4.0,3.0,3.0,16.0,13.0,14.0356688476182,{},{}
355,355,15,0,11.833333333333297,0.0,28.0713376952364,5.0,7.071067811865476,7.071067811865476,7.0,6.082762530298219,18.110770276274835,11.04536101718726,11.0,10.0,12.0,5.0,7.0,0.0,0.0,4.123105625617661,4.0,3.5,17.0,13.0,14.0356688476182,{},{}
356,356,15,0,11.866666666666628,2.0,28.16025568065745,5.0,7.071067811865476,7.071067811865476,7.071067811865476,6.082762530298219,20.09975124224178,13.038404810405298,12.0,10.0,13.0,5.5,8.5,1.5,0.5,3.0,4.0,3.5,17.0,13.0,14.0356688476182,{},{}
357,357,15,0,11.89999999999996,2.0,28.16025568065745,5.0,8.06225774829855,7.071067811865476,8.06225774829855,6.082762530298219,21.095023109728988,13.038404810405298,12.0,10.0,13.0,5.5,9.5,1.5,0.5,3.0,4.0,3.5,16.0,13.0,14.0356688476182,{},{}
358,358,15,0,11.933333333333294,3.1622776601683795,29.068883707497267,4.0,7.0,7.0,8.06225774829855,6.0,20.024984394500787,13.038404810405298,11.5,10.0,12.0,5.0,9.0,1.0,1.0,3.0,4.0,4.0,17.0,13.0,14.0356688476182,{},{}
359,359,15,0,11.966666666666628,3.0,28.16025568065745,4.0,7.071067811865476,7.071067811865476,8.0,6.082762530298219,20.09975124224178,13.038404810405298,11.5,9.0,12.0,4.5,9.5,1.5,0.5,4.0,4.0,4.0,16.0,13.0,14.0356688476182,{},{}
360,360,15,0,11.99999999999996,3.0,28.16025568065745,4.0,6.082762530298219,7.071067811865476,8.0,6.082762530298219,19.1049731745428,13.038404810405298,11.5,9.0,12.0,4.5,8.5,1.5,0.5,3.1622776601683795,4.0,3.5,16.0,12.0,14.142135623730953,{},{}
361,361,15,0,12.033333333333294,3.0,29.154759474226505,4.0,7.071067811865476,7.071067811865476,8.0,6.082762530298219,20.09975124224178,13.038404810405298,11.5,9.0,12.0,4.5,9.5,1.5,0.5,4.123105625617661,4.123105625617661,4.0,16.0,13.0,14.0356688476182,{},{}
362,362,15,0,12.066666666666627,3.0,29.154759474226505,4.0,7.071067811865476,6.082762530298219,8.06225774829855,6.082762530298219,20.09975124224178,13.038404810405298,11.5,10.0,13.0,5.5,8.5,1.5,1.5,3.1622776601683795,4.0,3.5,16.0,12.0,14.0356688476182,{},{}
363,363,15,0,12.09999999999996,3.0,29.068883707497267,4.0,6.082762530298219,7.0,7.0,6.082762530298219,19.1049731745428,13.038404810405298,11.5,10.0,12.0,5.0,8.0,1.0,1.0,3.1622776601683795,4.0,4.0,16.0,12.0,13.038404810405298,{},{}
364,364,15,0,12.133333333333294,3.0,29.154759474226505,4.0,6.082762530298219,8.06225774829855,8.06225774829855,6.082762530298219,19.1049731745428,13.038404810405298,11.5,9.0,12.0,4.5,8.5,1.5,0.5,4.123105625617661,4.0,4.0,16.0,12.0,14.0356688476182,{},{}
365,365,15,0,12.166666666666629,3.1622776601683795,29.154759474226505,4.0,6.0,7.071067811865476,8.0,6.082762530298219,19.1049731745428,13.152946437965904,11.5,9.0,12.0,4.5,8.5,1.5,0.5,4.123105625617661,4.0,4.0,16.0,12.0,13.038404810405298,{},{}
366,366,15,0,12.19999999999996,3.1622776601683795,29.154759474226505,4.0,6.0,8.06225774829855,8.06225774829855,6.082762530298219,19.1049731745428,13.152946437965904,11.5,9.0,12.0,4.5,8.5,1.5,0.5,3.1622776601683795,4.0,4.0,16.0,13.0,13.152946437965904,{},{}
367,367,15,0,12.233333333333292,4.0,28.0713376952364,4.0,7.071067811865476,7.0,8.0,6.082762530298219,21.095023109728988,14.0356688476182,12.0,11.0,13.0,6.0,9.0,1.0,2.0,4.123105625617661,4.0,3.5,17.0,14.0,14.0356688476182,{},{}
368,368,15,0,12.266666666666628,4.0,28.16025568065745,4.0,6.082762530298219,7.071067811865476,8.06225774829855,6.082762530298219,20.09975124224178,14.0356688476182,12.0,10.0,13.0,5.5,8.5,1.5,1.5,4.123105625617661,4.0,4.0,16.0,13.0,14.0,{},{}
369,369,15,0,12.29999999999996,4.0,28.16025568065745,4.0,6.082762530298219,7.0,7.071067811865476,6.082762530298219,20.09975124224178,14.0356688476182,12.0,10.0,13.0,5.5,8.5,1.5,1.5,4.123105625617661,3.1622776601683795,3.5,17.0,13.0,14.0356688476182,{},{}
370,370,15,0,12.333333333333291,1.0,27.16615541441225,5.0,6.0,7.0,7.071067811865476,6.082762530298219,18.027756377319943,12.041594578792296,11.5,10.0,13.0,5.5,6.5,0.5,1.5,4.123105625617661,4.0,3.5,16.0,12.0,14.0356688476182,{},{}
371,371,15,0,12.366666666666626,0.0,27.073972741361768,4.0,6.082762530298219,7.0,7.0,6.0,16.0312195418814,10.0,10.0,10.0,12.0,5.0,5.0,1.0,1.0,4.123105625617661,4.0,4.0,16.0,13.0,13.152946437965904,{},{}
372,372,15,0,12.39999999999996,1.0,27.018512172212592,4.123105625617661,6.0,7.0,8.0,6.0,17.029386365926403,11.04536101718726,10.5,11.0,12.0,5.5,5.5,1.5,1.5,3.0,4.0,4.0,16.0,13.0,13.038404810405298,{},{}
373,373,15,0,12.433333333333293,1.0,28.0713376952364,4.0,6.0,7.0,6.0,6.082762530298219,17.029386365926403,11.04536101718726,10.5,10.0,12.0,5.0,6.0,1.0,1.0,4.123105625617661,4.0,3.5,15.0,12.0,13.0,{},{}
374,374,15,0,12.466666666666626,2.0,28.0178514522438,5.0990195135927845,6.0,7.0,7.0,6.0,19.026297590440446,13.038404810405298,12.0,11.0,12.0,5.5,7.5,0.5,1.5,4.0,4.0,4.0,16.0,13.0,14.0356688476182,{},{}
375,375,15,0,12.49999999999996,3.0,28.0713376952364,5.0990195135927845,7.071067811865476,7.071067811865476,8.0,6.0,21.095023109728988,14.0356688476182,12.5,11.0,13.0,6.0,9.0,1.0,1.0,4.123105625617661,4.0,4.0,16.0,13.0,13.038404810405298,{},{}
376,376,15,0,12.533333333333292,4.0,27.073972741361768,4.0,7.071067811865476,6.082762530298219,8.06225774829855,6.082762530298219,21.095023109728988,14.0356688476182,12.0,11.0,13.0,6.0,9.0,1.0,1.0,3.1622776601683795,4.0,4.0,15.0,12.0,13.038404810405298,{},{}
377,377,15,0,12.566666666666626,4.0,27.16615541441225,4.0,7.071067811865476,7.0,8.06225774829855,5.0990195135927845,20.09975124224178,13.038404810405298,11.0,10.0,13.0,6.5,8.5,0.5,2.5,3.1622776601683795,4.0,3.5,16.0,13.0,13.038404810405298,{},{}
378,378,15,0,12.59999999999996,3.0,27.16615541441225,4.0,7.071067811865476,7.0,8.0,6.082762530298219,20.09975124224178,13.038404810405298,11.5,10.0,13.0,5.5,8.5,0.5,1.5,4.0,4.0,4.0,16.0,12.0,13.038404810405298,{},{}
379,379,15,0,12.633333333333292,4.123105625617661,27.073972741361768,4.0,6.0,7.0,8.0,6.0,20.024984394500787,14.0356688476182,12.0,11.0,13.0,6.0,8.0,1.0,2.0,3.1622776601683795,4.0,4.0,16.0,13.0,13.038404810405298,{},{}
380,380,15,0,12.666666666666623,3.1622776601683795,27.073972741361768,4.0,7.0,7.0,8.06225774829855,6.0,20.024984394500787,13.038404810405298,11.5,11.0,13.0,6.0,8.0,1.0,2.0,4.123105625617661,4.0,4.0,15.0,12.0,13.038404810405298,{},{}
381,381,15,0,12.699999999999958,2.0,26.019223662515376,3.0,7.0,6.0,7.071067811865476,7.071067811865476,19.026297590440446,12.041594578792296,11.0,11.0,12.0,4.5,7.5,0.5,1.5,4.0,4.0,4.0,15.0,12.0,13.038404810405298,{},{}
382,382,15,0,12.733333333333292,2.0,25.079872407968907,4.0,7.071067811865476,6.082762530298219,7.071067811865476,6.0,19.026297590440446,12.0,11.0,11.0,13.0,6.0,7.0,0.0,2.0,4.123105625617661,4.0,4.5,16.0,12.0,13.038404810405298,{},{}
383,383,15,0,12.766666666666625,3.0,25.079872407968907,4.123105625617661,7.0,7.0,8.06225774829855,6.0,20.024984394500787,13.038404810405298,11.5,11.0,13.0,6.0,8.0,0.0,2.0,4.123105625617661,5.0,4.5,16.0,13.0,14.0356688476182,{},{}
384,384,15,0,12.799999999999958,4.0,26.0768096208106,4.0,7.071067811865476,7.071067811865476,7.0,6.082762530298219,21.095023109728988,14.0356688476182,12.0,11.0,13.0,6.0,9.0,1.0,2.0,4.123105625617661,4.0,4.0,16.0,13.0,14.0356688476182,{},{}
385,385,15,0,12.833333333333291,5.0,25.179356624028344,4.0,8.06225774829855,7.071067811865476,7.0,6.082762530298219,23.08679276123039,15.033296378372908,12.5,11.0,14.0,6.5,10.5,1.5,2.5,4.123105625617661,4.0,4.5,16.0,13.0,13.152946437965904,{},{}
386,386,15,0,12.866666666666625,4.0,25.179356624028344,4.0,9.055385138137416,6.082762530298219,8.0,6.082762530298219,23.08679276123039,14.0356688476182,12.0,11.0,14.0,6.5,10.5,1.5,2.5,4.123105625617661,4.0,4.0,15.0,13.0,13.038404810405298,{},{}
387,387,15,0,12.899999999999958,5.0,25.079872407968907,4.123105625617661,7.0,7.071067811865476,7.071067811865476,5.0,21.02379604162864,14.0356688476182,11.5,10.0,12.0,6.0,10.0,2.0,2.0,3.1622776601683795,4.0,4.0,15.0,12.0,14.0356688476182,{},{}
388,388,15,0,12.933333333333293,5.0,25.079872407968907,3.0,7.071067811865476,7.0,8.06225774829855,6.082762530298219,21.095023109728988,14.0356688476182,11.5,11.0,13.0,6.0,9.0,1.0,3.0,4.123105625617661,4.0,3.5,15.0,12.0,13.038404810405298,{},{}
389,389,15,0,12.966666666666624,5.0,25.079872407968907,3.0,7.071067811865476,8.0,8.0,5.0990195135927845,20.09975124224178,13.038404810405298,10.5,10.0,12.0,6.0,9.0,1.0,3.0,4.123105625617661,4.0,4.0,15.0,12.0,13.038404810405298,{},{}
390,390,15,0,12.999999999999956,5.0,25.079872407968907,3.0,7.071067811865476,7.0,7.071067811865476,5.0990195135927845,20.09975124224178,13.038404810405298,10.5,10.0,12.0,6.0,9.0,1.0,3.0,5.0990195135927845,5.0,4.5,15.0,12.0,14.142135623730953,{},{}
391,391,15,0,13.03333333333329,5.0,25.079872407968907,4.0,7.071067811865476,6.0,7.071067811865476,5.0990195135927845,21.095023109728988,14.0356688476182,11.5,11.0,13.0,7.0,9.0,1.0,3.0,3.1622776601683795,4.0,3.5,15.0,12.0,13.038404810405298,{},{}
392,392,15,0,13.066666666666624,5.0,25.079872407968907,3.0,7.071067811865476,7.0,7.071067811865476,6.082762530298219,21.095023109728988,14.0356688476182,11.5,10.0,12.0,5.0,10.0,2.0,2.0,4.123105625617661,4.0,4.0,16.0,13.0,13.038404810405298,{},{}
393,393,15,0,13.099999999999955,5.0,25.079872407968907,4.123105625617661,7.071067811865476,7.071067811865476,7.071067811865476,5.0,21.095023109728988,14.0356688476182,11.5,10.0,12.0,6.0,10.0,2.0,2.0,4.123105625617661,4.0,4.0,15.0,12.0,14.142135623730953,{},{}
394,394,15,0,13.13333333333329,4.0,27.073972741361768,4.0,8.06225774829855,7.071067811865476,8.0,5.0990195135927845,21.095023109728988,13.038404810405298,11.0,10.0,12.0,6.0,10.0,2.0,2.0,4.123105625617661,4.123105625617661,4.0,16.0,13.0,13.038404810405298,{},{}
395,395,15,0,13.166666666666623,4.0,27.073972741361768,4.123105625617661,7.0,7.071067811865476,8.06225774829855,5.0,20.024984394500787,13.038404810405298,11.0,10.0,12.0,6.0,9.0,1.0,2.0,4.123105625617661,4.123105625617661,4.0,16.0,13.0,13.038404810405298,{},{}
396,396,15,0,13.199999999999957,4.0,27.073972741361768,4.0,8.06225774829855,7.071067811865476,7.0,5.0990195135927845,21.095023109728988,13.038404810405298,11.0,10.0,12.0,6.0,10.0,2.0,2.0,4.123105625617661,5.0990195135927845,4.5,16.0,13.0,14.142135623730953,{},{}
397,397,15,0,13.23333333333329,5.0990195135927845,28.0713376952364,4.0,7.0,7.071067811865476,8.06225774829855,5.0,21.02379604162864,14.0356688476182,11.5,10.0,12.0,6.0,10.0,2.0,2.0,4.123105625617661,4.123105625617661,4.0,16.0,13.0,13.152946437965904,{},{}
398,398,15,0,13.266666666666625,7.0,27.073972741361768,3.0,7.071067811865476,8.0,8.0,6.082762530298219,23.08679276123039,16.0312195418814,12.5,11.0,13.0,6.0,11.0,3.0,3.0,4.123105625617661,5.0,4.5,15.0,12.0,14.0356688476182,{},{}
399,399,15,0,13.299999999999956,7.071067811865476,28.0713376952364,4.0,7.0,7.0,8.06225774829855,5.0990195135927845,23.08679276123039,16.1245154965971,12.5,11.0,13.0,7.0,11.0,3.0,3.0,4.0,4.0,4.0,16.0,13.0,15.132745950421556,{},{}
400,400,15,0,13.33333333333329,8.0,28.0713376952364,4.123105625617661,7.071067811865476,7.0,9.055385138137416,5.0,24.08318915758459,17.029386365926403,13.0,11.0,13.0,7.0,12.0,4.0,3.0,4.123105625617661,4.0,4.5,15.0,12.0,15.033296378372908,{},{}
401,401,15,0,13.366666666666625,7.071067811865476,27.16615541441225,4.0,7.071067811865476,7.071067811865476,9.055385138137416,6.0,24.08318915758459,17.029386365926403,13.5,11.0,14.0,6.5,11.5,3.5,2.5,3.1622776601683795,4.0,4.0,15.0,12.0,14.142135623730953,{},{}
402,402,15,0,13.399999999999956,7.0,27.16615541441225,4.123105625617661,7.071067811865476,7.071067811865476,9.055385138137416,6.0,24.08318915758459,17.029386365926403,13.5,11.0,14.0,6.5,11.5,3.5,2.5,4.0,4.0,4.5,16.0,12.0,14.0356688476182,{},{}
403,403,15,0,13.43333333333329,7.071067811865476,27.073972741361768,4.0,6.082762530298219,7.071067811865476,7.071067811865476,6.0,23.08679276123039,17.029386365926403,13.5,12.0,14.0,7.0,10.0,3.0,3.0,4.123105625617661,4.0,4.0,16.0,12.0,13.038404810405298,{},{}
404,404,15,0,13.466666666666622,5.0,27.16615541441225,4.0,6.082762530298219,6.0,7.071067811865476,6.082762530298219,21.095023109728988,15.033296378372908,12.5,11.0,14.0,6.5,8.5,1.5,2.5,4.0,5.0,4.5,16.0,12.0,13.038404810405298,{},{}
405,405,15,0,13.499999999999956,1.0,27.073972741361768,4.0,6.082762530298219,7.0,7.0,7.071067811865476,18.110770276274835,12.041594578792296,11.5,11.0,13.0,5.0,6.0,0.0,1.0,4.0,5.0,5.0,16.0,12.0,13.038404810405298,{},{}
406,406,15,0,13.533333333333289,1.4142135623730951,27.073972741361768,4.0,6.0,6.0,6.082762530298219,6.082762530298219,17.11724276862369,11.180339887498947,10.5,10.0,12.0,5.0,6.0,1.0,1.0,4.0,4.0,4.0,16.0,11.0,13.152946437965904,{},{}
407,407,15,0,13.566666666666622,1.0,27.073972741361768,3.0,5.0990195135927845,6.0,7.0,7.071067811865476,16.1245154965971,11.04536101718726,10.5,10.0,12.0,4.0,5.0,1.0,1.0,4.123105625617661,5.0,4.5,16.0,12.0,13.038404810405298,{},{}
408,408,15,0,13.599999999999955,1.4142135623730951,27.073972741361768,4.0,5.0,6.0,6.0,6.082762530298219,16.1245154965971,11.180339887498947,10.5,10.0,12.0,5.0,5.0,1.0,1.0,4.123105625617661,4.0,4.0,15.0,11.0,13.038404810405298,{},{}
409,409,15,0,13.633333333333288,1.0,28.0713376952364,4.123105625617661,6.0,7.0,7.071067811865476,6.082762530298219,17.11724276862369,11.180339887498947,10.5,10.0,12.0,5.0,6.0,1.0,1.0,4.123105625617661,5.0,4.5,15.0,11.0,13.152946437965904,{},{}
410,410,15,0,13.666666666666622,2.0,27.16615541441225,4.0,6.082762530298219,6.082762530298219,7.071067811865476,7.280109889280518,19.235384061671343,13.152946437965904,12.0,10.0,13.0,4.5,7.5,0.5,0.5,4.123105625617661,5.0,4.5,15.0,11.0,13.152946437965904,{},{}
411,411,15,0,13.699999999999957,3.0,26.1725046566048,5.0,7.071067811865476,8.06225774829855,8.06225774829855,6.082762530298219,21.095023109728988,14.0356688476182,12.5,10.0,13.0,5.5,9.5,1.5,0.5,4.123105625617661,5.0,4.5,15.0,11.0,14.142135623730953,{},{}
412,412,15,0,13.733333333333288,3.0,26.30589287593181,4.0,8.06225774829855,6.082762530298219,8.06225774829855,6.082762530298219,21.095023109728988,13.038404810405298,11.5,9.0,13.0,5.0,10.0,1.0,1.0,4.123105625617661,4.0,4.0,16.0,12.0,14.142135623730953,{},{}
413,413,15,0,13.76666666666662,3.0,27.16615541441225,4.0,8.06225774829855,7.071067811865476,8.06225774829855,5.385164807134504,20.223748416156685,12.16552506059644,10.5,9.0,12.0,5.5,9.5,1.5,1.5,4.123105625617661,5.0,4.5,15.0,11.0,12.16552506059644,{},{}
414,414,15,0,13.799999999999956,4.123105625617661,27.16615541441225,4.0,7.0,7.071067811865476,7.071067811865476,5.0990195135927845,20.09975124224178,13.152946437965904,11.0,9.0,12.0,5.5,9.5,1.5,1.5,4.123105625617661,4.0,4.0,15.0,11.0,14.0356688476182,{},{}
415,415,15,0,13.833333333333288,3.1622776601683795,27.16615541441225,4.0,7.0,6.082762530298219,8.06225774829855,6.082762530298219,20.09975124224178,13.152946437965904,11.5,9.0,12.0,4.5,9.5,1.5,0.5,4.123105625617661,4.0,4.0,16.0,12.0,13.152946437965904,{},{}
416,416,15,0,13.86666666666662,4.123105625617661,27.16615541441225,3.0,7.0,7.071067811865476,8.06225774829855,6.082762530298219,20.09975124224178,13.152946437965904,11.0,9.0,12.0,4.5,9.5,1.5,0.5,4.123105625617661,4.0,4.0,15.0,11.0,14.142135623730953,{},{}
417,417,15,0,13.899999999999954,3.1622776601683795,27.29468812791236,4.0,7.0,8.06225774829855,8.06225774829855,6.082762530298219,20.09975124224178,13.152946437965904,11.5,9.0,13.0,5.0,9.0,1.0,1.0,4.123105625617661,4.0,4.5,16.0,11.0,13.152946437965904,{},{}
418,418,15,0,13.933333333333287,2.23606797749979,27.29468812791236,4.0,8.0,8.06225774829855,8.06225774829855,6.082762530298219,20.09975124224178,12.16552506059644,11.0,9.0,13.0,5.0,9.0,1.0,1.0,4.123105625617661,4.0,4.0,15.0,11.0,14.142135623730953,{},{}
419,419,15,0,13.96666666666662,4.0,28.284271247461906,3.0,7.071067811865476,8.06225774829855,8.06225774829855,6.324555320336759,20.223748416156685,13.152946437965904,11.0,9.0,13.0,5.0,9.0,1.0,1.0,4.123105625617661,4.0,3.5,15.0,11.0,14.142135623730953,{},{}
420,420,15,0,13.999999999999954,3.0,27.29468812791236,5.0,7.071067811865476,7.071067811865476,8.06225774829855,5.385164807134504,20.223748416156685,13.152946437965904,11.5,9.0,13.0,6.0,9.0,1.0,1.0,4.123105625617661,4.0,4.5,15.0,11.0,14.142135623730953,{},{}
421,421,15,0,14.033333333333289,4.123105625617661,27.16615541441225,4.0,7.071067811865476,7.071067811865476,8.0,5.0990195135927845,20.223748416156685,13.152946437965904,11.0,9.0,12.0,5.5,9.5,1.5,1.5,5.0990195135927845,4.0,4.0,16.0,12.0,14.142135623730953,{},{}
422,422,15,0,14.06666666666662,3.1622776601683795,28.284271247461906,4.0,8.06225774829855,7.071067811865476,8.06225774829855,6.082762530298219,21.213203435596427,13.152946437965904,11.5,9.0,13.0,5.0,10.0,1.0,1.0,4.123105625617661,4.123105625617661,4.0,16.0,12.0,13.038404810405298,{},{}
423,423,15,0,14.099999999999952,2.0,27.16615541441225,4.0,7.071067811865476,7.071067811865476,8.06225774829855,6.082762530298219,19.1049731745428,12.041594578792296,11.0,9.0,12.0,4.5,8.5,1.5,0.5,4.123105625617661,4.0,4.0,15.0,11.0,14.0356688476182,{},{}
424,424,15,0,14.133333333333288,0.0,28.16025568065745,4.123105625617661,6.0,7.0,7.071067811865476,6.082762530298219,16.1245154965971,10.198039027185567,10.0,9.0,12.0,4.5,5.5,1.5,0.5,3.0,4.0,4.0,15.0,11.0,14.0356688476182,{},{}
425,425,15,0,14.16666666666662,1.0,28.16025568065745,4.0,6.0,7.071067811865476,7.071067811865476,6.082762530298219,16.1245154965971,10.198039027185567,10.0,9.0,12.0,4.5,5.5,1.5,0.5,3.1622776601683795,4.0,4.0,15.0,11.0,14.0356688476182,{},{}
426,426,15,0,14.199999999999951,0.0,28.16025568065745,4.0,6.082762530298219,8.06225774829855,8.06225774829855,6.082762530298219,16.1245154965971,10.04987562112089,10.0,9.0,12.0,4.5,5.5,1.5,0.5,3.1622776601683795,3.0,3.5,15.0,11.0,14.0356688476182,{},{}
427,427,15,0,14.233333333333286,0.0,28.16025568065745,3.0,6.082762530298219,8.06225774829855,8.06225774829855,7.071067811865476,16.1245154965971,10.04987562112089,10.0,9.0,12.0,3.5,5.5,1.5,0.5,3.1622776601683795,4.0,4.0,15.0,11.0,15.132745950421556,{},{}
428,428,15,0,14.26666666666662,2.23606797749979,28.16025568065745,4.0,7.0,7.0,8.06225774829855,6.082762530298219,19.1049731745428,12.16552506059644,11.0,9.0,12.0,4.5,8.5,1.5,0.5,3.1622776601683795,4.0,3.5,15.0,11.0,13.038404810405298,{},{}
429,429,15,0,14.299999999999953,3.1622776601683795,28.16025568065745,4.0,7.0,7.0,8.0,6.082762530298219,20.09975124224178,13.152946437965904,11.5,9.0,12.0,4.5,9.5,1.5,0.5,3.0,4.0,3.5,15.0,11.0,14.0356688476182,{},{}
430,430,15,0,14.333333333333286,2.23606797749979,28.16025568065745,4.0,7.0,8.06225774829855,8.06225774829855,6.082762530298219,19.1049731745428,12.16552506059644,11.0,9.0,12.0,4.5,8.5,1.5,0.5,3.1622776601683795,4.0,4.0,15.0,11.0,14.142135623730953,{},{}
431,431,15,0,14.36666666666662,2.23606797749979,28.16025568065745,4.0,7.0,8.06225774829855,8.06225774829855,6.082762530298219,19.1049731745428,12.16552506059644,11.0,9.0,12.0,4.5,8.5,0.5,0.5,3.0,4.0,4.0,15.0,11.0,14.0356688476182,{},{}
432,432,15,0,14.399999999999952,2.23606797749979,28.16025568065745,4.0,7.0,8.06225774829855,8.06225774829855,6.082762530298219,19.1049731745428,12.16552506059644,11.0,9.0,12.0,4.5,8.5,1.5,0.5,4.0,4.0,3.5,15.0,11.0,14.142135623730953,{},{}
433,433,15,0,14.433333333333286,3.1622776601683795,28.16025568065745,3.0,7.0,8.0,8.06225774829855,6.082762530298219,19.1049731745428,12.16552506059644,10.5,9.0,12.0,4.5,8.5,0.5,1.5,4.123105625617661,4.0,4.0,15.0,11.0,14.0356688476182,{},{}
434,434,15,0,14.46666666666662,2.23606797749979,28.16025568065745,4.0,7.0,8.06225774829855,8.06225774829855,6.082762530298219,19.1049731745428,12.16552506059644,11.0,9.0,12.0,4.5,8.5,1.5,0.5,4.123105625617661,4.0,4.0,15.0,11.0,15.132745950421556,{},{}
435,435,15,0,14.499999999999952,3.1622776601683795,28.16025568065745,4.0,6.0,7.071067811865476,8.0,5.0990195135927845,18.110770276274835,12.16552506059644,10.5,8.0,11.0,4.5,8.5,1.5,0.5,4.123105625617661,4.0,4.0,16.0,12.0,14.142135623730953,{},{}
436,436,15,0,14.533333333333283,2.23606797749979,28.16025568065745,4.0,7.0,7.071067811865476,8.06225774829855,5.0990195135927845,18.110770276274835,11.180339887498947,10.0,8.0,11.0,4.5,8.5,1.5,0.5,4.123105625617661,4.0,4.0,16.0,12.0,14.142135623730953,{},{}
437,437,15,0,14.566666666666618,1.4142135623730951,28.16025568065745,4.0,7.0,7.071067811865476,8.06225774829855,6.082762530298219,18.110770276274835,11.180339887498947,10.5,8.0,11.0,3.5,8.5,1.5,0.5,4.123105625617661,4.0,4.0,15.0,11.0,14.142135623730953,{},{}
438,438,15,0,14.599999999999952,0.0,27.073972741361768,4.0,6.082762530298219,6.082762530298219,7.071067811865476,6.082762530298219,16.1245154965971,10.04987562112089,10.0,9.0,11.0,4.0,6.0,0.0,0.0,4.123105625617661,4.0,4.0,15.0,12.0,15.132745950421556,{},{}
439,439,15,0,14.633333333333283,0.0,27.073972741361768,4.0,6.082762530298219,7.071067811865476,7.071067811865476,6.082762530298219,16.1245154965971,10.04987562112089,10.0,9.0,11.0,4.0,6.0,0.0,0.0,4.123105625617661,4.0,4.0,15.0,11.0,14.142135623730953,{},{}
440,440,15,0,14.666666666666618,1.0,27.16615541441225,3.0,6.082762530298219,6.0,7.071067811865476,7.071067811865476,17.11724276862369,11.04536101718726,10.5,9.0,12.0,3.5,6.5,0.5,0.5,4.123105625617661,4.0,4.5,15.0,11.0,13.038404810405298,{},{}
441,441,15,0,14.699999999999951,1.0,26.1725046566048,4.0,6.082762530298219,6.082762530298219,8.0,6.082762530298219,17.11724276862369,11.04536101718726,10.5,8.0,11.0,3.5,7.5,1.5,0.5,3.1622776601683795,4.0,4.0,15.0,11.0,14.0356688476182,{},{}
442,442,15,0,14.733333333333285,3.0,27.073972741361768,3.1622776601683795,7.071067811865476,7.0,7.071067811865476,7.071067811865476,20.223748416156685,13.152946437965904,11.5,10.0,12.0,4.0,9.0,1.0,1.0,4.0,5.0,4.5,15.0,11.0,13.152946437965904,{},{}
443,443,15,0,14.766666666666618,2.0,27.16615541441225,4.0,7.071067811865476,7.071067811865476,8.0,7.071067811865476,20.09975124224178,13.038404810405298,12.0,10.0,13.0,4.5,8.5,0.5,0.5,3.1622776601683795,4.0,4.0,14.0,11.0,15.033296378372908,{},{}
444,444,15,0,14.799999999999953,3.1622776601683795,27.16615541441225,4.0,8.0,7.071067811865476,8.0,6.082762530298219,21.095023109728988,13.152946437965904,11.5,10.0,13.0,5.5,9.5,1.5,0.5,4.123105625617661,5.0,4.5,15.0,12.0,14.0356688476182,{},{}
445,445,15,0,14.833333333333284,2.23606797749979,26.0768096208106,4.0,8.0,7.071067811865476,8.0,6.082762530298219,20.09975124224178,12.16552506059644,11.0,10.0,12.0,5.0,9.0,1.0,1.0,4.123105625617661,4.0,4.0,15.0,12.0,13.038404810405298,{},{}
446,446,15,0,14.866666666666616,3.0,26.1725046566048,4.123105625617661,7.0,7.071067811865476,7.0,6.082762530298219,20.09975124224178,13.152946437965904,11.5,10.0,13.0,5.5,8.5,1.5,1.5,2.0,2.0,2.0,15.0,11.0,13.152946437965904,{},{}
447,447,15,0,14.89999999999995,4.0,26.1725046566048,4.0,7.071067811865476,7.071067811865476,7.0,6.082762530298219,21.095023109728988,14.0356688476182,12.0,10.0,13.0,5.5,9.5,1.5,1.5,2.23606797749979,2.0,2.0,15.0,12.0,12.041594578792296,{},{}
448,448,15,0,14.933333333333284,4.0,26.1725046566048,4.123105625617661,6.082762530298219,7.071067811865476,7.0,6.082762530298219,20.223748416156685,14.142135623730953,12.0,10.0,13.0,5.5,8.5,1.5,1.5,2.0,2.0,2.0,15.0,11.0,13.152946437965904,{},{}
449,449,15,0,14.966666666666615,3.1622776601683795,26.1725046566048,4.0,7.0,7.071067811865476,8.06225774829855,6.082762530298219,20.09975124224178,13.152946437965904,11.5,9.0,12.0,4.5,9.5,1.5,0.5,2.23606797749979,2.0,2.0,16.0,12.0,14.0356688476182,{},{}
450,450,15,0,14.99999999999995,0.0,26.1725046566048,4.0,7.071067811865476,7.071067811865476,7.071067811865476,7.280109889280518,18.24828759089466,11.180339887498947,11.0,9.0,12.0,3.5,7.5,0.5,0.5,1.4142135623730951,2.0,2.0,16.0,12.0,14.142135623730953,{},{}
451,451,15,0,15.033333333333283,0.0,26.1725046566048,4.0,6.0,7.071067811865476,7.0,6.082762530298219,16.0312195418814,10.04987562112089,10.0,9.0,12.0,4.5,5.5,0.5,0.5,2.23606797749979,2.0,2.0,15.0,12.0,14.142135623730953,{},{}
452,452,15,0,15.066666666666617,1.0,26.1725046566048,3.0,6.082762530298219,6.0,7.071067811865476,7.071067811865476,17.11724276862369,11.04536101718726,10.5,9.0,12.0,3.5,6.5,0.5,0.5,2.23606797749979,2.0,2.0,15.0,12.0,14.142135623730953,{},{}
453,453,15,0,15.09999999999995,1.4142135623730951,26.0768096208106,4.0,6.0,7.071067811865476,8.0,6.082762530298219,17.11724276862369,11.180339887498947,10.5,9.0,11.0,4.0,7.0,0.0,0.0,2.23606797749979,2.0,2.0,15.0,12.0,14.0356688476182,{},{}
454,454,15,0,15.133333333333283,2.0,27.073972741361768,4.0,7.071067811865476,7.071067811865476,8.0,7.071067811865476,20.09975124224178,13.038404810405298,12.0,10.0,12.0,4.0,9.0,2.0,0.0,1.4142135623730951,2.0,2.0,16.0,12.0,14.142135623730953,{},{}
455,455,15,0,15.166666666666616,2.23606797749979,27.073972741361768,5.0,7.0,7.071067811865476,8.06225774829855,6.082762530298219,20.09975124224178,13.152946437965904,12.0,10.0,12.0,5.0,9.0,1.0,0.0,2.23606797749979,2.0,2.0,15.0,12.0,14.142135623730953,{},{}
456,456,15,0,15.19999999999995,2.23606797749979,27.073972741361768,4.0,7.0,7.071067811865476,8.0,6.0,19.026297590440446,12.041594578792296,11.0,9.0,11.0,4.0,9.0,2.0,0.0,2.23606797749979,2.0,2.0,15.0,12.0,14.142135623730953,{},{}
457,457,15,0,15.233333333333285,2.0,28.0713376952364,4.0,6.082762530298219,8.06225774829855,8.0,6.0,18.027756377319943,12.0,11.0,9.0,11.0,4.0,8.0,1.0,0.0,2.0,2.0,2.0,15.0,12.0,14.142135623730953,{},{}
458,458,15,0,15.266666666666616,2.0,28.0713376952364,4.0,6.082762530298219,7.071067811865476,7.0,6.082762530298219,18.110770276274835,12.041594578792296,11.0,9.0,11.0,4.0,8.0,1.0,0.0,2.23606797749979,2.0,2.0,15.0,12.0,14.0356688476182,{},{}
459,459,15,0,15.29999999999995,1.0,28.0178514522438,4.0,7.071067811865476,8.06225774829855,7.071067811865476,6.082762530298219,18.110770276274835,11.04536101718726,10.5,9.0,10.0,3.5,8.5,1.5,0.5,2.23606797749979,3.0,2.5,15.0,12.0,13.152946437965904,{},{}
460,460,15,0,15.333333333333282,1.0,29.017236257093817,4.0,7.071067811865476,8.06225774829855,8.0,6.082762530298219,18.110770276274835,11.04536101718726,10.5,9.0,10.0,3.5,8.5,1.5,0.5,2.23606797749979,2.0,1.5,15.0,13.0,14.0356688476182,{},{}
461,461,15,0,15.366666666666616,2.0,28.0713376952364,4.0,6.082762530298219,7.0,7.071067811865476,6.082762530298219,18.110770276274835,12.041594578792296,11.0,8.0,10.0,3.0,9.0,2.0,0.0,1.4142135623730951,2.0,2.0,16.0,13.0,14.0356688476182,{},{}
462,462,15,0,15.399999999999949,2.0,28.0713376952364,3.0,7.071067811865476,8.0,8.0,6.082762530298219,18.110770276274835,11.04536101718726,10.0,8.0,10.0,3.0,9.0,1.0,0.0,1.0,2.0,1.5,16.0,13.0,14.0356688476182,{},{}
463,463,15,0,15.433333333333282,2.0,29.068883707497267,3.0,6.082762530298219,7.0,7.0,6.082762530298219,17.11724276862369,11.04536101718726,10.0,8.0,10.0,3.0,8.0,2.0,0.0,2.23606797749979,2.0,2.0,15.0,12.0,13.038404810405298,{},{}
464,464,15,0,15.466666666666615,0.0,28.0713376952364,4.0,6.0,7.0,8.0,6.082762530298219,16.0312195418814,10.04987562112089,10.0,8.0,10.0,3.0,7.0,1.0,0.0,2.0,2.0,2.0,15.0,12.0,13.038404810405298,{},{}
465,465,15,0,15.499999999999948,1.0,28.0178514522438,3.0,5.0990195135927845,7.0,7.0,6.0,15.033296378372908,10.0,9.5,8.0,9.0,2.5,6.5,0.5,0.5,2.23606797749979,2.0,2.0,15.0,12.0,13.038404810405298,{},{}
466,466,15,0,15.533333333333282,0.0,28.0178514522438,3.0,6.082762530298219,7.071067811865476,7.0,7.0,16.0312195418814,10.0,10.0,9.0,10.0,2.5,6.5,0.5,0.5,2.23606797749979,2.0,2.0,15.0,12.0,14.0356688476182,{},{}
467,467,15,0,15.566666666666617,0.0,28.0713376952364,3.0,6.082762530298219,7.071067811865476,7.0,7.0,16.0312195418814,10.0,10.0,9.0,11.0,3.0,6.0,0.0,0.0,2.23606797749979,2.0,2.0,15.0,12.0,13.038404810405298,{},{}
468,468,15,0,15.599999999999948,0.0,28.0178514522438,3.0,6.082762530298219,6.082762530298219,7.0,7.0,16.0312195418814,10.0,10.0,9.0,10.0,2.5,6.5,0.5,0.5,2.23606797749979,2.23606797749979,2.0,15.0,12.0,13.038404810405298,{},{}
469,469,15,0,15.63333333333328,0.0,28.0178514522438,3.0,6.082762530298219,7.0,8.0,7.0,16.0312195418814,10.0,10.0,9.0,10.0,2.5,6.5,0.5,0.5,2.23606797749979,2.0,2.0,15.0,12.0,14.142135623730953,{},{}
470,470,15,0,15.666666666666616,0.0,28.0713376952364,4.0,6.082762530298219,7.0,7.0,6.0,16.0312195418814,10.0,10.0,9.0,11.0,4.0,6.0,0.0,0.0,2.23606797749979,2.0,2.0,15.0,12.0,13.152946437965904,{},{}
471,471,15,0,15.699999999999948,1.0,28.0178514522438,3.0,6.0,7.0,8.0,7.0,16.0312195418814,10.04987562112089,10.0,9.0,10.0,2.5,6.5,0.5,0.5,2.23606797749979,2.0,2.0,15.0,12.0,13.152946437965904,{},{}
472,472,15,0,15.73333333333328,0.0,28.0713376952364,3.0,6.082762530298219,7.0,7.0,7.0,16.0312195418814,10.0,10.0,9.0,11.0,3.0,6.0,0.0,0.0,2.23606797749979,2.23606797749979,2.0,15.0,12.0,13.152946437965904,{},{}
473,473,15,0,15.766666666666614,0.0,28.0713376952364,4.0,6.082762530298219,6.082762530298219,7.0,6.082762530298219,16.1245154965971,10.04987562112089,10.0,9.0,11.0,4.0,6.0,0.0,0.0,2.23606797749979,3.0,2.5,15.0,12.0,13.038404810405298,{},{}
474,474,15,0,15.799999999999947,0.0,28.0178514522438,4.0,6.082762530298219,6.082762530298219,7.0,6.082762530298219,16.1245154965971,10.04987562112089,10.0,9.0,10.0,3.5,6.5,0.5,0.5,2.23606797749979,2.0,2.0,15.0,11.0,12.041594578792296,{},{}
475,475,15,0,15.83333333333328,0.0,28.0178514522438,4.0,6.082762530298219,7.071067811865476,7.0,6.0,16.0312195418814,10.0,10.0,9.0,10.0,3.5,6.5,0.5,0.5,2.23606797749979,2.23606797749979,2.0,16.0,12.0,13.038404810405298,{},{}
476,476,15,0,15.866666666666614,0.0,29.068883707497267,4.0,6.082762530298219,7.071067811865476,7.0,6.082762530298219,16.1245154965971,10.04987562112089,10.0,9.0,11.0,4.0,6.0,0.0,0.0,2.23606797749979,2.0,2.0,15.0,12.0,13.038404810405298,{},{}
477,477,15,0,15.899999999999949,0.0,28.0713376952364,4.0,6.082762530298219,8.06225774829855,8.0,6.082762530298219,16.1245154965971,10.04987562112089,10.0,9.0,11.0,4.0,6.0,0.0,0.0,2.23606797749979,2.0,2.5,15.0,12.0,13.038404810405298,{},{}
478,478,15,0,15.93333333333328,1.0,29.068883707497267,4.0,6.082762530298219,8.06225774829855,8.0,6.082762530298219,17.11724276862369,11.04536101718726,10.5,9.0,11.0,4.0,7.0,0.0,0.0,2.23606797749979,2.0,2.0,15.0,12.0,13.038404810405298,{},{}
479,479,15,0,15.966666666666612,1.0,28.0713376952364,4.0,6.082762530298219,8.0,7.071067811865476,6.082762530298219,17.11724276862369,11.04536101718726,10.5,9.0,11.0,4.0,7.0,0.0,0.0,2.23606797749979,2.0,2.0,15.0,12.0,12.041594578792296,{},{}
480,480,15,0,15.999999999999948,2.0,27.073972741361768,4.0,6.082762530298219,7.071067811865476,7.0,7.071067811865476,19.1049731745428,13.038404810405298,12.0,10.0,12.0,4.0,8.0,1.0,0.0,2.23606797749979,2.23606797749979,2.0,16.0,13.0,13.038404810405298,{},{}
481,481,15,0,16.03333333333328,2.0,27.073972741361768,4.0,6.082762530298219,7.071067811865476,7.071067811865476,6.082762530298219,18.110770276274835,12.041594578792296,11.0,9.0,11.0,4.0,8.0,1.0,0.0,2.23606797749979,2.0,1.5,16.0,13.0,14.0356688476182,{},{}
482,482,15,0,16.066666666666617,2.0,27.073972741361768,4.123105625617661,6.0,7.071067811865476,8.0,6.0,18.027756377319943,12.041594578792296,11.0,9.0,11.0,4.0,8.0,2.0,0.0,2.23606797749979,2.0,2.0,16.0,13.0,14.0356688476182,{},{}
483,483,15,0,16.09999999999995,2.0,27.073972741361768,4.0,7.071067811865476,7.071067811865476,7.0,6.082762530298219,19.1049731745428,12.041594578792296,11.0,9.0,11.0,4.0,9.0,2.0,0.0,2.23606797749979,2.0,1.5,15.0,12.0,14.0356688476182,{},{}
484,484,15,0,16.133333333333287,3.1622776601683795,27.073972741361768,4.0,6.0,7.071067811865476,8.06225774829855,7.0,20.024984394500787,14.0356688476182,12.5,10.0,12.0,4.0,9.0,2.0,0.0,2.23606797749979,2.0,1.5,15.0,12.0,15.033296378372908,{},{}
485,485,15,0,16.16666666666662,4.123105625617661,27.073972741361768,4.0,6.0,7.0,8.0,5.0,19.026297590440446,13.038404810405298,11.0,9.0,11.0,5.0,9.0,2.0,1.0,2.0,2.0,2.0,15.0,12.0,14.0356688476182,{},{}
486,486,15,0,16.199999999999957,3.0,28.0713376952364,5.0,6.082762530298219,7.071067811865476,8.0,6.082762530298219,20.09975124224178,14.0356688476182,12.5,10.0,12.0,5.0,9.0,2.0,0.0,2.0,2.23606797749979,2.0,15.0,12.0,14.142135623730953,{},{}
487,487,15,0,16.23333333333329,4.0,27.073972741361768,4.123105625617661,6.0,7.0,8.0,6.082762530298219,20.09975124224178,14.142135623730953,12.0,10.0,12.0,5.0,9.0,2.0,1.0,2.0,2.0,2.0,15.0,12.0,14.0356688476182,{},{}
488,488,15,0,16.266666666666627,4.0,28.0713376952364,4.123105625617661,6.0,7.0,8.0,6.082762530298219,20.09975124224178,14.142135623730953,12.0,10.0,12.0,5.0,9.0,2.0,1.0,2.23606797749979,2.0,2.0,15.0,12.0,13.152946437965904,{},{}
489,489,15,0,16.29999999999996,3.1622776601683795,28.0713376952364,5.0,6.0,7.071067811865476,8.0,6.082762530298219,20.09975124224178,14.142135623730953,12.5,10.0,12.0,5.0,9.0,2.0,0.0,2.23606797749979,2.0,2.0,15.0,12.0,14.142135623730953,{},{}
490,490,15,0,16.333333333333297,4.0,28.0713376952364,4.123105625617661,6.0,7.0,8.0,6.0,20.024984394500787,14.0356688476182,12.0,10.0,12.0,5.0,9.0,2.0,1.0,2.0,2.0,2.0,15.0,12.0,14.0356688476182,{},{}
491,491,15,0,16.36666666666663,4.0,27.073972741361768,4.0,6.082762530298219,7.0,8.0,6.082762530298219,20.09975124224178,14.0356688476182,12.0,10.0,12.0,5.0,9.0,2.0,1.0,2.0,3.0,2.5,16.0,12.0,14.0356688476182,{},{}
492,492,15,0,16.399999999999967,4.123105625617661,27.073972741361768,4.0,6.0,7.0,8.0,6.082762530298219,20.09975124224178,14.142135623730953,12.0,10.0,12.0,5.0,9.0,2.0,1.0,2.23606797749979,2.0,2.0,16.0,12.0,14.0356688476182,{},{}
493,493,15,0,16.4333333333333,4.0,27.16615541441225,5.0,6.082762530298219,7.071067811865476,7.0,6.082762530298219,21.095023109728988,15.033296378372908,13.0,10.0,13.0,5.5,9.5,2.5,0.5,2.23606797749979,3.0,2.5,16.0,13.0,14.0356688476182,{},{}
494,494,15,0,16.466666666666637,4.0,28.0713376952364,5.0990195135927845,6.0,7.071067811865476,8.06225774829855,6.0,21.02379604162864,15.033296378372908,13.0,11.0,13.0,6.0,9.0,2.0,1.0,2.23606797749979,3.0,2.5,16.0,13.0,14.0356688476182,{},{}
495,495,15,0,16.49999999999997,4.123105625617661,28.0713376952364,5.0,6.0,7.071067811865476,8.0,6.082762530298219,21.095023109728988,15.132745950421556,13.0,11.0,13.0,6.0,9.0,2.0,1.0,2.0,3.0,2.5,15.0,12.0,14.0356688476182,{},{}
496,496,15,0,16.533333333333307,5.0,28.16025568065745,4.0,6.082762530298219,7.0,8.0,6.082762530298219,21.095023109728988,15.033296378372908,12.5,10.0,13.0,5.5,9.5,2.5,1.5,2.23606797749979,2.0,2.0,15.0,12.0,14.142135623730953,{},{}
497,497,15,0,16.56666666666664,5.0,28.16025568065745,4.0,6.082762530298219,7.071067811865476,8.06225774829855,6.082762530298219,21.095023109728988,15.033296378372908,12.5,10.0,13.0,5.5,9.5,2.5,1.5,2.0,2.0,2.0,16.0,12.0,14.142135623730953,{},{}
498,498,15,0,16.599999999999977,5.0,26.1725046566048,5.0,7.071067811865476,7.071067811865476,8.06225774829855,6.082762530298219,23.08679276123039,16.0312195418814,13.5,11.0,14.0,6.5,10.5,3.5,1.5,2.23606797749979,2.0,2.0,16.0,12.0,14.0356688476182,{},{}
499,499,15,0,16.63333333333331,7.0,26.1725046566048,4.0,6.082762530298219,7.071067811865476,8.0,6.082762530298219,23.08679276123039,17.029386365926403,13.5,11.0,14.0,6.5,10.5,3.5,1.5,2.23606797749979,3.0,2.5,16.0,13.0,14.142135623730953,{},{}
500,500,15,0,16.666666666666647,7.0,28.16025568065745,5.0,7.071067811865476,7.071067811865476,8.06225774829855,5.0990195135927845,24.08318915758459,17.029386365926403,13.5,11.0,14.0,7.5,11.5,3.5,2.5,2.0,2.0,2.0,16.0,12.0,14.0356688476182,{},{}
501,501,15,0,16.69999999999998,8.0,27.073972741361768,4.0,6.082762530298219,7.0,8.06225774829855,6.082762530298219,24.08318915758459,18.027756377319943,14.0,12.0,14.0,7.0,11.0,4.0,3.0,2.23606797749979,2.0,2.0,16.0,13.0,14.142135623730953,{},{}
502,502,15,0,16.733333333333317,6.0,27.073972741361768,4.0,7.071067811865476,8.0,8.06225774829855,6.082762530298219,23.08679276123039,16.0312195418814,13.0,11.0,13.0,6.0,11.0,4.0,2.0,2.23606797749979,3.0,2.5,16.0,12.0,14.142135623730953,{},{}
503,503,15,0,16.76666666666665,5.0,28.16025568065745,4.0,6.082762530298219,8.06225774829855,8.0,6.082762530298219,21.095023109728988,15.033296378372908,12.5,10.0,13.0,5.5,9.5,2.5,1.5,2.0,3.0,2.5,16.0,12.0,14.0356688476182,{},{}
504,504,15,0,16.799999999999986,4.123105625617661,28.0713376952364,4.0,7.0,7.071067811865476,8.06225774829855,6.082762530298219,21.095023109728988,14.142135623730953,12.0,10.0,12.0,5.0,10.0,3.0,1.0,2.23606797749979,3.0,2.5,16.0,12.0,14.142135623730953,{},{}
505,505,15,0,16.83333333333332,3.1622776601683795,29.154759474226505,4.0,7.0,7.071067811865476,8.06225774829855,6.082762530298219,20.09975124224178,13.152946437965904,11.5,9.0,12.0,4.5,9.5,2.5,0.5,2.0,2.0,2.0,16.0,12.0,14.0356688476182,{},{}
506,506,15,0,16.866666666666656,3.0,29.154759474226505,4.123105625617661,6.0,7.0,9.0,6.0,19.026297590440446,13.038404810405298,11.5,9.0,12.0,4.5,8.5,1.5,1.5,2.0,3.0,2.5,16.0,12.0,14.0356688476182,{},{}
507,507,15,0,16.89999999999999,3.0,29.154759474226505,4.0,7.071067811865476,8.06225774829855,8.06225774829855,5.0990195135927845,19.1049731745428,12.041594578792296,10.5,9.0,12.0,5.5,8.5,1.5,0.5,2.23606797749979,3.1622776601683795,2.5,16.0,12.0,14.0356688476182,{},{}
508,508,15,0,16.933333333333326,3.0,29.154759474226505,4.0,7.071067811865476,7.0,8.06225774829855,5.0990195135927845,19.1049731745428,12.041594578792296,10.5,9.0,12.0,5.5,8.5,1.5,1.5,2.23606797749979,2.23606797749979,2.0,16.0,12.0,14.0356688476182,{},{}
509,509,15,0,16.96666666666666,1.4142135623730951,28.16025568065745,5.0,6.0,7.0,8.0,6.082762530298219,18.110770276274835,12.16552506059644,11.5,9.0,12.0,4.5,7.5,0.5,0.5,2.23606797749979,3.1622776601683795,2.5,16.0,12.0,14.0356688476182,{},{}
510,510,15,0,16.999999999999996,0.0,27.29468812791236,4.123105625617661,6.0,7.071067811865476,7.071067811865476,6.082762530298219,16.1245154965971,10.198039027185567,10.0,8.0,12.0,4.0,6.0,0.0,0.0,2.23606797749979,3.0,2.5,18.0,13.0,13.152946437965904,{},{}
511,511,15,0,17.03333333333333,1.0,27.16615541441225,3.0,5.0990195135927845,6.0,8.06225774829855,7.071067811865476,16.1245154965971,11.04536101718726,10.5,9.0,12.0,3.5,5.5,0.5,0.5,2.0,3.0,3.0,17.0,12.0,13.038404810405298,{},{}
512,512,15,0,17.066666666666666,1.0,27.16615541441225,4.0,6.082762530298219,6.082762530298219,8.06225774829855,7.071067811865476,18.110770276274835,12.041594578792296,11.5,10.0,13.0,4.5,6.5,0.5,0.5,3.1622776601683795,2.0,2.5,18.0,13.0,15.132745950421556,{},{}
513,513,15,0,17.1,4.123105625617661,26.1725046566048,4.0,7.071067811865476,7.071067811865476,7.071067811865476,6.082762530298219,21.213203435596427,14.142135623730953,12.0,10.0,13.0,5.5,9.5,2.5,0.5,2.23606797749979,2.0,2.0,18.0,12.0,14.142135623730953,{},{}
514,514,15,0,17.133333333333336,6.0,26.30589287593181,4.123105625617661,7.071067811865476,7.071067811865476,8.06225774829855,7.071067811865476,24.186773244895647,17.11724276862369,14.0,12.0,16.0,7.0,10.0,3.0,3.0,2.23606797749979,2.0,2.5,18.0,12.0,14.142135623730953,{},{}
