,video_id,frame_seq,gap,time_seconds,m1,m3,m4,m5,m6,m7,m8,m9,m10,m11,m12,m13,m14,m15,m16,m17,e1,e2,e3,b1,b2,b3,m_0_16,m_1_15,m_2_14,m_3_13
0,15,0,0,0.0,5.374092149004537,161.31230780637748,16.12227644701384,27.402600735620155,42.992737192036735,42.99273719203674,32.24455289402755,80.79032004067298,53.74092149004592,50.8955138833403,44.269228142296015,36.938018386246995,8.459088180056597,40.18066885526855,9.304996998062165,5.9213617260395495,22.15794957214855,16.12227644701384,16.07226754210751,72.32520393948346,72.7481583484863,80.79032004067298,400.00000000000006,405.3433718435186,388.7590179111222,366.4248190481103
1,15,1,0,0.0333333333333333,7.600114002565055,161.31230780637745,16.122276447013743,26.870460745023024,38.00057001282529,43.32731606838263,32.24455289402761,80.79032004067312,54.00895767393847,51.099988432439204,44.66517507428023,36.56207677141333,8.481616735699845,40.165011483933654,9.378845613525755,6.238544541134502,22.15794957214841,21.496368596018563,21.421339458098146,71.35773418960639,67.8809722880303,76.00114002565057,400.00000000000006,399.4581167076345,388.2758333243035,361.0654110364649
2,15,2,0,0.0666666666666666,5.446842044943355,158.05230247319298,16.340526134830057,27.773553874623694,43.57473635954672,38.514989460314375,32.68105226966001,81.88399078781599,54.46842044943342,51.58107725637137,44.5052855834648,37.37173234588158,8.36098648696509,40.93850896467313,9.660621692192649,6.19492781158533,17.224426917190236,16.34052613483017,16.07215537131617,73.6459949629043,73.81927965693455,77.02997892062875,399.9999999999999,399.443336001568,387.683550254769,360.151193089685
3,15,3,0,0.0999999999999999,0.0,158.05230247319304,16.340526134830057,33.131846699434135,43.913844480602755,43.57473635954682,32.681052269660114,81.88399078781596,49.02157840449017,48.88621665492917,44.09005119114761,37.791472449555044,8.349950717065212,40.94076182035133,9.563438364528224,6.3274713046274655,22.457905077356727,21.787368179773296,21.727207402190515,73.79160599095081,73.27153985632395,76.4500712081083,399.99999999999994,393.5319818395662,382.6769965179627,360.15119308968497
4,15,4,0,0.1333333333333332,0.0,166.25275055951127,16.58845269611176,28.194947999261483,44.23587385629803,38.70638962426077,33.176905392223524,77.61000957900124,49.76535808833528,49.604315150709795,40.18127320451754,37.86996102903652,5.956073682970555,38.581134006107504,12.356630476610462,3.2891750189538698,22.798647543876978,22.798647543876925,21.824120733869677,73.78419637112745,74.58426597033235,77.61000957900124,400.0,400.0,388.05004789500634,365.61558549097424
5,15,5,0,0.1666666666666665,5.46103711529688,163.92210547561942,16.383111345890626,32.76622269178148,44.0282887965485,43.68829692237534,32.76622269178159,82.0973894875532,49.45179433267657,49.22486219910695,43.292224083905126,39.123343246195645,8.498103246099845,40.887100523688105,9.139469528824407,6.574004397926274,22.51643285178747,21.84414846118773,21.64611204195262,69.90892481697256,71.5123405237839,76.64930851485975,400.0,394.14162871429164,382.8962079438526,355.3452831687375
6,15,6,0,0.1999999999999998,5.529484232037275,165.97665944639937,12.364302623348568,27.647421160186262,38.7063896242607,44.58012709383695,38.7063896242607,83.12637527975573,55.57062878092355,52.78571491440596,44.68616507268757,38.81946410625369,3.1376634521972164,41.37337621850736,9.41299035659165,6.756921759847955,22.117936928148985,22.798647543876932,21.87608146438879,75.5374233887103,73.78616936887926,72.09565381005471,399.99999999999994,400.00000000000006,382.97416962460534,360.0963838955208
7,15,7,0,0.2333333333333331,5.606619719210024,162.68860899599906,12.536782816144292,28.033098596050348,39.246338034470384,45.20201327296457,39.246338034470504,84.28597591971464,56.3458308329847,53.52828798387873,45.601374039039456,39.49044401610877,3.4013667108764594,41.738805062281244,9.396996167336738,6.572132288812213,23.11668530497376,23.116685304973867,22.16653390393253,76.21367443692793,74.77241735604798,78.69265773335837,399.99999999999994,399.48886792902516,382.2793802416719,359.52380642599104
8,15,8,0,0.2666666666666664,0.0,162.68860899599892,16.819859157630074,28.033098596050337,39.246338034470355,44.852957753680414,34.10373634964199,78.69265773335839,50.77010088052278,50.749672024729534,40.89928165443598,33.12265767788824,3.024242657546324,41.676944052090676,9.994401925414877,6.307706114310804,17.72968828711749,16.819859157630084,16.762945016113804,69.47117419049255,75.80768261582773,79.28957645975287,400.0,399.4888679290252,387.87112274381326,370.71586883049736
9,15,9,0,0.2999999999999997,0.0,162.68860899599898,16.81985915763012,28.033098596050255,39.24633803447025,39.644788229876376,34.103736349642006,78.69265773335836,50.77010088052283,50.7443142712674,40.59545141701403,33.38828794080496,3.0152418624957136,41.698588683780486,9.928235400900007,6.398196147246608,17.729688287117483,16.819859157630127,16.767686454853674,69.8653602285566,70.30661513526331,78.69265773335836,399.99999999999994,399.4888679290252,382.2793802416718,359.9170391202895
10,15,10,0,0.333333333333333,0.0,162.68860899599898,16.819859157630063,28.033098596050284,39.24633803447029,44.85295775368035,34.103736349642034,78.69265773335836,50.77010088052278,50.752673231488416,41.086904945701235,32.95820072982508,3.0297897531902436,41.6633039719178,9.562312050312357,6.251712515119152,17.729688287117455,16.819859157630177,16.75991014691556,69.22700099484325,70.91185968686125,79.2895764597528,400.0,399.4888679290253,387.87112274381326,359.523806425991
11,15,11,0,0.3666666666666663,5.529484232037271,160.45035034089983,16.5884526961117,27.64742116018624,38.70638962426078,39.09935796937621,33.63453949851102,83.12637527975566,55.57062878092351,52.81498590876163,46.55728615653857,37.546198513337686,8.510471663023168,41.05051037458247,10.012319603556648,6.007391762134034,17.485764459224647,22.79864754387706,21.776795137735917,67.58315732400774,70.58685320507465,77.61000957900123,399.99999999999994,394.4968276048035,382.97416962460534,360.0963838955207
12,15,12,0,0.3999999999999997,0.0,160.5060594555583,16.564728911227046,27.607881518711707,38.65103412619626,44.51637133766822,39.043440472151424,83.00749304995925,55.49115508513879,55.485104990946866,46.00347312540521,43.428215087850845,5.7358019927349915,38.277699012742005,7.140488195037506,3.3946583222310664,17.460757394239465,16.564728911227046,19.255906689896165,68.12728081166892,69.88313856454698,77.49901651618302,400.00000000000006,393.42926348436987,381.9877408325317,359.5813961925795
13,15,13,0,0.433333333333333,5.598376706098662,162.44941953707746,16.795130118296203,28.546232068840617,39.18863694269109,39.58650132519206,33.59026023659243,84.16205626056117,55.9837670609873,52.993008238678954,46.16860068274593,37.97931161562656,8.604687787915395,42.073956149186074,10.028911973501408,6.705722207134045,17.703621590902973,17.703621590903193,19.286369179810436,69.54961439611594,70.85515323290304,72.99390177525844,400.00000000000006,399.41190852783706,387.74568843900283,364.9695088762931
14,15,14,0,0.4666666666666663,5.606619719210088,162.688608995999,16.81985915763015,28.58826335354609,44.85295775368038,39.644788229876355,33.63971831526031,84.28597591971459,56.06619719210055,53.02546525105981,47.003182494014254,37.25002212650634,8.636834783275162,42.12660231026018,10.223192192448096,5.9929057679868265,17.729688287117437,22.426478876840136,22.326511684656793,68.09586063820313,71.44483739090163,73.74356886481316,400.00000000000006,400.00000000000006,382.27938024167184,365.50688758530754
15,15,15,0,0.4999999999999996,7.917300265038337,162.44941953707755,16.79513011829615,27.991883530493702,39.18863694269103,45.13555597663852,33.59026023659242,84.16205626056124,56.2629895764726,53.22332123333467,46.47917027069059,37.662141739441495,8.61266032025992,42.07065600506587,10.101628714609888,6.627369127793145,16.795130118296036,22.39350682439487,22.305330456537376,68.6385234336642,70.76979191969463,78.5769615310213,400.00000000000006,400.00000000000006,393.3233175459693,364.96950887629316
16,15,16,0,0.533333333333333,7.928957645975275,157.08543844204812,16.819859157630187,28.03309859605028,39.24633803447036,39.64478822987636,28.033098596050166,78.69265773335835,50.77010088052278,47.70906211229169,41.38194912772144,32.23466799991286,8.898872534880866,41.86415404340448,9.950955987280395,6.268663903881475,16.81985915763019,22.426478876840175,22.327548823149073,68.15162808322464,71.39555206145701,78.69265773335835,400.0,393.90244421673935,387.8711227438131,365.50688758530754
17,15,17,0,0.5666666666666663,5.677329558036473,164.74041309492992,11.354659116073162,28.386647790183027,39.7413069062562,45.77209421892498,34.53384750777963,79.68511761539622,51.41040570415279,48.57709962093679,42.43652808798265,32.641206751077334,3.0924806033432333,42.12580037185705,10.342793979602448,6.081385301311229,17.953292430792743,22.70931823214644,22.609140487600257,69.54382218044555,72.82865803662833,74.02332101976052,400.00000000000006,405.0447394235975,392.7628946042651,364.45625831147606
18,15,18,0,0.5999999999999996,5.677329558036473,164.74041309492992,11.354659116073275,28.386647790183027,45.41863646429289,40.14478229518508,39.7413069062562,85.15994337054897,56.77329558036595,53.69670865805051,47.55613712509626,37.76081578819094,3.0924806033432333,42.12580037185717,10.342793979602448,6.081385301311343,17.953292430792754,22.70931823214645,22.609140487600143,69.54382218044566,72.29598195184201,74.02332101976052,400.0000000000001,393.7464426249136,387.5583187640165,364.45625831147606
19,15,19,0,0.633333333333333,5.677329558036473,164.74041309492992,11.354659116073275,28.386647790183027,45.41863646429289,40.14478229518508,39.7413069062562,85.15994337054897,56.77329558036595,53.69670865805051,47.55613712509626,37.76081578819094,3.0924806033432333,42.12580037185717,10.342793979602448,6.081385301311343,17.953292430792754,22.70931823214645,22.609140487600143,69.54382218044566,72.29598195184201,74.02332101976052,400.0000000000001,393.7464426249136,387.5583187640165,364.45625831147606
20,15,20,0,0.6666666666666663,5.677329558036473,164.74041309492992,17.03198867410986,28.94881420152568,39.7413069062563,39.74130690625631,34.06397734821961,85.34897788366098,56.77329558036595,53.69670865805051,47.55613712509626,37.76081578819094,8.74476572524327,42.658476456643484,10.342793979602448,6.614061386097774,17.953292430792754,22.70931823214645,22.609140487600143,69.54382218044566,72.29598195184201,74.02332101976052,400.0000000000001,405.0447394235976,387.5583187640165,364.45625831147606
21,15,21,0,0.6999999999999996,5.677329558036464,164.74041309492998,17.031988674109858,28.386647790183,39.74130690625627,45.772094218925005,34.06397734821958,85.1599433705489,56.773295580365904,53.74638184966989,46.71151511541984,38.62512093247153,8.723234750469942,42.194390159743534,10.145018343076345,6.353595429459574,17.95329243079291,17.031988674109847,16.9725416367379,70.67449274913872,71.23728208787861,74.02332101976053,400.00000000000006,405.04473942359755,393.21399283079575,364.456258311476
22,15,22,0,0.733333333333333,5.677329558036473,164.74041309492992,17.03198867410986,28.386647790183027,34.06397734821961,40.14478229518508,34.06397734821961,85.15994337054897,56.77329558036595,53.69670865805051,47.55613712509626,37.76081578819094,8.74476572524327,42.12580037185717,9.81011789481613,6.614061386097774,17.953292430792754,22.70931823214645,22.609140487600143,69.01114609565923,72.29598195184201,74.67361158753602,400.0000000000001,405.0447394235976,387.5583187640165,364.45625831147606
23,15,23,0,0.7666666666666663,5.598376706098649,162.44941953707746,16.795130118296285,27.99188353049357,39.188636942690984,45.1355559766384,33.590260236592336,83.97565059148084,55.98376706098727,53.01609611676406,45.7434513527063,38.41143805996239,8.593594527325536,41.63218074118777,9.929386422764537,6.367274701593487,17.703621590903055,16.795130118296278,16.741925089504548,70.11423237838562,69.84707399929778,78.57696153102121,400.00000000000006,399.411908527837,382.16866606799687,364.96950887629316
24,15,24,0,0.7999999999999996,5.677329558036464,164.74041309492998,17.031988674109858,28.386647790183,39.74130690625627,39.74130690625627,34.06397734821958,85.1599433705489,56.773295580365904,53.74638184966989,46.71151511541984,38.62512093247153,8.723234750469942,42.194390159743534,10.145018343076345,6.353595429459574,17.95329243079291,17.031988674109847,19.8012985761942,70.20056488493663,71.23728208787861,85.91358587858686,400.00000000000006,404.52716103235,387.100629892506,364.456258311476
25,15,25,0,0.8333333333333329,5.677329558036405,159.0665762025023,17.031988674109904,28.386647790183044,34.53384750777965,39.741306906256206,34.063977348219574,85.15994337054893,56.77329558036588,53.72225853276586,46.63133490719554,38.19328382875074,8.48246187359473,42.412309367972966,9.992428908684701,6.972494838504417,23.408229439226243,17.03198867410978,16.964923747189232,75.76481652540531,72.27116730696139,74.67361158753597,400.0000000000001,405.0447394235976,393.2139928307959,364.45625831147606
26,15,26,0,0.8666666666666663,5.598376706098662,156.85448692517616,16.795130118296203,27.99188353049354,39.58650132519206,39.188636942691076,33.59026023659243,83.97565059148083,55.9837670609873,52.993008238678954,45.693859287550595,37.97931161562656,8.36731709031767,41.83658545158846,9.791541275903796,6.468351509536433,23.082698491242514,16.795130118296328,16.734634180635453,74.65308439446574,70.38041183770775,73.6351489548725,400.0,399.41190852783683,387.74568843900283,364.5828657708863
27,15,27,0,0.8999999999999996,5.521576303742326,160.22088411726202,16.564728911226997,27.607881518711668,33.12945782245389,38.65103412619621,33.12945782245389,82.82364455613488,55.21576303742321,52.23489961944949,46.06776353351165,36.91365310233641,8.500245400377025,40.985448975943655,10.016023426318384,6.479208032455176,22.76604232023721,22.086305214969336,19.244436701902487,72.87622979623916,70.5877021884454,83.00749304995921,400.00000000000006,393.93264250283744,381.9877408325317,359.96273519866924
28,15,28,0,0.9333333333333328,0.0,165.2835449534229,17.05778040359982,34.586142496357446,34.11556080719964,39.80148760839961,34.586142496357326,86.04368577525175,51.48825705212308,51.47487355399085,41.96640204230721,38.82625867270815,5.913447560506938,45.56142599348402,12.575247045544529,3.917842428425274,23.443676780877784,22.743707204799687,19.823989216488485,70.31573377158617,66.61799485037591,74.78669066637764,400.0000000000001,400.0000000000001,393.80944114448585,365.00815846859655
29,15,29,0,0.9666666666666662,0.0,164.74041309492998,17.03198867410979,34.06397734821946,34.06397734821969,39.741306906256206,34.53384750777965,85.348977883661,51.41040570415295,51.39809358659784,47.63797959725571,38.696606173780765,8.73412304610963,42.16064819545795,9.740767736169687,1.0658590835930681,23.408229439226133,22.70931823214631,19.7924110383874,75.76481652540531,77.42281954432775,79.68511761539618,400.00000000000006,405.0447394235975,387.10062989250605,364.45625831147606
30,15,30,0,0.9999999999999996,5.685926801199841,164.98988133096043,17.05778040359988,28.429634005999688,39.8014876083996,39.80148760839971,34.586142496357354,85.4782227881724,57.142857142857075,54.301909756172336,47.21905196188891,39.19181312836781,8.735524612949462,42.26105150589058,10.152096171806193,6.374572014855062,23.443676780877723,22.743707204799723,22.66514494170667,76.49486417826006,76.96705469787901,79.80578567343939,400.0,405.13974100221424,387.68682067284533,365.0081584685965
31,15,31,0,1.0333333333333328,5.677329558036517,164.74041309492992,17.031988674109776,28.386647790182924,39.7413069062563,39.74130690625619,34.53384750777965,85.34897788366096,57.056455918381026,54.22713367547203,47.80211783714594,38.55009502995654,8.738021540123441,42.14810389941886,9.766024074255597,6.1680152047930505,23.408229439226144,23.40822943922615,19.532048148511194,69.9041723209877,71.96017738925195,74.0233210197604,400.00000000000006,405.04473942359766,393.21399283079586,364.45625831147606
32,15,32,0,1.066666666666666,5.758526005989541,167.3939227947091,17.275578017968613,28.792630029947798,35.02774621898106,40.309682041926884,34.551156035937346,86.37789008984329,57.5852600598955,54.49058746704384,47.80877114771772,44.475370646840474,11.726963023356575,39.89569878752707,7.522674103331269,3.9490285213096286,23.7430109705611,23.034104023958147,22.688144850565777,71.112544018716,72.79425958672618,75.08199317733815,399.99999999999994,405.10729084829563,393.1011287306695,363.9279095041519
33,15,33,0,1.0999999999999992,5.767498007284815,161.5929024192155,17.30249402185411,34.60498804370834,40.37248605099304,40.37248605099304,34.60498804370834,92.2799681165556,57.67498007284726,54.59594524263207,47.526294856159325,39.650856361120645,9.106925981714426,48.362490063161545,9.593439556697604,6.18784453181604,23.78000347957432,23.06999202913881,22.987766417950297,71.699938113131,72.46011557404199,75.19897376218407,399.99999999999983,405.7384633279185,393.24863718071623,364.08401854128755
34,15,34,0,1.1333333333333324,5.74840818078973,161.365507253007,17.24522454236907,34.96620189096721,46.34514839595456,40.23885726552774,34.490449084738124,92.15399356258652,57.48408180789692,54.36897685364704,48.15152703434046,44.495966176724096,11.985445434807843,45.784401560965875,13.064135523940536,3.0263249722889896,23.701294108560408,22.993632723158683,22.622528258199736,70.41449192949608,73.20110799308895,74.95007287658153,400.00000000000006,404.3955106545915,392.4104435618903,369.51132649053045
35,15,35,0,1.1666666666666656,16.7672353003509,156.89290811054718,16.767235300351004,33.99703687388954,44.71262746760272,45.060590905933395,33.53447060070213,100.75854437197562,67.06894120140403,58.44431504402769,52.11917272324547,49.08310440927005,17.20438711252757,50.095127180595,18.216409883852748,2.530056928312888,23.044360730977335,22.35631373380142,22.26450096915346,68.31153706444798,70.84159399276075,73.51284927276265,399.9999999999999,393.1868016500555,381.5339269924892,364.36333566215677
36,15,36,0,1.1999999999999988,16.795130118296107,162.44941953707755,16.795130118296335,34.053596058351644,39.18863694269113,39.586501325192195,33.59026023659232,100.92617136601073,67.18052047318477,58.5125109835858,52.62698976165643,42.64395376496623,14.199751201262416,53.208091856986016,21.381577097388686,0.9089032773106283,23.08269849124252,22.393506824394922,22.290480374699314,67.82504456258778,71.4904577792829,73.63514895487263,399.99999999999994,393.8409270353087,382.1686660679968,359.38787876680743
37,15,37,0,1.233333333333332,22.39350682439485,157.15392306204265,16.795130118296292,28.54623206884073,45.13555597663857,44.78701364878993,33.590260236592336,100.92617136601079,72.77889717928348,61.30180659079042,52.586752849159666,48.79244373715733,17.25224924363647,50.15602357428304,18.319398681387042,2.667873594376715,23.082698491242475,22.393506824394862,22.291566033014647,67.8825614569198,71.43972624942205,73.63514895487256,400.00000000000006,393.84092703530865,381.7173421329123,353.40792244572634
38,15,38,0,1.2666666666666653,23.082698491242528,157.15392306204268,16.795130118296285,33.59026023659234,39.1886369426911,44.78701364878986,33.59026023659234,106.51638123362419,72.99390177525868,61.622004593370434,50.80599809453406,50.51367359456549,17.159448148153956,55.83397949399307,17.97795674806582,7.220415149223186,12.518350878488059,12.518350878488146,10.962168748820659,76.3843918417823,69.60246344251186,78.57696153102117,400.00000000000006,400.0,382.70136269270876,353.80677783656864
39,15,39,0,1.2999999999999985,23.044360730977406,156.8929081105472,22.3563137338014,33.53447060070198,39.12354903415239,44.712627467602786,27.945392167251686,106.3394695311388,72.8726671324314,61.51965738989884,50.72161505865472,50.42977607672924,22.705072793805243,55.741245547773474,17.948097388419228,7.208422853560364,12.497559308772939,11.178156866900695,11.148249109554854,76.25752597713733,74.65241157654702,72.87266713243129,400.00000000000006,399.33564508881574,387.6258596979811,364.8345599719706
40,15,40,0,1.3333333333333317,22.709318232146295,165.03363269170268,17.95329243079274,34.06397734821962,40.144782295185166,45.41863646429284,34.06397734821962,108.01856169020805,74.0233210197605,62.706405231360804,54.0996437290172,49.26931839606925,17.7843796349448,56.22205940561537,24.546835101071792,2.5029867634366383,12.69489482243868,11.354659116073215,11.300033809199476,69.08828961064955,73.2745715658711,74.0233210197605,400.00000000000006,405.6411246389946,387.5583187640165,370.5952700047306
41,15,41,0,1.366666666666665,22.393506824394876,157.15392306204265,23.082698491242486,33.590260236592435,39.188636942691154,45.1355559766386,27.99188353049372,106.51638123362419,72.99390177525859,61.82934904101887,53.37531227361899,48.01421578697523,22.858301503492385,55.67292505360922,19.058403444277815,7.923818433555994,12.518350878488176,11.196753412197443,11.134585010721821,72.90502090353584,72.4337157178968,72.99390177525859,400.0000000000001,399.99999999999994,388.27073361985487,365.44151713862493
42,15,42,0,1.399999999999998,22.35631373380133,162.46827101404887,22.35631373380123,33.997036873889606,39.52075260876216,45.060590905933324,28.498819995163952,106.77919354148436,72.87266713243132,61.715584026620604,54.651576999551025,47.209660131527016,22.529240518431834,55.84344649794548,24.447859710969396,2.87792878880623,17.674217871028855,16.767235300350947,13.88091915813061,71.77379979355925,73.86683891269098,78.44645405527363,400.00000000000006,404.89006225720425,388.2297954467532,364.8345599719706
43,15,43,0,1.4333333333333311,27.9453921672515,157.38987770520976,16.767235300351057,33.99703687388975,45.060590905933346,45.060590905933346,33.997036873889634,112.33908618573024,78.44645405527353,64.48719607049168,54.85493134097521,53.22234409868429,20.080823080178448,58.28336454978614,21.386892874011096,6.040572796476454,17.674217871028766,16.767235300351057,16.652389871367518,72.16035610925894,73.46642590309159,79.04150521752425,399.99999999999994,399.3356450888157,387.62585969798107,359.26950920178706
44,15,44,0,1.4666666666666646,28.446108576965933,157.0987693833478,16.736222621507128,33.47244524301417,44.97724683583177,44.97724683583166,33.934155953610954,112.13130380902416,78.89531004743587,64.69691141216481,60.67636581336649,58.32000209245905,25.59600091835705,52.60582006925847,15.876000569613893,11.693454965003184,16.73622262150715,16.736222621507142,16.612364232397454,71.5450934760521,68.92363883654252,78.89531004743598,400.0,399.26015998968563,388.1937884981107,365.35429109801186
45,15,45,0,1.4999999999999978,23.001737880775206,162.64684834571625,22.314963495342806,33.47244524301433,33.934155953610976,44.6299269906855,28.44610857696594,106.5816947423567,73.37687990485215,61.933861137687245,56.064263889737504,51.21482334231291,25.252574557930302,52.90029963013728,21.940761501152565,5.352126457828376,17.641527637199008,16.736222621507213,16.588635043324302,75.16632848508044,74.8706308907253,72.7378818454242,400.00000000000006,405.524963488623,393.05386920431056,364.714851325895
46,15,46,0,1.533333333333331,22.314963495342987,157.0987693833478,23.001737880775085,33.93415595361097,39.447655023717964,39.447655023717964,33.47244524301426,112.13130380902433,78.30135949183025,67.10057115845643,60.69617824962336,56.91176425804008,25.617571635332638,53.2729046507485,16.010982272082856,5.676620987374918,17.641527637198962,22.314963495342777,19.35873311079115,69.86610445999804,69.13833253853966,84.4216683669886,400.00000000000017,400.00000000000017,388.1937884981106,365.35429109801197
47,15,47,0,1.5666666666666642,21.919864974047673,148.86961463697745,17.329174830334626,33.33333333333324,38.74921291460632,38.749212914606545,32.87979746107146,104.69460807969513,71.45001823026443,60.4237564264713,61.0064348876715,55.23791812178854,25.60871836975332,46.46860728072386,10.983488993625542,11.7992388393061,17.32917483033462,16.43989873053557,16.256729067488322,72.01905780435709,70.50409380523638,77.49842582921286,399.99999999999994,398.3449242536907,386.7551933453248,358.8854953864795
48,15,48,0,1.5999999999999974,22.64340622408286,143.7350164301034,21.9673307260383,33.40551405775366,38.83312130237307,38.833121302373186,33.40551405775355,111.06544249447653,77.66624260474615,66.41364108973278,65.16392203696898,62.932280871319335,30.66274961602585,46.998362948581075,10.310182185301187,11.024307358309102,17.36669980212019,16.475498044528663,16.335613332555226,68.82381354863446,63.28934345782329,77.66624260474626,399.99999999999994,399.2075090097434,387.59268144619347,364.49389078347144
49,15,49,0,1.6333333333333306,17.605606517814973,146.4549444556963,22.269526474000543,33.86506030088377,33.86506030088354,39.36733295894785,33.865060300883655,107.0907236497395,73.2274722278481,64.56702490506939,60.677445091511004,63.671687664967294,28.327883170444238,44.88428328249654,7.720448988421481,8.454331972111845,17.605606517815087,16.702144855500453,16.556400112052415,69.57210685383711,68.39789407993271,73.22747222784821,399.99999999999994,404.69924641206535,392.92463832958043,370.1366806197115
50,15,50,0,1.666666666666664,17.36669980212025,149.89786029248012,21.967330726038323,38.833121302373144,38.833121302373144,38.833121302373144,28.002962008403777,105.6375108312748,66.81102811550707,58.248900073386494,60.965170024995246,60.965170024995246,32.99764978250573,44.66755031534308,8.24941244562649,8.249412445626376,17.36669980212024,16.475498044528646,16.297619709652167,67.00132547301473,69.61699283382302,72.23378110616588,400.0,404.6478321318555,393.0403015023899,365.11395455596966
51,15,51,0,1.699999999999997,16.702144855500382,145.7123213352907,22.954902471198302,33.86506030088371,39.367332958947735,40.53114997824139,27.836908092500646,100.82956953301115,67.0401523153991,58.65525794002758,60.67785304140784,56.63266283864732,31.101063805282024,42.12274145918025,5.12977018466006,5.921220441721971,22.954902471198306,22.269526474000635,22.04335530779656,73.92731660407276,70.14594315366611,73.22747222784815,399.99999999999994,399.18553267897096,392.9246383295805,363.9722305061478
52,15,52,0,1.7333333333333305,16.702144855500382,145.7123213352907,22.269526474000635,33.86506030088371,33.40428971100066,39.36733295894784,28.388187512349894,100.82956953301115,67.0401523153991,58.65525794002758,60.67785304140784,56.63266283864732,30.309613548220227,42.12274145918025,5.12977018466006,10.640609011609172,22.954902471198306,22.269526474000635,19.287935894322004,68.4164777771237,70.93739341072808,78.73466591789557,400.00000000000006,400.00000000000006,387.40336061071514,370.1366806197115
53,15,53,0,1.7666666666666635,16.70214485550042,145.7123213352907,22.954902471198263,33.865060300883705,33.86506030088359,39.367332958947856,33.40428971100075,106.36467647388777,72.58977527601417,64.17134624954451,66.08604283746035,62.25664966162867,31.09931427645199,42.12332493414954,5.105857567775729,10.617862896624388,22.954902471198267,22.26952647400058,19.292018650970817,68.58095051262353,70.78575264416304,72.58977527601417,400.0,399.99999999999994,388.16270150042766,364.6103682712692
54,15,54,0,1.7999999999999967,10.983665363019137,143.73501643010337,22.64340622408304,38.833121302373115,33.40551405775349,33.40551405775361,32.95099608905727,104.92131605931758,66.13042264529984,60.59087965880053,64.98320938922734,61.638057607776545,30.673587422086143,41.552602780891334,4.988639395815767,10.428147075218362,22.643406224083037,21.967330726038146,19.038276877909198,73.41880953375556,74.96048818085899,77.66624260474612,400.00000000000006,393.7686159445947,387.59268144619347,364.49389078347144
55,15,55,0,1.83333333333333,11.134763237000161,145.7123213352907,22.954902471198388,33.40428971100092,27.836908092500558,39.36733295894783,33.40428971100071,100.36739947788969,67.04015231539901,61.43055078557063,65.727205566414,62.6498717368911,31.092684258670374,35.85384225906421,0.4935346707726467,10.538416793554916,22.269526474000543,16.70214485550041,19.30591506257315,69.1529168106,70.25611195703277,78.73466591789555,400.0,404.6992464120654,387.4033606107151,364.6103682712692
56,15,56,0,1.8666666666666631,7.873466591789559,145.71232133529062,22.269526474000656,33.40428971100081,33.40428971100082,33.8650603008836,33.8650603008836,95.2982227494399,62.24521877824552,59.03899805756748,65.40292291664798,64.40350746533738,31.070062706919998,30.39398754868057,6.261043856739775,10.993569964416338,22.954902471198288,17.60560651781504,19.6796660191892,70.72334046627208,68.78329870784569,78.7346659178956,400.00000000000006,403.97099032338866,392.2535453746332,369.50808687887746
57,15,57,0,1.8999999999999964,5.491832681509625,138.2808136072231,21.967330726038245,33.40551405775361,33.40551405775349,33.40551405775361,33.40551405775349,94.00503325406085,60.65927461326069,57.871125819099234,64.98320938922734,62.39435279314807,30.29543982940038,30.29543982940038,6.268523555675301,5.366786988501531,22.64340622408304,16.47549804452852,16.3185230382079,67.97930185435303,69.52098050145639,77.66624260474623,399.99999999999994,398.4891352997371,392.3875058658987,369.42526113231173
58,15,58,0,1.9333333333333296,5.512654870631552,143.75245156669146,22.050619482525843,38.58858409442036,33.07592922378893,33.53217048954326,33.07592922378892,93.87712969398952,55.401495792012675,55.05329288884445,64.09058997686247,57.62914085112982,28.028718504867697,32.83114690912839,3.463569576406371,8.149575473897244,17.432545345616376,22.72925830918934,19.486217070622047,70.02813782213047,67.4377370464988,71.87622578334567,400.00000000000006,393.87523634314533,387.81047054408907,365.3355792556832
59,15,59,0,1.9666666666666628,7.796071282729228,138.256680784606,22.050619482525935,33.075929223788904,27.56327435315743,33.53217048954337,38.58858409442038,99.38079899999067,66.3811550049491,63.31462381567894,68.14504945408748,63.96348696113671,27.699246720546284,33.17853550441305,3.965274777798072,6.993302789934887,22.72925830918935,22.050619482525935,19.17751074353305,71.28843091430576,72.38428867107905,77.37379823539302,400.00000000000006,400.00000000000006,388.3977362440057,365.3355792556831
60,15,60,0,1.999999999999996,11.043152607484592,132.6328142453222,27.607881518711626,39.04344047215159,27.607881518711526,33.5864374485863,33.12945782245399,110.56947931548545,71.78049194865021,65.91953148586447,73.17538009415705,65.27326156933646,36.264555088814404,41.19970717866545,1.630362743968476,9.914368037646682,17.46075739423934,22.0863052149694,19.226530016710626,71.7947125452107,70.47279680685779,71.99254703973384,399.99999999999994,399.42794459930974,387.92757684656647,365.46829297591836
61,15,61,0,2.033333333333329,17.703621590903087,140.40657348070135,27.991883530493602,39.18863694269105,28.546232068840833,33.59026023659233,34.05359605835171,118.09788599212104,79.17300265038435,70.45259642820508,74.50742212191471,72.9868624867737,39.78797711952586,44.34965602494924,6.842518358135067,12.924756898699457,23.082698491242546,22.393506824395114,19.26042204512089,74.00056891020108,70.45259642820508,72.99390177525845,400.0000000000001,405.56365777680907,393.84092703530877,371.01655097443273
62,15,62,0,2.0666666666666624,23.082698491242606,140.40657348070133,22.393506824394922,39.18863694269097,39.58650132519211,44.78701364878973,33.59026023659233,117.69913003322432,78.57696153102134,67.10899532585745,69.37109629189763,66.00694613727376,34.279530023839015,49.82422384175584,12.586561785402978,13.746613562859238,17.703621590902987,22.393506824394922,19.488869861268995,72.50323609103015,72.2712257355389,78.57696153102124,400.0000000000001,405.56365777680907,393.32331754596925,370.55164425189986
63,15,63,0,2.099999999999996,28.154625318573576,144.51348152149475,27.607881518711753,39.0434404721515,39.0434404721515,39.043440472151495,27.60788151871164,121.97560731756089,83.00749304995925,68.8936974020778,69.64590861327588,69.99989035972192,42.389314136923986,52.12381216419237,10.088479773714539,16.814132956191088,22.08630521496929,22.086305214969396,19.2035097447025,71.1503310356718,72.1237808383986,71.99254703973388,400.00000000000006,404.92396154604927,387.9275768465664,365.46829297591836
64,15,64,0,2.133333333333329,28.546232068840744,152.08637166630345,22.393506824394898,39.188636942691126,45.13555597663866,45.13555597663855,28.546232068840744,118.0978859921212,79.17300265038442,64.91193334324191,65.34448731931855,65.69053050017988,37.08429421564142,52.569726559187075,9.862230654548625,17.244485179590583,17.7036215909032,16.795130118296342,16.696583476560363,67.0170293601484,67.16121401884061,79.17300265038442,400.0000000000001,404.9836455749217,392.8848076551065,370.1708317278605
65,15,65,0,2.166666666666662,28.19494799926149,150.21482800906585,22.117936928149085,38.70638962426076,44.58012709383694,50.07160933635532,28.19494799926149,116.6445976597078,78.19871593875253,64.11608512582075,64.72671450797145,64.72671450797145,36.63776292904049,51.903497482807325,10.38069949656142,17.097622700218835,16.58845269611178,22.7986475438769,18.92951084667095,70.83300832947822,71.44363771162881,78.19871593875253,399.99999999999994,405.50388826926246,393.992727653587,371.1350932004818
66,15,66,0,2.199999999999996,28.154625318573544,160.50605945555833,22.086305214969308,39.043440472151595,39.04344047215148,49.694186733680915,27.607881518711725,116.47777972957643,77.49901651618303,63.39696028603339,65.5939557387544,58.24191866821104,34.49139266297891,54.53718123813246,12.550157030575974,14.445604087825473,22.766042320237208,22.086305214969308,19.198581178352583,64.7898266841637,66.85758711025403,72.62499737626466,400.00000000000006,404.9239615460492,393.0028237967192,370.316278796198
67,15,67,0,2.2333333333333285,28.15462531857364,154.9980330323661,22.086305214969336,38.65103412619634,44.17261042993856,50.000000000000036,28.154625318573544,116.47777972957634,78.08688094430296,64.01627158045937,64.73880286240603,59.536577632391186,34.10347650787469,54.33435240237645,18.207788305051622,14.450625638929978,17.460757394239558,16.564728911226993,16.184700715601593,71.96411568187102,65.89485291352054,77.49901651618299,400.00000000000006,404.9239615460492,393.42926348436976,370.6043186143542
68,15,68,0,2.2666666666666617,27.81225908299014,153.1132239648793,21.81773104327152,33.17801922153413,43.97504278847746,49.391989359280075,27.272163804089463,109.63274165997358,76.55661198243972,62.60914835035601,64.46824627892624,57.26607162651226,33.78581117433282,48.74642600109553,12.764829871758366,14.697120632162182,22.489202400681407,21.817731043271575,18.95694344487049,63.589932296924644,66.40053703933006,76.55661198243972,400.00000000000006,394.0804077783103,387.87882309521245,360.1578101282208
69,15,69,0,2.299999999999995,23.14626229743236,151.67633973255735,22.45517277425074,34.14737089064628,39.69551235347045,44.91034554850138,33.682759161375955,112.8358467159998,78.79334224385865,67.32637581567292,70.0313207159935,61.17336928417444,32.07291810380184,47.23249941329118,9.71996683961379,11.325098978265487,16.84137958068797,23.14626229743241,19.291310333056117,68.06949254653034,71.63645285464531,78.79334224385875,399.99999999999994,405.1665546052043,393.1258849204975,370.6804266852986
70,15,70,0,2.333333333333328,5.547001962252397,144.328684712254,22.18800784900912,38.82901373576607,38.82901373576607,33.741095691478904,33.282011773513666,94.4620395877461,55.74667979074896,55.49544782257601,68.22563877687253,60.830143228222596,31.379701468283088,29.888909875472223,7.293186321692247,10.771700038250856,22.188007849009118,22.18800784900912,21.85032775737443,67.9040954921486,69.7164303696834,72.32405706795801,400.00000000000006,405.2729374707297,399.53819495859125,371.6491314709035
71,15,71,0,2.3666666666666614,5.547001962252399,149.87174003640064,22.188007849009136,33.2820117735136,38.829013735766104,38.829013735766,27.73500981126143,88.75203139603657,55.47001962252296,52.551009394423545,61.495862057304294,55.90532914300377,31.04216960308895,29.8063675904541,7.6796267928020825,10.563164822283284,16.64100588675685,22.188007849009146,19.360898197945517,69.61684671176147,68.26334926935203,72.32405706795794,400.00000000000006,399.7306785632238,388.329756778952,366.1441498392928
72,15,72,0,2.3999999999999946,0.0,150.2805643660852,22.202957179830005,33.304435769745055,33.76382899882158,38.85517506470248,33.30443576974506,88.81182871932013,55.50739294957507,55.375160578769055,61.11886074518395,61.85523256139095,28.26195030602605,27.113210272743004,4.580232696807798,7.260626107801386,16.652217884872595,22.202957179830005,22.1500642315076,69.86695792172355,67.80511683634387,72.37278592467979,400.0,399.69177417884816,394.1024899419833,366.3908421093391
73,15,73,0,2.433333333333328,5.550739294957558,149.9727172055883,22.202957179830126,33.30443576974502,38.855175064702685,38.855175064702465,33.30443576974502,94.36256801427773,61.05813224453271,58.16439513574039,66.23787247474377,62.2305990510049,30.99743854245139,29.936689694990946,7.425241932222207,10.253905525449682,16.65221788487245,16.652217884872567,16.618398610211557,70.48086786458498,67.29862132220399,72.37278592467976,400.00000000000006,405.24198551078126,388.5913967621891,366.51695909159844
74,15,74,0,2.466666666666661,33.25324736558943,138.6659972122792,22.851108547186183,33.25324736558932,38.795455259854116,44.337663154119134,33.25324736558932,122.05446794967101,88.84835149970874,72.2502297907273,76.8309360022431,74.18364475013334,42.31204276546305,46.53581083062693,8.789601853915087,21.16345759411388,22.168831577059507,22.168831577059507,21.96656842340542,70.91171174190765,72.27997463625655,72.26155006884947,400.0,404.922675107581,393.53578819044776,365.7857210214828
75,15,75,0,2.4999999999999942,33.28201177351368,144.32868471225405,22.18800784900923,33.282011773513794,38.82901373576614,39.223227027636874,33.74109569147894,122.16004634526355,88.9252062561134,72.31272699767624,71.68754491988659,68.71048740660217,36.647577988529974,51.94965360681158,14.498270089694756,15.808175395539706,22.18800784900912,22.188007849009118,19.216906248250325,70.97305111669834,72.34249757280907,72.11102550927993,400.0000000000001,405.08308739357125,393.8762007769213,360.5977942677538
76,15,76,0,2.5333333333333274,11.09400392450457,144.64811413591576,22.18800784900901,33.28201177351381,39.22322702763683,38.82901373576603,38.82901373576615,105.39303728279354,72.11102550927973,66.40545154109645,66.6114968251336,67.73002836704927,28.434249197118334,37.97120234397812,6.299098683419629,7.447065265911988,22.870874995874615,22.870874995874654,19.176928935737806,70.20257177549445,67.75946340762607,72.32405706795788,400.00000000000006,399.7306785632239,388.329756778952,360.5551275463989
77,15,77,0,2.5666666666666607,0.0,144.20394678503666,22.168831577059507,33.25324736558932,38.795455259854336,44.68270853821845,38.79545525985434,94.21753420250317,60.96428683691385,60.857953952996354,65.43866016451216,62.464175611579776,25.223629008866396,30.10178367567562,2.1118840325818837,9.934778406794067,17.526000212042693,22.168831577059624,21.966568423405647,71.23890504273038,66.74743336780244,72.26155006884959,400.00000000000006,399.65429484106727,393.53578819044765,365.78572102148274
78,15,78,0,2.599999999999994,5.466644192731276,147.70059266246264,21.86657677092465,33.25229846201759,38.26650934911825,38.655011790142765,32.799865156387085,93.09359608306714,60.13308612004302,57.29746591020785,64.91933378749741,61.568084487366036,30.502300045884454,29.849844429929703,7.369782752943479,9.653377408785104,16.3999325781936,22.539551424300047,21.501378253054213,69.872065054063,65.89801721142953,71.2763199392804,399.99999999999994,394.2053188321944,382.8212514627882,360.83992831485295
79,15,79,0,2.633333333333327,5.466644192731042,147.7005926624629,21.86657677092477,32.799865156387206,38.65501179014277,44.073494500038315,38.65501179014277,98.55132970804861,65.82711307537807,63.08059523344309,65.24556159547478,61.89431229534341,25.045398530626585,34.9805181372102,1.9128812376854967,4.522703701504497,22.539551424300083,22.539551424300047,21.6644921570429,64.7413913467825,65.89801721142953,71.06637450550535,399.99999999999994,394.2053188321944,382.8212514627882,360.79851672025796
80,15,80,0,2.6666666666666603,16.3999325781936,148.00377586072779,21.86657677092465,32.799865156387085,43.73315354184953,43.73315354184953,33.25229846201759,104.00999923195653,71.2763199392804,63.08059523344309,59.788660080216914,61.89431229534341,27.77384928825552,43.165870410097,11.729372550459175,7.251154459133545,22.539551424300083,21.866576770924766,21.827606061031588,70.19829286204026,71.35491872668729,71.06637450550535,399.99999999999994,399.66366135968707,388.4780606238966,366.30595449343673
81,15,81,0,2.699999999999993,22.53955142430005,153.45601519386,16.399932578193543,38.26650934911822,44.073494500038315,43.73315354184948,32.79986515638707,109.4694646497302,71.27631993928041,60.17619657764362,60.694829150955,60.8133737391405,28.035795105861098,48.692189597177276,12.06191184787042,7.764670526147597,21.866576770924794,21.8665767709248,21.619569270323154,69.02258647098358,66.91842003069166,76.72800759692993,399.99999999999994,399.6636613596872,383.01635939628596,360.839928314853
82,15,82,0,2.7333333333333267,22.5164328517875,153.29861702971954,21.844148461187793,38.22725980707838,44.028288796548594,43.68829692237547,32.76622269178153,114.81173048776644,76.64930851485977,65.57010764086999,60.24066510202306,61.07900437779665,27.964602984736416,54.132764664243155,17.425480660724247,7.604934858804086,17.269315671053814,21.84414846118779,21.61717703959289,74.91160242806234,71.85765220917244,71.2032125938892,400.00000000000006,399.5897243547172,382.623503686273,365.9302384638099
83,15,83,0,2.76666666666666,28.230034819326438,155.41318060248565,22.14546129433069,33.21819194149598,44.63560422746571,44.29092258866138,33.218191941495974,116.39541537494726,83.22982076836463,69.23978799418273,66.44774192400985,67.570469444291,33.85909837479562,49.3704654313118,12.113639034612788,13.177275632773899,22.145461294330683,22.145461294330577,21.92273210654298,70.2591064007537,67.15683298945044,77.70659030124283,400.00000000000006,404.7609388571493,382.1696479925418,365.4420511111255
84,15,84,0,2.799999999999993,33.25324736558928,161.10579676115935,22.168831577059557,39.18932784780322,44.6827085382185,49.879871048384096,28.259826201244717,122.43137404892187,83.31765386504213,66.73465802723342,62.301443366434,61.355690905463575,33.78109571529126,60.58726703092498,23.141380529372896,13.3291987468034,22.851108547186172,22.851108547186165,21.69319707351167,69.09903917965977,68.2419510119052,72.89636358133787,400.00000000000017,399.6542948410674,388.11286909262384,365.8277050355116
85,15,85,0,2.8333333333333264,44.07349450003813,164.36336468887794,16.39993257819365,32.79986515638707,43.733153541849475,44.07349450003825,33.25229846201757,126.20728157696837,93.57387577666647,71.46878149273937,61.50159057786698,60.786455803705735,28.03924260357212,65.04746716641648,28.42660727290945,13.229993321982988,16.399932578193535,21.86657677092479,21.617928277249348,68.59334375496599,66.95449323084642,76.72800759692998,399.9999999999999,399.66366135968707,388.4780606238965,366.3059544934368
86,15,86,0,2.86666666666666,50.89021958362565,168.97078193594828,16.859653832711505,33.71930766542301,44.95907688723067,50.57896149813438,33.719307665422996,134.99426081877377,101.3139106340237,75.85293670613737,69.18356946937263,67.04937195360799,34.50285983819606,66.7825972641374,29.345215841764798,19.474552331352925,22.479538443615333,22.479538443615215,22.186761674303966,69.53926905533353,69.62819395182356,67.67237206409774,400.00000000000006,410.8669927703182,399.36783840384794,370.95495675988684
87,15,87,0,2.899999999999993,49.82728791224394,166.4596415367292,16.60909597074806,33.67639554433099,44.290922588661225,50.13392027046984,28.230034819326466,127.81691887601522,94.28090415820637,69.42266888290385,62.249293239577355,61.588982510903065,33.91596015463949,65.88100224728669,34.30614376703818,18.908898139312214,16.60909597074794,22.827019011138272,21.895303480362486,69.51271125499579,67.77189206121778,66.66666666666664,400.00000000000006,405.1015671328446,387.9013185723808,365.56784150591676
88,15,88,0,2.933333333333326,49.765358088335276,166.25275055951127,16.588452696111723,33.63453949851093,44.235873856298,50.0716093363553,28.19494799926156,127.65805654153509,94.16372339166017,69.3393395115852,63.15763684836122,60.774329797479595,33.96212547506218,65.68990058992279,34.40899554710245,19.215413097732608,16.58845269611172,22.117936928149,19.289891443072634,68.22216433148458,68.66903440352485,72.09565381005473,400.00000000000006,399.0816900072762,387.6953222679706,365.11348099384077
89,15,89,0,2.9666666666666592,49.82728791224394,166.45964153672926,16.60909597074799,33.67639554433107,44.63560422746567,49.82728791224394,28.230034819326498,127.81691887601525,94.28090415820633,69.42502663501818,62.72572791180232,61.233679198391314,33.95902871723638,65.82918923569753,28.856222117370635,13.547802317772607,22.145461294330754,22.145461294330637,19.322030838673527,68.93265055959245,68.24630815142336,66.66666666666669,400.0000000000001,399.5783217956677,388.5329515062144,365.7773960324447
90,15,90,0,2.9999999999999925,44.959076887230665,163.84638410380808,17.77163555778526,28.65590129513836,45.30895824880311,50.890219583625765,28.09942305451917,118.55159574102657,90.09360399744008,67.67184622903937,57.9790325116079,61.89172795717661,31.92403783998043,58.601506787039284,26.321769361098063,11.293461854254815,23.171377854539717,23.17137785453968,19.38562743486284,75.58616201666683,75.67508691315686,67.67237206409774,400.00000000000006,399.6445321440557,393.75303531876403,370.954956759887
91,15,91,0,3.0333333333333257,33.676395544331065,166.91934868527738,16.60909597074802,28.23003481932638,44.63560422746581,50.13392027046977,33.21819194149604,111.27956579018505,83.22982076836476,66.41416285381945,58.14371993240047,59.64743682720393,25.81380669412613,52.3794718356537,20.801417044781147,11.27787671102601,16.60909597074802,22.14546129433058,21.80389497465012,67.16602130122112,69.67221612589344,72.1853722671613,399.99999999999994,405.10156713284454,393.4326778886717,376.6356410780427
92,15,92,0,3.066666666666659,23.146262297432333,168.78763377144045,16.84137958068801,33.68275916137603,45.259847672146336,44.91034554850141,33.68275916137614,106.8096999119125,73.19490817956812,61.74119479623653,59.29978499724291,54.59345285460461,23.414002409625596,49.76946240840027,12.765925936906456,8.765543615663887,16.841379580688017,22.455172774250766,22.090346494508708,67.65352455042591,71.00678620205576,67.59902168606534,399.99999999999994,410.7670443250833,398.93496186904645,376.29168257120307
93,15,93,0,3.099999999999992,22.145461294330584,166.91934868527744,16.609095970748132,33.67639554433109,44.635604227465734,44.29092258866117,33.67639554433098,105.7721109915159,72.18537226716133,61.15109173688859,52.99567798365388,54.737047468330275,20.286954496480917,51.89281064335876,15.266005815663675,5.717496474687664,16.609095970747912,22.145461294330694,22.057346805901943,67.33295340748998,69.53868808808022,72.18537226716133,399.99999999999994,405.1015671328445,393.7052595757701,376.8390410178449
94,15,94,0,3.1333333333333253,22.82701901113817,166.45964153672915,16.609095970748026,27.681826617913334,44.63560422746576,49.82728791224396,33.218191941496045,99.80824526939043,72.18537226716133,60.88814164317262,58.52610166563579,53.80202171056203,23.095502002582748,43.56651514123553,12.597546546863214,8.660813250968545,16.609095970748026,22.145461294330612,19.289993149884367,72.17344375807102,70.07385266692711,66.66666666666664,400.0,405.10156713284465,393.70525957577024,376.6356410780427
95,15,95,0,3.1666666666666585,22.426478876840214,174.16655308118357,16.819859157630102,34.10373634964192,44.852957753680435,50.770100880522726,34.103736349642034,107.11431933537058,73.1013775170615,61.92707611306946,59.25248478592687,54.93199110361968,23.086719642532444,50.00897959486838,18.00205700961328,8.33238067302102,22.426478876840214,22.426478876840225,19.295266002956964,68.68703221463852,70.92075683950486,73.1013775170615,400.00000000000006,410.66336674441095,399.05586020979564,381.9091736209988
96,15,96,0,3.199999999999992,16.60909597074802,172.429118092866,22.145461294330662,33.67639554433102,44.6356042274657,49.827287912243946,28.230034819326487,100.2678405409397,66.66666666666673,58.39166007962001,52.53935923184997,54.611745068217374,25.525372026807077,46.65786985117347,14.959123114623935,5.326907255451374,22.827019011138184,16.609095970747905,16.316389894779945,68.359544067218,69.55627391638791,72.18537226716121,399.99999999999994,405.1015671328445,393.70525957577024,382.3701041552859
97,15,97,0,3.233333333333325,27.6474211601862,171.77038166347648,22.117936928149042,33.634539498511074,44.58012709383694,49.76535808833525,28.194947999261483,111.14125756184704,77.6100095790012,63.82567288610676,59.170013223242336,53.577271902996245,28.320690089757136,54.76721686475071,18.384649659106913,8.448609228456917,22.11793692814905,16.588452696111794,16.51048634434369,66.33943161781326,70.1770041194714,72.09565381005464,400.0,404.59807055960385,393.21592735603514,376.37067164776647
98,15,98,0,3.266666666666658,33.17690539222348,171.77038166347646,16.588452696111688,33.634539498511,44.580127093836964,49.765358088335184,33.634539498511,116.64459765970774,83.1263752797556,66.58167487742844,58.61792630382763,54.02914924468962,22.781057722623927,60.32021456770133,23.787628174305723,8.274601213090818,22.11793692814899,16.588452696111688,16.519597412896815,72.53228254766549,75.1375237167245,66.5838073520172,399.99999999999994,410.5246395143478,398.7367785095982,376.37067164776647
99,15,99,0,3.2999999999999914,38.51498946031447,169.20314764617382,16.340526134829933,27.23421022471671,43.91384448060268,49.32325250356202,33.13184669943433,114.90125881312332,87.82768896120558,68.5590866438315,58.4330703715018,52.65528461611393,22.485712604731816,59.356324796332046,28.978275979343152,8.368854625072458,16.340526134830053,16.34052613483006,16.261190837329195,71.1203731127149,69.80994747747224,65.58866363992755,400.0,404.86564147956324,393.1171221909426,371.0255106300513
100,15,100,0,3.3333333333333246,38.56866392700394,169.8773429272276,16.36329828245355,27.272163804089356,43.97504278847746,49.3919893592801,33.1780192215342,115.06138513991614,87.95008557695492,68.65306744987186,58.415588118068854,58.23857118437775,25.224913050984128,56.73392724800328,26.28701465313111,11.063558355694795,16.363298282453655,21.81773104327162,21.71407719944392,71.33782427752044,69.80367751886399,65.68006796305173,400.00000000000006,404.952604786617,393.66496998152394,371.5425715637372
101,15,101,0,3.366666666666658,33.634539498510996,172.21480771460426,22.11793692814895,33.176905392223475,44.58012709383699,50.07160933635533,33.634539498510996,122.15029916339165,89.16025418767386,72.35242476932399,59.47133526603466,58.83091951671861,25.58752016585629,62.99362188727309,32.19544630652683,5.792851550631781,17.485764459224644,22.117936928149053,21.730470766566327,71.46457566231771,70.47484223155647,67.26907899702199,400.00000000000006,411.008463653397,399.08169000727617,376.6548935666405
102,15,102,0,3.399999999999991,38.706389624260765,172.21480771460418,16.588452696111744,33.63453949851107,44.23587385629794,49.765358088335226,33.634539498510954,122.15029916339178,88.64437567716058,69.32424779921462,59.52111440422232,58.78953728519298,25.590567623644347,62.98878994842107,26.702564844568656,11.310182260192732,16.588452696111744,22.11793692814891,22.00583974040069,71.40192681725784,70.52403427442266,67.26907899702191,400.00000000000006,405.0134884854454,398.7367785095984,381.8948602836947
103,15,103,0,3.433333333333324,38.18102932572527,169.87734292722757,16.363298282453616,33.17801922153402,43.635462086543065,49.08989484736076,33.178019221534136,120.49235797441389,87.44120906510186,68.38173607495787,58.81296071975885,57.90859475631021,25.24931423757505,62.124107069804836,25.803603053882398,11.187882160728009,16.363298282453624,22.489202400681524,18.714540824268568,70.30716038423554,70.21964109745022,71.74186195252412,400.0,399.51625639309145,393.3247399539897,376.71141641937487
104,15,104,0,3.466666666666657,38.56866392700391,169.8773429272275,16.363298282453634,27.27216380408935,43.635462086543086,49.39198935928009,33.1780192215341,115.0613851399161,87.95008557695489,68.65953178928294,58.86359688214043,57.8664059035691,25.252395074998958,56.69324004642624,26.366902639284717,11.203733935713785,17.248430868424833,22.48920240068154,18.7119954214279,70.8005594785684,70.27263484285419,71.11710234668014,400.00000000000006,410.3894330974742,398.77088959389283,376.9877280733256
105,15,105,0,3.4999999999999907,38.18102932572527,164.44911248996019,17.24843086842484,27.812259082990042,43.63546208654303,49.39198935927997,32.72659656490739,115.0613851399161,87.44120906510183,68.39719541966065,56.81602593815023,59.17004031205829,25.385574760600548,57.0630521378813,25.850565254212142,10.941807552794671,12.196482431890656,10.908865521635754,13.58644098520972,72.68382653264132,68.61515971354095,71.11710234668011,400.00000000000006,399.5162563930914,393.6649699815239,371.26220737774935
106,15,106,0,3.533333333333324,38.70638962426073,177.7193780546625,17.485764459224693,33.63453949851099,49.76535808833522,49.76535808833522,33.176905392223475,122.15029916339168,88.64437567716055,69.3373898299285,58.26385091360089,59.342811115704535,25.753076402844044,63.34632133929995,26.235769124837816,11.158719984914796,7.819871593875252,11.058968464074493,8.262563652952167,73.45447481164013,69.76329517286422,72.09565381005478,400.0,405.0134884854454,393.5656772246759,376.3706716477664
107,15,107,0,3.566666666666657,32.72659656490732,175.3071999513389,22.489202400681528,33.17801922153409,49.3919893592801,49.08989484736074,32.72659656490732,120.49235797441392,87.4412090651018,71.09759850883302,58.66413317994579,57.48683045827295,25.513011419668146,62.41140159892905,26.604170039755104,5.987015060214844,7.713732785400828,5.454432760817922,8.140617599860207,70.49458979773215,70.063869289803,71.11710234668018,400.0000000000001,405.42986199972455,399.10647691835976,376.9877280733256
108,15,108,0,3.5999999999999903,38.18102932572515,175.30719995133893,16.363298282453577,27.812259082990135,49.39198935928014,49.08989484736084,33.17801922153421,115.06138513991613,87.44120906510176,68.38547365305135,58.567405443149255,57.572810979049336,24.964321048911415,56.99026279293355,26.58408917616032,11.38100236777359,12.196482431890589,5.454432760817888,8.141466113276238,71.15612966018722,69.96261630326711,70.90762589063254,399.99999999999994,404.952604786617,393.6649699815239,371.54257156373734
109,15,109,0,3.633333333333324,32.72659656490735,169.87734292722752,17.24843086842488,33.178019221534115,49.08989484736085,49.39198935927998,32.72659656490736,115.0613851399162,81.99810426928208,65.66207825836113,59.2524849301376,57.54132653029524,25.85589344846676,56.656744645630965,25.855893448466873,11.90560208703937,7.713732785400827,5.4544327608178325,5.42350204695822,69.75145680713706,70.67954271891597,71.11710234668017,400.0000000000001,404.95260478661703,399.1064769183599,376.9877280733256
110,15,110,0,3.6666666666666567,32.77224922557714,172.74359128753338,16.16317375321085,32.32634750642191,43.437224276306985,48.78792112998637,32.77224922557715,113.65417461685004,81.53106738662103,65.12957332314079,58.07458651667105,52.28146726908221,22.484185594602422,58.476089830860474,23.000404141417334,8.460248406132223,7.6193931775945485,7.619393177594688,5.621046398650606,65.2729673639227,68.80046076715746,70.2473341384274,400.0000000000001,400.00000000000006,394.2253707726239,377.4869157374535
111,15,111,0,3.69999999999999,32.288294111822964,161.7998316450359,22.188007849009225,26.906911759852495,43.386091563731114,48.432441167734545,26.906911759852495,107.7620976190512,80.89991582251801,64.7884776219206,57.52545489610452,51.73818579186866,27.865700736895747,52.98244864927938,23.06226738037992,8.651967310832674,7.61042390647188,10.762764703941025,8.029835882127259,69.85233808812694,69.33148386874575,70.16464154456233,399.99999999999994,399.52913462195056,393.76130307701,371.66617630117327
112,15,112,0,3.733333333333323,32.72659656490729,169.43894905334918,17.248430868424954,32.726596564907176,43.97504278847743,49.391989359280004,27.81225908299022,109.63274165997348,77.13732785400784,60.81359346087015,59.14904017123797,52.203835066221245,27.981714782608833,53.95448593979984,18.281386991304544,8.581059200000027,7.713732785400884,10.908865521635796,8.136221682943301,70.45652286287691,70.5713196414722,71.11710234668011,400.0,399.5162563930914,393.32473995398965,376.7114164193749
113,15,113,0,3.766666666666656,33.17801922153403,164.44911248996019,16.363298282453638,32.726596564907275,43.63546208654306,49.08989484736078,32.72659656490726,114.67288188621244,81.99810426928191,65.40549992406966,57.93821967042936,58.1913478146206,25.49562918992433,56.4616388293141,20.60181840222799,11.348578464571915,12.196482431890642,5.45443276081795,8.142288638150262,70.73525362676213,69.86336779677015,71.11710234668023,400.00000000000006,399.51625639309145,393.3247399539897,376.7114164193749
114,15,114,0,3.7999999999999896,27.472112789737746,167.79972857983387,16.163173753210998,32.32634750642188,43.10179667522933,48.78792112998644,32.77224922557717,108.29192390822394,76.193931775946,62.431335687875276,56.89624427000331,58.18870216453172,24.865766014297606,50.7430208156178,20.454551026450645,10.676826085235007,12.0473184147734,5.387724584403553,5.127686211987793,70.94469964531265,68.10691165950016,70.24733413842742,400.00000000000006,399.60067149822066,393.8938877096676,377.4869157374535
115,15,115,0,3.833333333333323,21.81773104327154,169.43894905334915,21.817731043271415,33.17801922153407,43.97504278847741,43.97504278847742,33.17801922153407,109.63274165997338,76.55661198243956,65.67933791364953,62.948563898379916,58.979088267936504,27.884862496129358,48.66126685972711,12.063264593227132,8.065636653347838,5.454432760817882,5.454432760817882,5.433395721103466,72.40773986879856,68.86054887989155,76.55661198243968,400.00000000000006,404.952604786617,399.10647691835976,376.7114164193749
116,15,116,0,3.866666666666656,22.516432851787545,169.64410968712633,21.84414846118775,32.766222691781564,43.6882969223755,44.0282887965485,27.845934815353353,104.33296759293029,71.82872867324419,60.544178773145404,57.14282041510353,53.96821928093095,27.891138535943355,48.75280313193366,12.471647312820323,7.936502835430929,7.72307275307573,5.461037115296856,5.442173372867046,73.01582608596556,68.48068160857645,71.20321259388918,400.0,405.038168555696,393.53583910942604,376.96981865291235
117,15,117,0,3.899999999999989,16.163173753211012,157.07781437166545,21.550898337614534,32.772249225577106,43.437224276307035,43.43722427630681,32.77224922557711,102.93233365685657,70.24733413842748,62.19232919879346,55.96606889708369,59.03000737512593,24.834767388535056,45.41094138786491,9.177760670466,5.158098263493116,7.619393177594569,5.387724584403522,8.053379577606393,66.16982731478407,68.05316564532382,70.24733413842748,400.00000000000006,399.6006714982206,388.5143449429057,371.9091294665292
118,15,118,0,3.9333333333333225,12.047318414773384,156.6151393920539,21.55089833761471,32.326347506421904,43.43722427630691,43.10179667522931,32.3263475064219,97.12858623572646,64.87679514758106,59.30395206788398,54.63016254672459,54.014453747529956,22.081556480207837,42.791761544027736,11.726453948298058,2.1549807971811106,12.047318414773363,5.387724584403593,5.373458611153183,67.39212674821357,66.55252384022083,75.62031810886111,400.00000000000006,404.97630241193065,393.63587456131916,371.90912946652907
119,15,119,0,3.966666666666656,17.06847526226596,156.62128138588642,21.5901032060002,32.38515480900019,37.78268061050029,43.51624421478497,32.385154809000305,102.69493215142035,70.37512637456489,62.129657335746515,58.02191139619299,55.96803842641623,24.64647563732092,45.69867357753242,8.728960121551154,3.851011818331358,10.795051603000214,10.79505160299999,10.654466030716776,70.34514921485345,63.92679618430111,70.37512637456476,400.00000000000006,399.74500247852376,394.0563511301231,372.4292803035031
120,15,120,0,3.999999999999989,5.471244670214207,158.76039921597012,27.356223351070945,38.29871269149914,38.29871269149925,38.29871269149914,32.82746802128504,103.95364873406933,65.6549360425702,62.8530858448878,58.67031615689609,56.857782625433174,24.971135037310205,46.08017939604122,8.825644041662372,4.113056859858489,12.234075004132213,17.301594793933567,13.538231223466255,71.24651035212435,70.35418615201945,76.5974253829985,400.0,405.0199500797238,393.96760917794296,377.5555268636584
121,15,121,0,4.033333333333323,5.4773967463746045,153.4648883849265,21.909586985498304,38.34177722462212,38.34177722462201,43.819173970996495,33.3177036924246,98.74517412556585,60.499824498074055,57.65509340219137,57.47071056966297,58.179875310157286,24.806582622492783,40.89043893690484,3.077774973745477,3.5883735869015254,17.321049366939363,16.432190239123813,16.33915562099014,67.59758306392246,63.45606097943545,76.68355444924411,400.0,405.36436697972863,399.88747714156835,377.9800646966474
122,15,122,0,4.066666666666656,7.54180198005038,149.32006102887362,21.33143728983914,31.99715593475865,37.33001525721835,37.33001525721835,31.99715593475865,90.81532183729996,58.90335647044084,56.03014047551255,54.66902762148686,52.31163628667946,21.497163838839242,37.24117025344617,5.500579781217311,0.420962738358412,15.998577967379324,21.33143728983908,18.620585126722972,67.5504874152561,65.50180208857819,74.66003051443681,400.00000000000006,405.3323915893289,389.29873053956345,368.1218364288395
123,15,123,0,4.099999999999989,7.641607199008697,145.99270054745452,21.613729078331954,37.82402588708098,37.824025887080865,37.824025887080865,32.420593617497936,97.41176055739116,59.68286014946362,56.780502989753586,55.7372166272437,58.052454856375334,24.481500533966255,40.4595026337762,2.9869431474600106,3.2156086515716424,16.210296808749025,17.087153154335248,16.149501227893552,67.82790515715357,66.88465995269246,75.64805177416184,400.00000000000006,405.293441499647,389.08464543575684,367.4731233034125
124,15,124,0,4.133333333333322,10.809823837621199,151.43401925369625,21.619647675242167,32.42947151286325,37.83438343167385,43.23929535048456,32.429471512863365,97.28841453858999,64.85894302572673,59.44072037860292,55.75247943159002,57.953987593760644,24.431022397073775,40.413399834129336,3.0449431074175664,3.273671228162698,16.21473575643157,17.091832216032422,16.153923527614552,73.36454472895383,72.42104123088075,75.66876686334781,400.00000000000017,405.4044250556041,389.191190454988,367.69294411269954
125,15,125,0,4.166666666666655,16.21029680874913,151.39256266143676,21.613729078331986,37.82402588708089,38.20803599504355,43.22745815666397,32.86779534442365,108.20364687514147,70.45213729643024,62.27849132878214,56.722203680152916,57.37255795963631,24.473114299687268,51.1376397585027,14.010893281912104,3.5486722641372808,17.087153154335144,16.210296808749018,16.202304441040724,66.64717551052865,67.86305525043213,70.45213729643001,400.00000000000006,405.293441499647,394.45055567955836,372.9934149435361
126,15,126,0,4.199999999999989,21.899323441118455,158.7700949481086,21.899323441118455,38.32381602195721,38.32381602195733,43.798646882236795,33.30209601662918,115.10172736893276,76.8429129516053,65.8380400674763,63.130789076075075,58.119494687737074,27.619720220782824,54.46182579509957,11.376214272376728,6.422520968961976,17.312935322662707,16.424492580838642,16.41630920317641,67.50847153025563,68.77569539857097,71.17280118363483,399.99999999999994,405.1744740724238,394.1878219401315,366.97705903553964
127,15,127,0,4.233333333333322,27.01716134791492,145.9927005474544,21.613729078331914,37.824025887080936,43.22745815666394,48.63089042624695,27.017161347915035,113.47207766124279,75.64805177416187,62.10751000311336,56.60577521790378,57.32778765690773,29.963516218660743,56.44693248132296,13.934840072774819,9.054035985108499,17.087153154335194,16.210296808749135,16.11531763856658,72.1434829052672,68.10021324684556,70.45213729643011,400.0,399.89049595998665,389.0471234099755,367.59228445553765
128,15,128,0,4.266666666666655,33.30209601662916,158.86446054036145,16.424492580838773,38.323816021957185,49.27347774251656,49.27347774251656,32.848985161677675,120.57064269591045,82.30475494404563,65.75414993316838,63.59146715383736,63.24772949354633,30.592651765900087,57.14638602338084,14.179178487004265,14.981233027683288,21.89932344111841,16.424492580838663,16.413473278895708,72.58593593145224,69.46365218380896,76.8429129516053,400.0,405.28542505092776,394.22583976555046,372.3287524320387
129,15,129,0,4.299999999999988,32.42059361749803,162.10296808748976,17.087153154335223,37.82402588708081,43.227458156664035,48.630890426246815,27.01716134791491,113.60065796046726,75.84078597640095,59.560402456062775,56.45740030205661,52.14767508815919,27.29492635468398,59.27308744180277,16.635539325644004,11.66498957894919,16.210296808749014,21.613729078331904,18.90532793829675,67.34663934250415,67.54775985248608,75.84078597640094,399.99999999999994,399.99999999999994,389.0471234099754,367.47312330341254
130,15,130,0,4.3333333333333215,32.82746802128509,164.2285022018214,16.413734010642546,33.28028207407272,44.11058473527133,49.24120203192752,32.827468021285085,115.02633204043073,82.06867005321271,65.63122688022486,57.192086147866235,58.250654323353615,24.905756795497496,57.28030016249022,19.436487888812053,9.086043506267629,16.413734010642543,22.558519678890754,19.068929494545728,68.16002863277834,68.27764731894354,65.65493604257017,399.99999999999994,399.7379871519725,394.08156596840263,372.0446375745641
131,15,131,0,4.366666666666655,28.28427124746189,172.0465053408526,16.64100588675682,33.28201177351375,49.923017660270574,49.923017660270574,33.28201177351375,111.07862773036732,77.85588263926145,63.84640577789537,52.889992932481164,52.97799624850859,19.668741132128957,58.12619023611296,25.564963305966444,9.284349840893015,16.64100588675682,17.541160386140646,16.54462341315559,68.55458318536256,69.69862629371897,72.32405706795782,400.0000000000001,405.27293747072963,393.9933619120623,377.23691800736094
132,15,132,0,4.399999999999988,34.238534251962,168.95719769653294,16.886341073527035,33.77268214705406,45.0302428627386,50.659023220580984,28.143901789211686,112.71623882586545,79.00369711865295,61.9778013781912,54.076537810679156,53.612610408549926,25.71897535553478,58.860789145136096,25.92194359396626,9.655489056812826,16.88634107352703,17.799766379599365,16.773875133231968,69.06719199197727,70.95189706312698,73.1741446519504,400.00000000000006,411.05515035535484,399.6830427394504,382.7984501867093
133,15,133,0,4.433333333333321,33.763828998821545,172.16242291860084,16.65221788487245,33.304435769745005,44.40591435966005,44.405914359660166,27.7536964747876,111.15346775946638,77.90833860348533,61.1207883300367,53.86178734072132,52.206735115157244,25.304877448753928,58.11556192045998,20.223576756233,9.596399307875231,16.65221788487256,17.552978869863022,16.521486251682063,72.99651394855687,70.49941760823242,72.3727859246797,400.00000000000006,405.3560150545222,388.59139676218905,371.9409538830437
134,15,134,0,4.466666666666654,32.827468021285135,169.69680771356855,17.301594793933564,32.827468021285014,49.24120203192769,49.24120203192758,27.35622335107094,109.5615891395345,76.7925783754223,60.3275897354406,52.18307424560294,52.24124935624468,24.86985979932581,57.331571537393074,25.218910463175916,9.162579926067451,16.413734010642564,22.558519678890764,21.7865789353159,67.59947856565282,68.76298077848674,65.65493604257026,399.9999999999999,399.73798715197256,388.61246059229205,372.08486513997053
135,15,135,0,4.499999999999988,28.701260882365858,168.95719769653294,16.88634107352692,33.77268214705407,45.38067805348495,45.03024286273861,28.143901789211686,107.0948501595341,73.39031689440627,59.16524150278315,48.45141805986316,47.98749065773393,20.093855604718783,58.86078914513598,25.92194359396626,4.030369305996942,22.515121431369305,17.799766379599365,16.77387513323208,74.69231174279332,70.95189706312703,73.39031689440648,400.00000000000006,400.00000000000006,394.1754145374146,371.5421434459833
136,15,136,0,4.533333333333321,27.37415430139802,164.3361476570252,16.424492580838745,32.848985161677604,43.79864688223688,43.79864688223687,27.916269390185786,104.16576120500686,71.38306102482501,57.66719448699928,47.736678368137405,46.18640633779967,19.3784003792224,57.199187836331134,25.316234759572694,3.9049304915113225,16.42449258083886,17.31293532266251,19.027395391221376,66.42769397919113,69.84999261220094,71.38306102482503,399.99999999999994,394.33987125029535,388.71299107985186,366.85452231031286
137,15,137,0,4.566666666666654,28.701260882365826,168.86341073527,16.88634107352702,28.143901789211704,45.03024286273862,45.03024286273862,33.772682147053935,107.09485015953409,79.00369711865281,64.79208492078533,54.660417910210185,47.51915481905587,17.347318258929022,55.99940473980166,23.209105046251466,7.051997302514906,16.886341073526907,22.515121431369366,19.564085343474858,74.20962562224508,77.3934387503848,73.17414465195043,399.99999999999994,405.3112726322477,394.0146250489634,371.5421434459833
138,15,138,0,4.599999999999987,33.32048068842397,166.97222055297607,16.660240344211932,27.76706724035333,44.773050601213065,50.28829760359154,28.316963538760845,105.66089690574634,77.94587213102926,61.2499555773245,42.3054721634652,47.30309662233617,16.852454570611144,60.843172191137455,28.35861320847664,1.016958465467951,17.56143528451261,22.21365379228257,22.198750503356678,73.62779289987691,70.46069367884832,77.94587213102928,399.99999999999994,400.0,388.7786065802284,366.5252875726633
139,15,139,0,4.63333333333332,33.30443576974497,172.1624229186008,16.65221788487254,33.76382899882166,44.75149088955648,50.26408211723354,27.75369647478757,111.15346775946655,77.71035012940509,61.01539856725833,47.90465176768214,47.01478207540333,19.725444845516222,63.685007644095094,31.23442619899015,3.9154266460272993,16.65221788487254,22.202957179830054,22.083599530055267,67.95638216703395,70.29970569003501,77.7103501294052,400.0000000000001,399.8073867081462,388.59139676218916,366.34879346719566
140,15,140,0,4.666666666666654,33.30443576974508,166.61466548670757,16.6522178848726,27.75369647478759,44.751490889556344,49.956653654617455,27.753696474787475,105.46404660419275,77.71035012940516,61.01673603673987,47.64560440763614,47.06171219675821,19.618778285497342,58.03888576126269,25.574478836451704,3.7952993707062888,16.65221788487237,22.202957179830097,22.18790401336014,68.02344256727463,70.24223296861061,77.90833860348539,400.00000000000006,400.0,388.59139676218916,366.3908421093391
141,15,141,0,4.699999999999987,22.499533095588525,168.84022024480905,16.874649821691275,33.74929964338244,39.77393106355435,45.3492587582518,28.68138957528299,101.4040253126787,67.7325639372989,56.46526136508112,44.294510728877185,41.13479662140094,14.335739932067213,58.68876388515673,26.155411222996122,1.3458041568878798,22.499533095588408,23.191987870047754,19.514160274875053,73.0830170414365,72.9659905930115,73.33950513634817,399.99999999999994,400.0,393.90250733870687,371.4127079732972
142,15,142,0,4.73333333333332,22.47953844361527,168.97078193594822,16.859653832711537,34.18442353580527,44.95907688723065,50.890219583625715,28.099423054519228,101.31391063402367,67.43861533084605,56.16074440127704,42.62304917191648,47.64795788150445,17.055131326071887,56.160744401276816,23.085021777577595,1.0345400284444395,17.771635557785263,23.17137785453968,22.360843757666203,74.69379005369831,71.32414538962166,67.67237206409786,399.99999999999994,405.25564253609474,394.0336718403885,371.29536055416656
143,15,143,0,4.766666666666653,16.641005886756783,160.95866645723765,16.64100588675701,33.282011773513794,44.72135954999578,44.37601569801836,33.741095691478826,100.0,66.79474875720736,58.46940956090407,49.53823702105103,45.57875052838301,14.007055600002786,52.440868096503436,14.989484579386612,1.2950200182787057,16.641005886756894,17.541160386140618,16.284504597665205,70.97305111669834,66.80517059810029,67.48219138295791,400.0,400.0000000000001,388.6465667494748,366.2701819065349
144,15,144,0,4.7999999999999865,5.613793193562632,163.18670150161302,16.841379580688,34.14737089064635,44.91034554850137,39.296552354938626,39.6955123534705,96.09266094705961,62.00637249872825,59.15980223158044,49.617898645841706,52.182285234509095,11.360828956770206,44.99603909649966,6.649514061311834,4.264038164877093,22.455172774250627,23.14626229743234,22.125288939431925,72.8166517386693,72.63774104643664,67.59902168606537,399.9999999999999,405.1665546052043,388.0020590073881,370.89291190004616
145,15,145,0,4.83333333333332,5.536365323582658,155.1170612214927,16.60909597074797,27.681826617913398,38.754557265078596,38.754557265078596,33.67639554433099,83.22982076836465,55.63978289509243,52.829816985201774,49.09109147547986,45.51491924878917,13.817029057668151,35.924275549937306,4.0638320757848305,1.4629795472825435,22.827019011138198,22.827019011138304,21.9446932092377,71.1983379677489,72.4987642320001,72.18537226716133,400.0,394.4830265519011,383.0108588639006,360.54450094926
146,15,146,0,4.866666666666653,5.619884610903875,157.45709220705427,22.47953844361529,33.71930766542305,39.33919227632681,39.738585178560236,33.71930766542294,90.09360399743993,56.47914134463471,56.26756354070312,49.70715428861911,46.31736598910118,14.348155647096974,42.08013061470399,9.380362449527752,1.519560272197623,23.17137785453981,22.47953844361529,22.282013606744385,72.12066830353444,73.11422694304815,73.27433054473131,400.0,405.6061929195632,394.0336718403884,365.681361667265
147,15,147,0,4.899999999999986,11.072730647165352,149.58435388503392,16.609095970747962,28.23003481932648,39.14801463431361,38.75455726507866,39.14801463431361,94.76730929955438,66.6666666666667,61.137822902557104,55.496158817328364,50.596818953840284,14.000234822028006,41.61469587077886,9.635368398193123,1.0244074260019715,22.827019011138187,16.609095970748076,16.568676629250604,69.98632762570514,68.08597761804924,71.9727492065747,400.00000000000006,399.5783217956677,383.01085886390064,360.5445009492601
148,15,148,0,4.933333333333319,23.17137785453965,163.0735194922021,16.85965383271145,33.71930766542313,44.959076887230566,44.959076887230566,33.719307665422896,106.92559703099288,73.27433054473103,61.87706015366712,55.77185688517193,51.81172503533719,20.130670236659626,53.131768985282406,15.180505424366515,4.620153824807062,23.171377854539873,16.859653832711565,19.470648261687302,66.66221947221732,67.65225243467614,73.27433054473103,399.99999999999994,399.9999999999999,388.13837931876486,359.8481936365416
149,15,149,0,4.966666666666653,23.171377854539692,157.75767872094343,16.859653832711533,33.71930766542295,39.73858517856015,45.308958248803215,34.184423535805266,107.36774473534346,73.91804127476685,62.15250286972105,49.49986825992278,53.162078040220194,17.380487399936555,55.8637082060136,17.650650416515873,1.3508150828965881,17.771635557785157,16.85965383271154,19.511773419617953,67.84093527436357,66.61019264328002,73.27433054473111,400.0,394.3941968023588,382.812745484021,354.45392351138884
150,15,150,0,4.999999999999986,23.47452842131063,165.2070063383327,17.080228269287144,34.160456538574294,45.54727538476572,45.547275384765726,34.160456538574294,108.32450198803706,74.23297680969813,62.687799214949564,56.36721119492984,52.6074234734192,20.382786191023797,53.83601552414905,15.024348572177928,4.633124239499239,18.00414142884772,22.77363769238286,22.5735286429275,67.70578361491823,68.38669005267218,74.23297680969802,399.99999999999994,399.55404638240253,387.5284273569159,364.5560787065278
151,15,151,0,5.033333333333319,23.500729009104983,165.39139856961182,17.099291997098373,28.49881999516399,45.95296646467506,45.59811199226214,34.19858399419663,102.75395678278183,74.31583034316381,62.76202616107844,49.86202508094277,47.73449877039775,14.637980319735902,53.95226932586388,20.870733454853735,1.3634147483070365,23.500729009104962,22.799055996131017,22.638677853757258,74.58328150628995,73.1749190190277,74.31583034316381,400.0,400.00000000000006,388.25393333650743,365.18544068920727
152,15,152,0,5.066666666666652,23.500729009105076,165.39139856961165,17.099291997098366,28.498819995163824,45.95296646467496,51.29787599129497,34.19858399419661,102.75395678278171,74.3158303431639,62.76195796493471,49.906734246664655,47.696059732097524,14.641933257440883,53.94954311919457,20.607726125518866,1.3476029575099346,23.500729009105054,23.500729009105054,22.636701364916007,74.52698603218539,73.22480789346776,79.99999999999997,400.0000000000001,393.94400385408693,387.751555813169,364.82942262681223
153,15,153,0,5.099999999999985,18.024236362373422,165.39139856961177,17.099291997098327,34.19858399419665,45.95296646467511,45.598111992262126,28.4988199951638,97.06348333412689,62.95595108208398,54.22202524935858,44.19095057822733,42.02206956825296,14.639946817326972,53.95091512311183,20.87547972100299,1.355550631233882,17.09929199709821,23.500729009104948,22.637695541607172,68.5908619404388,73.1997340866343,68.63424727114851,400.00000000000017,399.63435064218146,393.4488917977186,370.6599958011515
154,15,154,0,5.133333333333319,16.859653832711494,162.97665371621102,17.771635557785256,33.71930766542299,44.95907688723066,50.578961498134376,28.099423054519043,95.70318637100524,62.0736544023677,53.596560726629946,43.593859978205955,35.80071103689659,11.630005795555803,56.00019478707202,23.394376228030296,1.4780110061104779,23.171377854539625,22.47953844361533,22.453823769596397,73.21379771682268,66.58514229547905,73.27433054473116,399.99999999999994,399.64453214405563,388.13837931876486,365.46537832690206
155,15,155,0,5.166666666666652,16.874649821691296,168.84022024480888,16.874649821691296,33.7492996433826,44.99906619117683,44.999066191176944,33.74929964338259,101.24789893014778,67.49859928676518,58.97789920465368,49.71591908639493,46.369655301733815,14.341130505690899,53.062182871056166,20.55562039149015,4.302339151707315,23.19198787004785,16.874649821691186,19.6592997348846,67.34355866630688,72.7812373163813,73.33950513634827,400.00000000000006,399.99999999999994,388.48361291114236,365.7904451900938
156,15,156,0,5.199999999999985,16.87464982169128,168.8402202448089,16.87464982169128,33.74929964338268,45.349258758251906,44.99906619117682,34.21482921576249,101.4040253126788,67.73256393729876,59.262681614957046,43.901603274014974,41.451003227405636,8.696641628821226,58.72474501935983,20.471475999115228,7.082831842029691,17.787442718099634,22.49953309558841,22.339311400494466,73.54788676470457,72.26281600855577,67.73256393729876,400.0,400.0,388.4836129111424,365.7904451900938
157,15,157,0,5.233333333333318,17.526000212042735,160.72402893368172,22.168831577059585,33.71193451435737,38.79545525985419,49.87987104838404,28.259826201244692,99.91357371026679,66.50649473117875,58.259122334283916,48.52718403179165,40.84175015297035,16.740111724559142,55.22617333229687,17.270141647236642,1.1925673260240046,22.168831577059585,22.168831577059585,22.143472325186508,72.46686887271812,71.20068627965543,72.26155006884963,400.00000000000006,394.47129455375455,382.7736223896735,360.62700032766435
158,15,158,0,5.266666666666652,17.78744271809945,163.2185668772477,16.874649821691268,28.124416369485527,44.999066191176915,50.62394946507393,33.749299643382656,95.78831053443069,67.7325639372987,59.12751010733632,43.18487015209257,41.83252557530477,8.790239749121042,53.26735027458892,20.27014260096496,1.4875790344666484,22.4995330955884,23.19198787004791,19.548892160011405,68.48873978887912,65.90425904212896,67.4985992867652,399.99999999999994,399.99999999999994,388.48361291114236,366.00662063901507
159,15,159,0,5.299999999999985,16.874649821691385,163.21856687724758,16.87464982169127,33.74929964338254,39.77393106355433,45.34925875825177,28.681389575282967,95.78831053443072,62.12886643973172,53.64501337275692,43.65511309471606,41.431796942610845,14.181151672887836,53.23940839906197,20.610741626273466,1.5923750819132465,16.87464982169138,17.787442718099484,16.71993836008903,67.90127707781039,66.399036434496,73.33950513634824,399.99999999999994,399.72306015175707,393.9025073387068,371.62561295379334
160,15,160,0,5.333333333333318,17.771635557785284,163.07351949220205,16.859653832711455,33.71930766542291,44.95907688723066,45.30895824880323,28.099423054519093,95.70318637100516,62.07365440236771,53.46276446261754,44.10979776769011,40.972028295843415,14.482012946984469,53.16105585955529,20.697210170065205,1.1464926916362401,16.859653832711455,22.47953844361528,22.296265766294823,67.22067676225265,67.46204364470236,73.27433054473124,399.99999999999994,399.6445321440556,388.13837931876486,365.4653783269021
161,15,161,0,5.366666666666651,22.47953844361533,168.59653832711484,17.771635557785256,28.099423054519043,45.308958248803116,50.89021958362581,28.099423054519043,95.70318637100513,67.67237206409774,56.40328869782945,43.862589252044245,35.80071103689659,11.764370432474834,55.865830150152874,23.260011591111265,4.001080299369619,17.771635557785274,16.859653832711494,19.647095798397004,67.86907104826173,66.58514229547905,73.27433054473126,399.99999999999994,399.36783840384794,387.93489915834857,365.3357270326927
162,15,162,0,5.399999999999984,22.18800784900926,166.50248323396542,16.64100588675692,27.735009811261378,44.3760156980183,44.3760156980183,33.74109569147883,99.99999999999997,72.32405706795795,61.2010614692565,48.45210210332027,46.72599596588964,14.096533455684835,52.40397668112246,20.122763654785217,3.9821571416166535,22.18800784900915,22.188007849009264,22.04570645701085,67.43926961505906,71.10345983662262,72.32405706795784,400.0000000000001,394.4616584663205,383.10472558979325,360.938946467298
163,15,163,0,5.433333333333318,22.479538443615347,168.69017706708993,22.47953844361534,28.099423054519033,44.95907688723068,44.95907688723069,28.099423054519146,101.15792299626887,73.05849994174984,61.7472583448523,49.229705243343574,46.7382018682232,19.91701794448693,53.05701464488379,20.45734397764545,4.157508644026279,17.771635557785267,22.479538443615233,22.318466980747417,73.45432239662296,72.22357976553928,73.05849994174984,400.0,399.6445321440556,388.1383793187649,365.681361667265
164,15,164,0,5.466666666666651,22.479538443615272,162.97665371621096,22.479538443615272,28.655901295138452,44.95907688723078,44.95907688723066,28.099423054519207,101.31391063402373,73.05849994174976,61.72958018652116,49.72157778464657,40.97202829584353,17.28790295546264,55.96694586803358,23.201391575481352,1.6593973168419325,22.47953844361539,23.17137785453971,22.296265766294823,72.83245677920922,67.16033504164022,68.36884707161072,399.99999999999994,399.64453214405563,382.5238768805611,365.68136166726504
165,15,165,0,5.499999999999984,28.259826201244596,160.81955585381473,16.62662368279468,33.25324736558936,44.337663154119106,49.87987104838405,27.711039471324426,105.44769670437206,72.26155006884949,58.2590756458726,48.616920342747335,46.30039629176247,19.78070861717606,57.988313094458704,25.85782366001922,4.256989002783939,16.62662368279468,17.526000212042653,19.23918351434827,72.08300813194467,71.30080520563808,72.2615500688496,400.0000000000001,399.38520616881647,382.7736223896737,365.9536281779142
166,15,166,0,5.533333333333317,28.524895269256504,171.24442820249263,17.114937161553904,34.22987432310781,45.63983243081041,51.34481148466171,29.089799520225913,108.54462922580427,74.3838263389963,60.06969939873056,49.12510946648081,48.62292855191072,20.16108671730194,59.656138645555075,26.275877853538532,3.8845170744691586,11.409958107702602,17.11493716155379,17.103691149183533,70.18716782462923,72.1368113753133,74.38382633899619,400.0,400.0,388.3159275134338,370.99913478961923
167,15,167,0,5.56666666666665,28.09942305451911,168.69017706708996,16.85965383271149,33.719307665422974,44.959076887230594,50.57896149813435,34.18442353580544,112.53810163224429,78.87883936047179,64.80787775850365,54.553279681804725,53.07567188977316,19.888600880744548,58.72013365533371,25.9763449839146,9.604450648204988,5.619884610903869,11.239769221807624,11.229819219439605,74.11680684830242,71.63442575768931,73.27433054473114,400.0,399.64453214405563,388.1383793187648,365.68136166726504
168,15,168,0,5.599999999999984,33.218191941496016,160.9359597534449,16.609095970748,33.67639554433111,44.63560422746569,44.6356042274658,33.2181919414959,116.39541537494729,83.0454798537399,66.30287682240885,55.340099570026496,56.21712175021696,22.627172248917418,60.602232651170084,22.97798112099349,7.454688531620036,12.379689211803498,11.072730647165299,11.05047947040157,70.68798772336186,72.96824539185741,83.22982076836462,399.99999999999994,400.0,382.65056636400965,360.24682896283457
169,15,169,0,5.633333333333317,39.29655235493874,157.2864237808563,16.84137958068803,34.147370890646144,44.910345548501425,50.5241387420641,33.682759161375955,123.63097063334865,89.82069109700274,69.9826913769939,62.17409633913985,56.22188427254912,25.606298444887557,64.38407606683427,26.431357543226795,10.460570711087598,5.613793193562567,11.227586387125246,8.397922965239218,70.95508245717963,75.02144515613753,73.19490817956806,399.99999999999994,405.5941301163922,388.36739031509023,365.5868330769096
170,15,170,0,5.66666666666665,28.992651712178684,159.61157134687878,22.743707204799716,39.80148760839958,40.205573984588156,45.48741440959953,34.115560807199735,125.2195485556183,85.47822278817257,71.00858228120478,64.98191489107967,60.62031697548798,28.85138080651552,62.24118106574167,19.214607033552852,7.898028657963323,8.041114796917688,11.37185360239991,11.316578375589415,69.13722101336634,72.87994354904299,74.13541535637773,400.00000000000006,400.00000000000006,393.8094411444858,370.6770767818884
171,15,171,0,5.699999999999983,34.533847507779434,153.70786569801027,22.709318232146398,34.06397734821965,40.14478229518516,45.418636464292796,34.06397734821965,125.03021391495608,91.01451655649713,73.76282668784074,69.82860981116221,67.40525188712445,34.68991991261453,56.2907152355192,18.74362641246489,13.597730573767308,11.35465911607325,11.354659116073261,11.30900364550962,75.1540136442328,71.354427763334,80.28956459037009,400.00000000000006,398.87028219021835,393.21399283079586,370.1166050988027
172,15,172,0,5.7333333333333165,23.368249513479448,148.3361511304048,17.002899005270116,34.005798010540346,34.00579801054023,45.6939180829256,40.07621728818842,113.9180134676301,80.15243457637683,68.52931185218893,65.35166222124758,66.67068659635527,25.960797928256966,47.904567077777074,10.252416733792074,10.85197326793184,11.335266003513334,11.335266003513334,11.271662841829766,73.74545369920611,73.3857197787222,73.89689339371674,399.99999999999994,404.94831264802497,392.54240567480247,369.48446696858315
173,15,173,0,5.76666666666665,5.677329558036581,154.2312171124586,28.386647790182938,34.533847507779555,34.533847507779555,40.14478229518501,40.14478229518513,108.46522890932815,74.02332101976059,71.18006361720825,64.92426330345825,66.69895842792619,25.70350105271291,42.6518394913835,4.229690046649125,0.8577693101597106,11.354659116073169,11.354659116073174,11.298892292446908,74.6259299838838,72.25966981792624,74.02332101976059,400.00000000000006,399.3951914286672,393.7464426249136,376.24892749237443
174,15,174,0,5.799999999999983,5.598376706098742,152.0863716663033,22.39350682439498,27.99188353049371,39.586501325192046,39.58650132519217,39.18863694269097,89.74880605362354,61.83609182907204,61.545891153932416,58.70114343368459,59.96547575379486,20.349729723677456,30.34397568264319,1.3546417715465395,0.21072205335167382,12.518350878488128,5.598376706098742,8.353624257870592,73.24096511495122,72.12714854723515,72.99390177525869,400.00000000000006,399.41190852783694,387.74568843900283,370.5516442518999
175,15,175,0,5.833333333333316,5.677329558036645,154.23121711245855,22.70931823214634,34.0639773482195,34.53384750777964,34.53384750777953,34.53384750777965,91.54418843784987,57.897628403051485,57.338913620947324,59.316117538911044,61.0108637543085,25.703650933528138,31.35280498485281,0.847373107698786,4.801780943626227,12.694894822438668,5.677329558036645,8.473731076987292,74.56883347748806,72.8740872620906,74.02332101976059,400.0,405.6411246389947,398.87028219021835,375.7774642779233
176,15,176,0,5.866666666666649,0.0,154.23121711245852,22.709318232146455,34.533847507779555,34.53384750777967,40.14478229518507,34.533847507779555,91.54418843784991,57.05645591838109,57.050029290305474,60.504922368445136,59.88481335442009,25.704995081372203,31.34503420893327,6.186325639916731,5.093752615205858,8.028956459036989,5.677329558036536,8.460058691341828,67.26706352138501,68.7435135547779,74.0233210197605,400.00000000000006,405.0447394235976,393.2139928307958,370.1166050988027
177,15,177,0,5.899999999999983,0.0,151.8337733464517,16.767235300351047,33.99703687388961,39.12354903415226,39.52075260876216,39.52075260876216,90.12118181186663,56.169543092865084,56.16878126017809,58.80169288174886,59.679330088939196,19.746837161781286,30.86357511952508,0.7313643393251823,5.41209611100669,5.5890784334503945,11.178156866900778,11.40928369347364,66.7004277464614,66.7004277464614,73.51284927276255,400.0,404.89006225720414,387.62585969798124,364.83455997197063
178,15,178,0,5.933333333333316,17.002899005270162,153.96779895757487,23.368249513479327,34.47486565856751,39.67343101229705,40.076217288188325,34.005798010540445,108.27997646171573,73.89689339371664,65.39709536902103,60.448606503309065,59.737446426799465,26.312922830852017,48.181095183519915,10.726664487351854,5.748543951785223,12.673212663449192,11.335266003513441,8.44502590855052,67.08610055073109,68.68621072287749,74.54607330215417,400.00000000000006,404.94831264802514,398.7130471367054,369.9623143420511
179,15,179,0,5.966666666666649,23.001737880775174,151.55294159535478,22.314963495342795,39.44765502371794,39.44765502371794,44.62992699068569,33.47244524301429,117.68366765675391,78.30135949183015,66.81537754304543,65.13541436706225,64.25122322180812,31.447731732875695,52.96304960072905,10.580820704875691,11.229227544728815,12.474443822753182,11.157481747671397,8.311396765389873,65.90171335961605,67.72904172647475,72.73788184542407,400.00000000000006,399.2601599896856,392.4595633315848,370.26200263228446
180,15,180,0,5.999999999999982,23.323807579381235,159.29846201391913,22.627416997969444,33.94112549695435,45.60701700396536,45.25483399593901,34.40930106817056,113.70136322841523,80.0,68.41029079540192,67.14094464442849,64.7515871837727,31.569385448914886,47.72741527660014,11.170246128566077,11.857186398504382,7.999999999999977,11.31370849898468,11.229980065082373,71.85992562922382,74.81675548678538,73.75635565834322,400.0,404.8505897241598,392.93765408777006,369.821578602439
181,15,181,0,6.033333333333316,22.70931823214625,165.03363269170265,22.709318232146476,34.53384750777969,45.772094218924885,45.77209421892499,28.948814201525696,108.46522890932819,74.02332101976049,62.6847093711126,61.435083732281896,53.32704761056641,28.52343173284521,51.07481535453428,13.615107250981055,8.645665757026336,17.031988674109854,17.031988674109854,14.094614763555683,72.53640917491748,69.07814287210681,74.67361158753606,400.00000000000006,405.64112463899465,393.7464426249136,370.5952700047307
182,15,182,0,6.066666666666649,23.368249513479366,165.23847695440557,22.67053200702695,34.00579801054036,45.69391808292568,45.69391808292556,28.89937127183988,108.27997646171558,74.54607330215397,62.91978673430083,62.29044250783534,57.928940659307386,31.27694446410817,48.13751536848463,10.991570094780172,11.723365706949266,17.922629227488382,11.33526600351341,14.050475753647106,65.51034320137944,70.10601964580155,73.89689339371668,399.99999999999994,405.62200507591666,393.6863701483124,376.16178863178175
183,15,183,0,6.099999999999982,17.88854381999827,159.298462013919,22.62741699796953,33.94112549695434,45.6070170039654,45.60701700396551,34.40930106817044,108.07404868885033,74.40430095095299,65.60433923972084,61.85298800899386,58.840091744945425,25.96407662841716,47.704190847433324,16.15739467092635,6.350712713435314,17.888543819998258,16.970562748477125,16.83677324027053,65.10218986237953,63.979738313028065,73.75635565834314,399.99999999999983,399.2392766249334,387.3189899811265,363.62618167563227
184,15,184,0,6.133333333333315,23.654928598205863,167.26560420274947,17.211488678267067,34.89779947427157,46.25448598537044,46.25448598537044,34.89779947427157,110.35653166652489,75.46059623430104,63.69090083878416,59.35898295085201,52.62694839528206,21.103464845939016,54.353861607363115,17.064244112597066,7.346698580209022,12.828686226191092,17.211488678267067,17.034974397138058,70.42293539435423,73.17428864750019,75.46059623430104,400.0,404.9071554899487,398.5160707297908,374.50097084679555
185,15,185,0,6.166666666666648,23.323807579381075,164.92422502470632,22.62741699796953,34.40930106817054,39.999999999999964,51.22499389946281,34.40930106817056,114.4027971686007,79.99999999999993,68.41046811309934,62.56190477700534,58.84009174494554,26.3185350124229,53.67090697819572,16.511853054931976,5.996254329429689,23.32380757938118,16.970562748477125,19.642902113648915,65.8111066303909,64.68865508103954,68.81860213634098,400.00000000000006,399.23927662493327,387.3189899811266,369.82157860243893
186,15,186,0,6.1999999999999815,27.836908092500654,162.98266024247272,22.954902471198245,33.865060300883655,39.36733295894779,44.885665591487715,27.836908092500654,111.90298560248206,78.14192474558448,64.1980269575024,55.95010761269805,56.62882727255669,28.698037791850652,55.55172868191141,19.136943452971877,8.838110353377147,17.60560651781515,16.702144855500393,16.55485779046603,70.23273002015895,69.1998957551566,67.73012060176731,400.0,399.18553267897084,387.40336061071514,364.6103682712692
187,15,187,0,6.233333333333315,28.338165008783676,165.91747561094894,17.922629227488283,28.89937127183985,40.07621728818837,45.69391808292551,34.0057980105403,108.27997646171555,79.54901996248965,65.36015777990713,56.783485492045884,57.818601112994656,23.58584879161799,50.942475916692274,19.445386307823128,8.946356438199928,17.922629227488294,22.670532007026836,19.667196798026225,70.97935686505741,70.2399885643797,68.94973131713483,399.9999999999999,405.62200507591655,388.05700005813276,364.3190467126732
188,15,188,0,6.266666666666648,28.284271247461927,164.92422502470643,17.888543819998343,34.40930106817044,39.99999999999995,45.607017003965474,33.94112549695421,113.7013632284151,79.39773296511683,65.21780248202685,57.16750315314732,51.622729766405314,20.770661804346332,59.22826117656223,22.312523922584774,6.271227653988944,17.888543819998354,22.62741699796954,19.6142652156675,70.18437757442939,70.68844788231507,68.8186021363409,399.99999999999994,405.6007889538678,388.0206180088888,364.85613603172413
189,15,189,0,6.299999999999981,22.62741699796939,159.99999999999997,17.888543819998425,34.40930106817062,39.999999999999964,45.60701700396557,33.94112549695421,108.07404868885037,73.75635565834298,62.413683204837184,57.22744591847527,57.94278899245637,23.963992978361603,50.4316867156565,19.135427228990125,9.47829573024751,23.32380757938115,22.62741699796939,19.61232261164423,70.10362125013228,70.75935240128149,68.11754546370551,400.0,404.8505897241598,387.31898998112655,364.19774848288114
190,15,190,0,6.333333333333314,12.474443822753218,157.79062009487177,22.31496349534289,33.47244524301427,33.93415595361094,44.97724683583179,33.93415595361094,101.03529439690327,67.868311907222,61.93386144320357,56.49691940811317,57.08789136844905,22.870614864999766,44.20470263312632,13.355966303591686,3.073054193746657,23.00173788077517,22.314963495342877,19.339557401992806,69.05507356525129,69.85288571170469,72.73788184542427,399.99999999999994,400.00000000000006,382.6625870326119,364.7148513258951
191,15,191,0,6.366666666666648,7.999999999999871,153.67498169838828,22.627416997969608,33.94112549695443,34.409301068170414,40.000000000000036,34.409301068170414,96.82974749528167,63.245553203367486,59.98540757433386,60.69111825167897,59.27969689698887,25.611416665316256,36.84397827972566,5.1752116338640235,5.175211633864137,22.627416997969494,16.970562748477093,19.6569828252168,72.0707029238688,69.01262332203999,73.75635565834315,400.00000000000006,404.8505897241598,387.31898998112666,369.821578602439
192,15,192,0,6.399999999999981,5.645012145168579,153.3532772518919,22.58004858067396,34.33726835970924,34.33726835970924,39.91626367729065,34.33726835970912,96.62704332067817,62.35119708979263,59.477275785185725,56.62401379153437,51.94701732771421,19.958126419509767,42.313581215128465,5.574156162854933,0.014707536049741066,16.935036435505502,16.935036435505513,16.766591096714137,69.53723044321441,71.77277592277619,74.2485423870682,400.0,404.7517009899922,392.1150752325858,369.04739112617017
193,15,193,0,6.433333333333314,7.999999999999911,159.2984620139191,22.62741699796959,33.941125496954335,40.000000000000014,40.00000000000013,34.409301068170414,96.82974749528162,63.24555320336752,59.99537446493218,56.56247624256571,52.939673012153435,20.363660093527074,42.07126332091673,4.9959625193589545,0.11686462033583211,17.88854381999825,16.970562748477114,16.82850532836676,65.38575507792473,64.36318964998577,74.40430095095313,400.0,404.8505897241598,392.3263947276553,369.25871689101666
194,15,194,0,6.466666666666647,17.88854381999831,153.67498169838842,22.62741699796951,33.94112549695416,39.5979797464466,45.60701700396555,34.40930106817056,108.07404868885027,74.40430095095313,65.60485210998354,61.39009643610325,58.59963750718964,25.608274128885796,48.04821468223429,10.958364752088528,5.348379613751376,17.88854381999842,16.97056274847718,16.82995541501134,71.06950084577318,69.90680962539233,74.40430095095302,399.99999999999994,404.85058972415976,392.93765408777006,369.2587168910166
195,15,195,0,6.4999999999999805,17.888543819998283,159.29846201391905,22.627416997969554,33.94112549695428,45.607017003965595,45.254833995939016,28.844410203711877,102.44998779892558,68.818602136341,59.99985801786897,63.379110354867635,57.432786500063116,31.602535803948854,41.986847706485605,5.235665638010914,6.8600272763964085,17.888543819998425,16.970562748477267,16.794739082594333,63.756194306635734,65.81565281244605,74.40430095095313,400.0,405.60078895386783,392.93765408777,375.44640096823395
196,15,196,0,6.533333333333314,17.922629227488283,159.60199443360133,22.67053200702695,39.67343101229708,45.34106401405366,45.69391808292556,28.89937127183988,108.27997646171558,68.94973131713472,60.10969158357136,62.29044250783534,58.66073627147648,31.642842270192773,47.771617562400024,5.005481987236635,12.08926351303387,17.922629227488272,22.670532007026836,19.670666055105926,71.13053350283832,70.10601964580155,74.54607330215408,399.99999999999994,405.6220050759165,388.05700005813264,369.9623143420511
197,15,197,0,6.566666666666647,5.589078433450408,157.38987770520978,27.94539216725162,45.0605909059333,39.52075260876212,45.0605909059333,28.498819995163867,106.77919354148439,61.7333890508344,58.90682973022501,61.76580629953821,57.53690345742916,31.210494215002882,47.083770375877634,5.003208996298213,6.492259292815447,17.67421787102896,16.76723530035101,16.617801309133256,69.68755387701049,68.79412369910006,73.51284927276268,400.0,405.5453181533996,393.1868016500555,370.4003343050063
198,15,198,0,6.59999999999998,12.304489188965194,154.95842034667265,22.01093940395002,33.016409105925085,38.91021128204809,44.364466689206594,33.016409105925085,99.20196330259078,66.26170215018257,60.42864484611982,58.97360622328938,57.07314761387829,25.24046590624164,40.97863876542772,4.691757191983811,5.345039838968773,16.5082045529626,16.5082045529626,16.391455506171155,64.73437138306701,66.39727266630166,72.37717675736698,400.00000000000006,398.6350671099449,387.1126057990216,370.1586295795806
199,15,199,0,6.633333333333313,0.0,149.49100633686894,22.086305214969173,33.586437448586416,39.043440472151474,39.043440472151474,39.04344047215159,94.51416205663726,60.987803658780365,60.97834661952311,63.84230027680019,58.71104997417888,22.255306545090093,33.23379556465204,2.0882995417645134,2.6849565536972477,17.46075739423955,16.564728911226933,16.467733529342922,65.5129399102118,66.22892832453101,71.99254703973385,400.0,400.0,387.9275768465665,365.4682929759183
200,15,200,0,6.666666666666647,7.928957645975223,151.7934694490743,22.426478876840136,33.63971831526037,39.24633803447026,39.644788229876454,33.63971831526037,95.47729340524977,61.92713888475603,58.88275238295705,63.41219487395381,60.94699010836223,28.676568688900375,33.250563073251215,1.2623036450318068,7.855983861433629,17.729688287117433,16.81985915763024,16.75151190112888,68.5802145030255,64.92695924799204,73.1013775170615,400.00000000000006,405.5799408361369,399.0558602097956,376.3123728561639
201,15,201,0,6.69999999999998,5.619884610903835,146.22503464863487,22.47953844361535,34.184423535805315,33.7193076654229,39.73858517856022,34.18442353580542,96.1969292164931,62.073654402367815,59.274982216724425,63.52477484630219,56.032109095199985,25.691255095182782,36.38237104833672,1.7917244187418646,4.8124829429016245,16.85965383271151,16.859653832711288,16.791863560770594,68.79629462375749,70.63244196197229,73.27433054473116,399.99999999999994,405.25564253609474,393.5524581393698,371.0826447758627
202,15,202,0,6.733333333333313,11.227586387125486,151.6763397325572,22.455172774250535,39.296552354938655,39.296552354938655,44.91034554850129,34.14737089064621,106.8096999119124,67.59902168606536,62.001999934414016,62.59109257037039,56.258346733838835,25.404619925620864,47.34832061499799,3.90273871321142,4.786377667145985,17.75237280480854,16.841379580688017,16.789140124758205,69.95475051982578,69.51293104285855,73.83792118874736,399.99999999999994,399.5664382624983,393.32624469341573,370.6804266852985
203,15,203,0,6.766666666666646,11.249766547794307,146.35509597907037,22.4995330955884,39.37418291727958,39.77393106355441,39.77393106355418,34.21482921576247,107.02070308065719,67.7325639372989,62.11285729773897,61.84842223828775,57.529316267252966,25.635509930121657,47.31918480511274,9.181772897608084,4.715758560211498,16.874649821691296,22.499533095588394,22.447598380072122,70.92735927944261,74.21810668594532,78.94899893892631,400.0,405.3429984727941,388.2799517632472,365.6606785762342
204,15,204,0,6.799999999999979,16.874649821691243,146.3550959790703,16.87464982169125,39.3741829172798,39.37418291727969,44.99906619117678,34.21482921576251,107.02070308065723,67.73256393729874,59.29837963123623,61.45522154109187,57.85063643147021,25.61619090198394,47.361884678062665,3.515947770860521,10.193293957536866,17.787442718099665,22.499533095588443,22.45479248616823,71.5007866006934,73.74626584931025,78.94899893892622,399.99999999999994,399.72306015175695,388.27995176324725,365.6606785762342
205,15,205,0,6.833333333333313,16.64100588675703,149.87174003640072,16.6410058867568,38.82901373576594,44.3760156980184,44.3760156980184,33.74109569147893,105.53891006856921,66.7947487572075,58.45524799090015,60.081854289970124,57.70788833997619,25.366265799009284,46.64403468414025,9.041586365100443,9.920833013246238,17.54116038614066,16.6410058867568,16.471220541933235,71.6879100454961,72.03960870475441,72.32405706795782,400.00000000000006,394.18855308673716,382.9038843043835,360.7257641520452
206,15,206,0,6.866666666666646,17.77163555778533,152.15260276520868,22.47953844361528,33.719307665422974,39.33919227632682,44.959076887230665,28.099423054519118,101.31391063402373,67.6723720640978,59.068257972714036,55.8188360947878,57.42129071951854,28.577107474364993,44.690678978602136,6.49884375585259,7.211045811288386,23.171377854539667,16.859653832711544,16.82577355967294,71.39825605744795,73.7129127376146,78.87883936047183,399.99999999999994,404.9827824563211,387.93489915834846,365.3357270326928
207,15,207,0,6.899999999999979,16.87464982169139,157.59714400425972,22.499533095588333,33.74929964338266,45.34925875825182,45.34925875825182,28.681389575283017,101.40402531267887,67.73256393729883,59.308603886479546,56.71180039472131,51.458496779210236,25.639703441613392,47.30958085559655,9.58130943510821,4.745882243558185,17.78744271809948,22.499533095588333,22.44593362991054,70.80020554540977,68.7108234256043,67.73256393729872,400.0,405.3429984727941,388.27995176324714,360.1682642382116
208,15,208,0,6.933333333333312,22.145461294330605,155.41318060248574,22.145461294330723,33.21819194149597,44.6356042274657,38.75455726507864,28.23003481932647,105.33653421587891,72.18537226716133,61.130667002271935,55.456594344513405,56.47195471484906,27.982137264840617,49.3644321224989,12.124597363420776,7.316567374478041,22.82701901113823,22.145461294330723,19.33664234683488,70.53768219802936,67.2228292242861,72.18537226716133,400.00000000000006,399.5783217956677,388.1777844456903,366.07057084017146
209,15,209,0,6.9666666666666455,28.068965967813387,151.67633973255724,16.841379580687963,34.147370890646094,44.91034554850135,44.91034554850135,33.68275916137604,112.41612109504712,78.5931047098774,64.44721763653513,60.985858121529304,57.689325250095294,25.71295639718528,53.07417923008768,14.83439792145316,10.219251901445432,22.455172774250734,28.624841039250473,24.888823179326778,72.19406988440494,73.18302974583526,73.19490817956806,400.00000000000006,399.5664382624984,388.0020590073882,365.284998050924
210,15,210,0,6.999999999999979,22.85110854718617,155.57718937711468,16.62662368279478,33.253247365589324,38.79545525985418,44.33766315411914,33.253247365589324,105.44769670437216,72.26155006884963,61.02128219749147,54.72626631776984,56.580380258590594,22.458702734778853,49.79193083010205,17.584177374234287,6.848259555611662,22.168831577059624,22.851108547186197,19.034572956972966,71.20395634022407,72.31044369200413,72.26155006884963,400.00000000000006,399.6542948410673,388.3106739416577,360.41400225797696
211,15,211,0,7.033333333333312,22.455172774250663,157.2864237808562,16.841379580688063,33.68275916137612,39.296552354938726,45.259847672146336,34.14737089064614,106.80969991191249,73.194908179568,61.97357906094021,55.65761143415534,52.12897224360415,19.941259291139772,52.91476164318101,14.989303452299282,4.433038310818347,22.455172774250666,22.455172774250663,22.254148844610427,66.65866302822667,67.51858350323482,73.194908179568,399.99999999999994,399.2113556997072,387.71767444344357,365.284998050924
212,15,212,0,7.066666666666645,16.383111345890708,153.29861702971942,22.51643285178761,32.766222691781515,38.61536376537871,43.68829692237536,27.305185576484657,98.450246682075,65.75959492214294,57.57594383259959,49.34225451696523,50.18059379273893,22.515397692207443,48.683559371714296,17.425480660724247,1.7964413052293366,16.38311134589082,22.516432851787528,21.617177039592775,69.46239713553337,66.76773517768936,71.2032125938892,400.00000000000006,399.5897243547172,377.1675473938379,360.5938976098684
213,15,213,0,7.099999999999978,16.60909597074794,155.41318060248577,22.14546129433079,33.218191941495895,38.75455726507874,44.29092258866145,28.230034819326452,99.80824526939037,66.66666666666674,58.382462380559105,50.7469290712304,50.27705009834847,22.495455826714306,49.27855728097484,11.864444065264593,7.576798437718367,22.82701901113816,22.827019011138304,21.878739674807207,69.07220901361904,68.543595169127,77.70659030124294,400.00000000000006,399.2329810775615,382.37010415528584,360.24682896283446
214,15,214,0,7.133333333333312,16.841379580688002,157.58668448771735,22.45517277425075,33.68275916137611,33.68275916137601,39.29655235493853,28.62484103925029,101.20409604620475,67.59902168606526,59.198477152693044,51.422845302514474,51.008144937171664,22.808520093857283,49.971394023814696,12.441010960285894,7.257256393499915,23.146262297432397,23.14626229743227,22.186469545842897,70.08436174294332,69.047610829586,73.83792118874732,400.00000000000006,399.5664382624984,388.00205900738825,370.89291190004616
215,15,215,0,7.166666666666645,16.626623682794573,155.57718937711485,22.168831577059507,33.253247365589374,33.25324736558926,38.79545525985431,28.25982620124476,99.9135737102668,66.7370205341199,58.445479117490095,50.90268153140971,50.24548728628588,22.523839128334885,49.31944084997508,12.30745586322837,7.1992642306746575,22.851108547186232,22.16883157705962,22.10562460871074,69.00539573800268,68.31832902719145,66.7370205341199,400.00000000000006,394.120739890488,382.77362238967356,360.62700032766446
216,15,216,0,7.199999999999978,16.626623682794605,155.28075749896664,16.626623682794712,33.25324736558932,44.68270853821856,44.33766315411913,33.71193451435751,99.91357371026682,66.73702053411998,58.406106000648606,54.543933802480524,51.79158120148713,19.666003261936112,46.745601432999365,9.189306264606785,4.246909658521872,22.16883157705951,22.16883157705962,22.137201564978454,71.8571195184062,66.50039026270952,72.26155006884947,400.00000000000006,399.6542948410673,382.7736223896735,366.16340384901287
217,15,217,0,7.233333333333311,16.841379580688013,157.2864237808562,16.84137958068802,33.68275916137604,39.29655235493867,44.91034554850142,34.14737089064618,101.20409604620474,67.59902168606534,59.15841113905651,55.175176473833176,52.51968669701762,19.916173326116223,47.35623435320986,14.900248192131471,4.278289084869357,22.455172774250766,22.455172774250535,22.424135893108655,72.87844165260321,72.8784416526031,72.97931151631481,399.99999999999983,405.16655460520417,393.32624469341573,370.6804266852984
218,15,218,0,7.266666666666644,22.168831577059578,155.57718937711476,16.626623682794744,33.71193451435745,44.33766315411916,38.79545525985432,33.253247365589374,105.44769670437222,72.04870262544368,60.861294327820474,54.625865904623765,56.67506773384332,22.453397185876952,49.79560445003494,12.031742168703317,7.142932090422391,22.851108547186158,22.85110854718624,21.809362325265056,71.0194805383801,72.5124704425258,77.78859468855741,400.00000000000006,394.12073989048815,382.77362238967356,360.41400225797696
219,15,219,0,7.299999999999978,27.68182661791331,155.11706122149272,16.609095970748076,38.754557265078546,38.75455726507866,44.290922588661395,28.230034819326466,110.86562920699814,72.1853722671614,58.37637679768204,55.88216741263341,50.596818953840284,25.239023539180835,57.60435960707173,20.488148520041022,10.214381291150744,22.14546129433058,22.14546129433081,21.898564541348264,69.98632762570514,73.22286123249421,72.18537226716128,400.00000000000006,399.5783217956677,388.17778444569024,360.54450094926
220,15,220,0,7.333333333333311,28.068965967813387,157.5866844877174,22.45517277425062,39.296552354938704,39.695512353470434,44.910345548501354,34.14737089064616,123.63097063334864,84.39381688572011,70.38750005179156,61.74551232316344,62.937510630560496,28.369559716048002,61.26871300020491,23.482366655720625,7.390389505861208,23.146262297432372,16.841379580688084,16.80717613429738,71.63909827455848,68.06310335236753,78.79334224385862,399.99999999999983,399.5664382624984,388.00205900738825,365.284998050924
221,15,221,0,7.366666666666644,28.09942305451909,157.75767872094352,22.479538443615255,34.18442353580541,45.30895824880309,44.959076887230616,28.655901295138523,112.95828268926968,78.87883936047179,64.86818268123795,57.18523489502536,56.58265075493023,28.441971412488783,56.04032502884468,18.07752420285317,7.713076993217214,22.479538443615247,22.47953844361537,22.416130011537916,70.4420859771177,69.23691769692732,73.27433054473116,399.99999999999994,399.99999999999994,388.4230724628449,365.98352420854155
222,15,222,0,7.399999999999977,28.099423054519054,157.4570922070544,22.47953844361534,34.18442353580537,44.95907688723067,45.30895824880326,28.65590129513849,112.95828268926968,78.87883936047182,64.8359465523016,55.28368923336211,52.53741525416706,25.55228832816306,58.92548733620765,20.53735323571982,9.910466968399646,23.17137785453966,22.479538443615336,22.44780469950763,72.8956636651568,72.71655884042661,73.27433054473119,399.9999999999999,405.60619291956317,388.423072462845,365.6813616672649
223,15,223,0,7.4333333333333105,27.711039471324415,155.57718937711473,16.626623682794712,33.711934514357395,44.337663154119134,44.68270853821844,33.7119345143575,111.39700000751289,77.78859468855742,63.95141788804608,55.02796422924894,56.931634343125666,22.457358374639398,55.325412684542016,17.579203707830402,7.168507772566954,22.851108547186183,22.168831577059507,22.130165073816897,71.23890504273015,72.60716793707911,77.78859468855742,400.0000000000001,394.1207398904879,388.31067394165774,365.9536281779142
224,15,224,0,7.466666666666644,22.47953844361529,157.45709220705436,22.479538443615287,34.18442353580529,39.33919227632688,39.33919227632688,28.09942305451923,106.92559703099279,73.0584999417498,61.69183978557112,55.87355251362135,51.40486795939171,25.597464879428685,53.27931617844763,15.10055485271505,4.243750767942743,17.771635557785245,22.47953844361529,22.433396285662184,77.28724896811707,74.13817596010301,73.27433054473126,399.99999999999994,399.6445321440557,388.4230724628449,365.6813616672649
225,15,225,0,7.499999999999977,16.859653832711405,151.84092076613533,22.479538443615393,33.719307665422924,39.73858517856013,44.95907688723069,34.184423535805394,106.9255970309928,73.27433054473117,64.84545116797563,60.97716605731773,57.8175744020474,25.409613265046914,47.526754851938335,14.838269222180088,4.266925179313489,22.479538443615283,23.171377854539838,22.11714158689165,77.98580898662271,73.49741710250055,78.87883936047183,400.0,399.64453214405563,388.1383793187648,359.8481936365418
226,15,226,0,7.53333333333331,16.64100588675695,144.64811413591588,22.188007849009157,33.28201177351368,33.74109569147891,33.74109569147891,33.74109569147892,105.53891006856918,72.32405706795794,64.00561335987675,54.373843655008045,57.02478944533891,22.150124825875423,49.83778085821973,12.047075869392302,0.972013456454647,22.87087499587465,22.870874995874708,21.826120340390617,82.444414079289,78.14399090830784,77.85588263926145,400.0000000000001,400.00000000000006,383.10472558979325,360.9389464672981
227,15,227,0,7.566666666666643,11.239769221807565,140.60946804166824,22.479538443615365,39.339192276326784,34.18442353580541,34.18442353580538,34.184423535805394,106.92559703099279,67.67237206409774,62.057659487213414,61.41183710844393,57.478191710484225,25.4219172733807,47.46794483955716,9.364424492157468,4.139134336658913,22.479538443615365,28.099423054519207,28.034562351130035,88.06668801402077,85.74759856298488,78.87883936047177,399.9999999999999,405.2556425360948,388.13837931876486,365.681361667265
228,15,228,0,7.599999999999976,17.771635557785302,134.99426081877374,22.47953844361529,39.33919227632681,28.09942305451906,28.655901295138364,34.184423535805294,112.39769221807646,73.05849994174964,64.68358966364383,65.89631565010939,63.79230911937418,30.858762450783047,47.36936925446878,9.05891700733207,9.380362449527865,23.1713778545397,22.47953844361529,22.442736327842113,83.66348190965107,79.0463564672043,84.48539096797406,400.0,400.00000000000006,388.4230724628449,365.68136166726504
229,15,229,0,7.63333333333331,11.227586387125253,129.23922481448128,22.455172774250734,39.29655235493873,28.06896596781336,34.14737089064614,39.29655235493873,112.27586387125345,72.97931151631472,67.20503695756736,71.85219376846294,68.5455629607103,30.995940139338927,41.80951656469233,3.768367542168562,9.368787288632348,17.752372804808616,22.45517277425074,22.401678985855824,87.84913740596903,85.76387473441332,84.39381688572008,399.9999999999999,405.59413011639225,388.00205900738825,365.284998050924
230,15,230,0,7.666666666666643,11.239769221807705,123.63746143988415,28.099423054519082,39.33919227632679,34.18442353580534,34.18442353580545,33.719307665422996,112.39769221807657,73.05849994174979,67.36387165381564,70.53808550137774,64.71869344751406,33.94645364753808,44.64472994858022,6.142691612411568,6.671727253672088,23.171377854539692,23.171377854539635,22.19010606397501,84.52813912581763,77.73884839631,78.67838455265357,399.99999999999994,405.6061929195631,388.4230724628449,359.8481936365417
231,15,231,0,7.699999999999976,11.08441578852977,121.92857367382763,27.71103947132432,38.79545525985432,28.259826201244685,33.25324736558932,33.71193451435752,110.9826265937335,72.26155006884947,66.69483448529468,69.59460989769889,63.795059072890695,33.215609269356264,44.28747902580835,0.5272318931644122,6.326782717972719,22.851108547186122,22.85110854718622,21.880123566322027,83.30263911997281,82.51179128022619,77.7885946885574,400.00000000000006,399.65429484106727,388.31067394165785,360.414002257977
232,15,232,0,7.733333333333309,10.933288385462301,120.39035004522553,21.86657677092471,38.26650934911839,27.874525412604875,38.26650934911827,38.26650934911827,109.33288385462367,71.06637450550528,65.52388649527563,68.67744252980765,68.35624700777203,30.29457764654569,40.68963272333633,3.255754609725159,8.9788748205425,21.8665767709246,22.539551424299972,21.57849916221403,82.10925526948097,81.43766463249727,76.72800759692994,400.00000000000006,394.2053188321944,383.01635939628596,355.50003717135974
233,15,233,0,7.766666666666643,16.87464982169123,129.49453763704744,22.499533095588415,39.374182917279754,28.124416369485605,33.749299643382564,39.37418291727976,118.12254875183916,78.7483658345594,70.21685076123163,70.90082837486432,69.82392745127243,31.040941486778593,47.60193136580085,9.153657850531545,9.153657850531431,22.499533095588532,23.191987870047857,22.178337939920652,84.05648290090653,84.17290462237594,84.56053735024759,400.0,405.616101250715,388.4836129111424,365.790445190094
234,15,234,0,7.799999999999976,27.71103947132435,127.47078156809243,28.25982620124467,38.79545525985441,39.18932784780317,38.79545525985429,33.25324736558938,127.59120746322465,88.84835149970861,74.9412102907396,73.94870958121612,70.54161759329952,39.003796539932296,55.3282111950806,11.450791768084969,11.747060636599485,22.851108547186172,22.168831577059546,22.160911364883646,85.82909120864696,80.37774402798038,83.13311841397328,400.0000000000001,399.6542948410673,388.3106739416578,360.62700032766446
235,15,235,0,7.833333333333309,32.79986515638695,136.66610481827956,27.333220963655968,43.7331535418495,32.79986515638718,43.733153541849504,33.252298462017556,136.77539400393215,93.09359608306701,76.66948196194699,78.96075383667176,74.55446176989312,43.79854314377883,60.013697949524044,11.544485214959877,17.0082873777651,21.86657677092475,27.333220963655968,24.5871097326243,84.07205263413493,79.84201225002766,76.72800759693,400.00000000000006,400.00000000000006,383.2893436508434,355.7101311777441
236,15,236,0,7.866666666666642,27.7110394713245,133.1284020562721,27.711039471324387,44.33766315411913,38.795455259854144,38.795455259854144,39.189327847803305,138.66599721227922,94.38039955172428,80.52450116789134,80.80282853230642,80.7149356803859,41.76375347092187,57.90674060699928,9.009017321857982,20.317897602304015,22.85110854718622,22.16883157705951,22.148998683982427,78.6055072342923,81.97473322458063,77.5909105197085,400.00000000000006,399.6542948410673,383.0543805724132,354.8744569665918
237,15,237,0,7.899999999999975,22.851108547186286,133.47404106823987,27.711039471324376,44.33766315411907,39.18932784780319,38.79545525985417,33.711934514357445,127.95180509454853,83.86882406833139,72.30702676284284,69.33269516550615,75.48648467723751,38.97400024096498,55.384105605581794,6.153789511731361,11.8973263893472,22.168831577059592,22.168831577059592,22.153642242232763,79.1787583842763,75.89673731135292,72.04870262544368,400.00000000000006,399.6542948410674,382.7736223896735,354.8744569665919
