,video_id,frame_seq,time_seconds,m1,m3,m4,m5,m6,m7,m8,m9,m10,m11,m12,m13,m14,m15,m16,m17,e1,e2,e3,b1,b2,b3
0,54,0,0.0,31.92967639960182,157.38361213171993,12.466444198029192,31.929676399601934,33.45097999740134,37.97664417964152,33.912394621657945,109.36418652072803,77.89283340589252,61.7057506079708,26.44532168913031,61.7057506079708,10.578128675652124,65.23179349985492,22.919278797246307,5.289064337826062,22.300653331600834,21.229589485750108,21.15625735130436,96.96617952681129,49.36460048637662,63.00181249990653
1,54,1,0.0333666666666666,29.761832038774337,149.62792378856133,12.23372468007824,33.38928311966221,33.159800791252856,37.64607063275981,31.651739614869857,106.6224964543258,73.58936073536186,58.5471109689455,26.215124314453192,62.91629835468768,13.107562157226653,62.04246087753927,18.350587020117246,2.6215124314453533,20.4560108815256,19.53960000190827,19.224424497265545,94.37444753203158,47.18722376601579,65.78783395056534
2,54,2,0.0667333333333332,33.25178377181186,149.20886870321945,12.23372468007824,31.651739614869857,31.506658302807928,36.029242179062784,31.651739614869857,108.36994040274973,77.07623022521271,60.29478592324233,27.962799268750018,62.91629835468768,13.981399634375066,62.91629835468768,20.9720994515626,1.74767495429694,22.106533860835203,21.26138345427534,20.098261974414072,96.12212248632841,48.93489872031262,67.46115876084656
3,54,3,0.1000999999999998,31.61882449561306,149.33893256112984,12.277277706489258,33.508151605555945,31.618824495613044,37.780093618516176,33.73687884515975,110.55116460090657,77.48969404367976,61.38638853244663,28.062349043404197,61.386388532446745,11.40032929888298,65.77113057047859,21.923710190159454,4.384742038031845,22.185234867951163,19.372423510919944,18.415916559734114,98.21822165191475,47.35521401074459,62.675742572816745
4,54,4,0.1334666666666664,33.38928311966221,152.2183751070149,10.630691727137744,31.651739614869857,31.50665830280789,36.7427617862003,33.617198960864414,108.41220911932916,77.21480324362118,60.29478592324233,26.215124314453192,59.42094844609392,9.612212248632886,65.53781078613292,23.59361188300784,4.369187385742066,20.4560108815256,19.30370081090526,19.224424497265545,97.86979744062529,48.93489872031262,64.66397330898474
5,54,5,0.166833333333333,34.72655818213202,152.5531357523118,10.30270673889197,32.80548931195187,30.42740475767655,34.76898526964953,31.334459255991305,108.39624815388895,76.25240448724017,58.3820048537209,25.756766847229756,56.66488706390555,10.30270673889197,66.96759380279741,24.039649057414522,3.434235579630581,22.909208710250986,22.388476850760597,20.60541347778394,94.44147843984257,48.07929811482893,59.73003549271756
6,54,6,0.2001999999999996,34.37164146582644,154.89841332408938,10.298627191519358,30.943523671592512,31.55632620415415,33.80990492099524,31.322051797042405,106.54365497834654,75.83470354116899,58.35888741861015,20.59725438303883,54.926011688103586,6.865751461012906,68.65751461012962,27.46300584405185,8.582189326266189,23.346079004318778,22.37961171907964,21.455473315665586,97.8369583194347,48.060260227090794,65.13423739628915
7,54,7,0.2335666666666662,33.348246938300946,165.68720505539238,10.473162134371591,31.467935909770425,33.119046648844524,37.59980276362095,31.8528791023467,106.70582438439507,75.56337892126844,58.47515525024119,20.94632426874307,54.11133769425305,6.109344578383457,68.94831738461266,27.055668847126412,7.8548716007785515,23.741734317309938,22.7588879254908,21.819087779940673,97.74951325413451,47.12922960467199,67.37824747653337
8,54,8,0.2669333333333328,36.12954761966665,164.25008823162221,10.27622888064161,29.166311998856344,34.12540165124286,37.56254905100415,29.56586913720757,104.69936970353167,75.84401494265508,57.37561125024911,17.127048134402685,49.6684395897679,4.281762033600671,71.07724975777137,28.259629421764544,9.419876473921477,21.66419268002005,20.623696996593807,19.6961053545632,90.77335511233457,44.53032514944721,63.37007809729019
9,54,9,0.3002999999999994,32.82969777521278,161.08884831883884,10.310309512171784,30.9786246766998,35.425412626245844,40.22635960886991,30.010302435727723,103.46047260619935,72.9048977218888,55.847509857597515,20.620619024343682,51.55154756085926,6.873539674781227,67.017011829117,25.77577378042963,6.873539674781227,23.37256179429005,22.404998190044783,20.62061902434357,96.2295554469373,48.114777723468706,62.550155200921026
10,54,10,0.333666666666666,32.829697775212885,169.52892735874138,12.028694430867063,30.930928536515466,37.09483219561134,41.84540727700115,29.663922956720498,105.17301862209175,74.38840480726978,57.565894776292794,18.902234105648404,49.833162642163984,5.155154756085835,70.45378166650767,29.2125436178203,8.59192459347662,21.255247575747504,20.692094521239852,19.761426564995986,91.07440069085129,46.39639280477331,62.55015520092113
11,54,11,0.3670333333333326,32.861552866606,171.0825261949061,12.040366032691168,32.72622674797329,37.13082580352974,42.482157758412534,31.716197120135792,108.70403878116622,76.38271746034718,59.3418040182637,20.640627484613447,49.88151642114917,4.300130725961253,73.10222234133926,28.38086279134336,9.460287597114416,21.75713172881684,22.360679774997948,20.640627484613447,94.6028759711449,49.88151642114917,65.92536572635645
12,54,12,0.4003999999999992,35.99550286528817,171.40118603575937,10.238102896039209,30.76167079595455,36.835044426321375,39.94464068440261,30.761670795954522,106.46587837479285,76.31031345393664,57.16274116955185,17.0635048267319,46.0714630321761,2.5595257240097453,74.22624599628386,33.27383441212726,11.091278137375866,19.972320342201158,20.476205792078304,18.769855309405102,92.14292606435225,49.4841639975225,65.40020920086761
13,54,13,0.4337666666666658,34.61178972834959,173.61908114888936,10.370581783181251,31.11174534954364,35.632503409302025,40.461515890570546,30.62786289919955,105.94304906434903,75.04254383964653,57.03819980749665,15.555872674771763,44.939187727118565,0.8642151485984186,75.18671792806379,33.70439079533901,12.96322722897662,21.863106063935398,22.469593863559226,21.605378714960807,95.0636663458277,51.85290891590603,67.49736084254539
14,54,14,0.4671333333333324,34.87181303171935,169.14528866585036,10.409625256983077,31.22887577094923,35.76665371469881,40.613846605344776,30.299381588481975,106.3419065968493,75.32506623382682,57.25293891340675,15.614437885474558,45.10837611359318,0.8674687714152469,75.46978311312716,32.09634454236436,13.012031571228817,21.94541693392142,20.81925051396604,19.951781742550907,93.6866273128474,50.31318874208466,69.85143819467436
15,54,15,0.5004999999999991,36.313764053658474,169.52445304773767,10.328625059503452,29.31502446117899,34.29939939588415,38.68449671092789,32.661980285923065,107.40721699421054,78.67929901218677,59.389594092144876,18.93581260908968,48.2002502776827,2.5821562648758345,73.16109417148277,31.846593933468966,11.189343814462063,21.293006043867127,22.444799110117064,20.657250119006903,94.67906304544823,51.643125297517145,67.22428376962343
16,54,16,0.5338666666666656,34.49970075171598,171.3559768724633,11.941302882757327,30.75355702830538,33.51562529644433,36.74621944889067,30.228632313216202,106.43779669465833,76.29018567359907,58.00061400196432,15.353103706402294,44.353410707384455,0.8529502059112701,75.91256832610031,34.970958442360825,12.794253088668597,23.2027541422431,20.4708049418698,18.76490453004726,93.82452265023647,49.47111194285196,64.9587523881991
17,54,17,0.5672333333333321,36.149435445550495,172.43246221069666,10.281885520820879,30.893221211475257,36.992567255043745,40.11546151252699,30.89322121147519,106.92117323286072,76.63664987142066,57.407194157916365,15.422828281231205,46.26848484369373,1.713647586803404,75.40049381935285,32.55930414926604,10.281885520820879,21.67611792460026,20.63504949121317,19.706947248239885,92.53696968738757,47.982132430497245,67.7920371503931
18,54,18,0.6005999999999987,37.99719703147213,169.69342352656355,12.040366032691281,31.008683647302178,35.45978637420346,39.29858392136859,29.39226642237349,109.03015163016629,78.61598675066709,58.48177787307145,15.480470613460056,46.44141184038028,3.440104580768889,77.40235306730051,34.401045807689115,10.32031374230678,21.275871824522056,20.640627484613447,19.78060133942131,92.88282368076045,49.88151642114917,63.82761547356615
19,54,19,0.6339666666666652,39.57850426315831,174.7656126426265,10.379324779560719,29.058101645126722,35.17731637192619,39.944640684402565,29.158129829568274,106.46587837479285,77.98973768864118,57.16274116955185,13.650803861385612,42.65876206682981,0.8531752413366576,77.63894696163004,36.68653537747343,11.091278137375639,21.10638982315575,20.547180721677137,19.623030550741532,92.14292606435225,47.7778135148493,63.31916946946714
20,54,20,0.6673333333333318,33.87271134232221,180.9171533202648,11.796612631600397,32.06369464113981,38.42916520561399,44.77768420229549,28.249608829507743,104.97240356209224,73.41881703733277,55.61260240611625,13.481843007543375,42.13075939857299,0.8426151879714325,76.67798210540275,34.54722270682976,12.639227819571829,21.316665480325845,20.222764511315063,19.380149323343517,91.00244030091756,48.871680902344565,65.05076568189688
21,54,21,0.7006999999999983,33.9893505500618,177.93657318769777,10.14620036051872,32.17410457857728,38.15145232188906,44.387613396626,28.896391293671446,103.83000117972368,72.3003299995515,54.11306858943328,15.219300540778136,42.27583483549472,1.6910333934197297,74.40546931047083,30.43860108155627,10.14620036051872,21.39006849044047,20.362738542760457,20.29240072103744,89.62476985124886,49.039968409173866,63.182221684383215
22,54,22,0.7340666666666649,32.06846237023686,177.16351974388272,10.071240219159563,30.26031084807927,38.276601993852815,43.02435707624618,29.314441484325307,99.94011026219435,70.45870496071048,52.87401115058799,10.071240219159677,40.28496087663848,1.6785400365266696,73.8557616071705,31.892260694005472,13.428320292212788,19.646807415672306,18.766648123142243,17.624670383529292,90.64116197243641,48.67766105927137,63.1853840617717
23,54,23,0.7674333333333314,33.59742873082658,179.71911687665454,10.0292073247806,30.087621974341914,39.73192277744397,44.41377717048563,28.02002502047261,100.97230965398496,71.17283427772932,53.48910573216335,8.357672770650538,38.44529474499234,3.343069108260238,76.89058948998479,33.43069108260204,16.715345541301076,21.1434255149005,20.127941425277008,18.386880095431252,90.26286592302552,48.47450206977294,66.90315747834907
24,54,24,0.800799999999998,38.759955944208336,183.5515811624586,10.073280341294776,28.540960967002093,39.90652338465099,44.06860278110722,28.143158084279683,104.75189110146528,76.45819590439484,56.24248190556284,8.394400284412427,36.935361251414406,4.197200142206157,81.4256827587999,41.13256139362056,15.949360540383395,19.650787251901228,18.5438363328228,17.62824059726597,88.98064301477098,48.687521649591645,64.34733547311194
25,54,25,0.8341666666666645,36.94320414099083,181.90706212557893,9.983029409212577,28.334144151981157,39.16210094189785,41.595955871718964,26.880129321540164,100.71376524346728,73.09535078645985,53.24282351580041,8.319191174343814,36.60444116711278,2.495757352303144,77.36847792139747,37.43636028454716,14.142624996384484,18.97067466737691,18.377693978325095,16.638382348687628,89.84726468291319,48.25130881119412,62.166126707785345
26,54,26,0.867533333333331,35.614424190613505,183.5515811624586,10.07328034129489,30.266440652218318,39.90652338465102,41.972001422061815,27.79040984294699,101.85974367388182,72.48407886854389,52.884721791797915,6.715520227529851,35.25648119453194,4.197200142206157,79.74680270191743,37.77480127985564,15.949360540383509,19.650787251901267,18.5438363328228,17.62824059726597,88.98064301477109,48.68752164959176,61.11215652512953
27,54,27,0.9008999999999976,35.428498313195085,183.6162860489884,10.215828677848169,30.2304940042186,40.37724269478193,43.60162619631771,28.69882822164914,103.55684135682473,73.7821648155269,54.58283639650563,6.717887556492997,35.26890967158829,5.878151611931344,81.45438662247773,39.46758939439644,19.31392672491745,21.243825743420945,18.474190780355684,17.63445483579403,89.01201012353238,48.70468478457428,69.24639994110802
28,54,28,0.934266666666664,34.24680906981871,183.46596566206026,10.160374337665075,28.787727290050952,40.2515568280828,44.44962173428029,28.030686870090413,99.66608527487269,71.4645096650001,52.495267411269424,5.080187168832481,33.86791445888343,5.926885030304675,78.74290111690414,38.10140376624395,17.78065509091391,18.238430103502072,18.62735295238599,16.933957229441717,88.05657759309713,49.1084759653811,63.270485599384614
29,54,29,0.9676333333333308,35.48339660766461,182.38603923508086,10.036220144324489,30.108660432973693,39.370761144351704,41.81758393468561,29.212508265358288,103.39688317282946,73.84563819900096,54.36285911509128,10.036220144324602,35.12677050513594,4.181758393468499,79.45340947590262,39.308528898604436,14.217978537792987,19.578490837872952,18.47561245700535,16.727033573874223,86.98057458414598,50.18110072162267,62.49735501966435
