,video_id,frame_seq,time_seconds,m1,m3,m4,m5,m6,m7,m8,m9,m10,m11,m12,m13,m14,m15,m16,m17,e1,e2,e3,b1,b2,b3,label_measures
0,120,0,0.0,37.4588690388689,156.20343398684085,15.607862099528688,34.47889431915375,46.82358629858618,53.0667311383977,37.45886903886901,124.90191035656191,90.5256001772666,71.79616565783215,71.79616565783215,65.55302081802063,31.215724199057377,56.18830355830335,18.72943451943445,15.607862099528688,12.486289679622985,12.486289679622928,12.486289679622928,53.06673113839759,62.43144839811487,59.39196581123798,"{'neutral': ['m1', 'm3', 'm12', 'e1', 'e2']}"
1,120,1,0.04,40.56438687000696,162.25754748002805,18.72202470923401,31.20337451539001,46.80506177308507,53.045736676163074,37.44404941846801,127.93383551309898,96.73046099770896,76.4482675627055,68.64742393385802,68.64742393385802,31.20337451539001,59.28641157924096,21.84236216077295,15.601687257695062,15.601687257695003,15.601687257695003,17.161855983464534,56.16607412770202,65.52708648231902,62.48470877264496,"{'neutral': ['m1', 'm3', 'm12', 'e1', 'e2']}"
2,120,2,0.08,40.23278567041507,158.10915040592437,15.780596863049542,31.102653221452755,43.32761533737016,52.6121043382351,40.35164201701117,126.925752559029,95.93971967560526,75.82332684039773,74.27591200692018,64.99142300605513,29.400881836072585,57.25434883866762,23.211222502162517,13.926733501297464,18.568978001730045,18.82511393580925,18.568978001730045,55.70693400519008,68.08625267301011,61.97391578441197,"{'neutral': ['m1', 'm3', 'm12', 'e1', 'e2']}"
3,120,3,0.12,34.33729661896314,159.4753884233842,18.72943451943445,34.33729661896314,43.70201387868042,46.82358629858618,40.70032485572754,128.02253151265452,93.69918436046969,76.47852428769068,74.9177380777378,65.55302081802051,29.654937989104496,57.74908976825623,20.29022072938733,14.047075889575808,18.72943451943445,18.98778375141501,18.729434519434506,56.18830355830335,68.67459323792633,59.39196581123799,"{'neutral': ['m1', 'm3', 'm12', 'e1', 'e2']}"
4,120,4,0.16,27.62618207509263,153.75480293772205,18.671500575730008,33.76533364733541,39.90448521957831,46.04363679182097,36.8349094334568,116.6842620375318,82.93537074085016,69.06545518773157,70.60024308079232,61.39151572242804,29.16096996815338,50.64800047100312,13.813091037546316,10.743515251424924,21.48703050284979,18.417454716728457,19.952242609789156,52.18278836406381,64.46109150854943,61.46820721481844,"{'neutral': ['m1', 'm3', 'm12', 'e1', 'e2']}"
5,120,5,0.2,31.189143077590305,152.85862342329213,18.971615086447613,31.189143077590305,43.664800308626354,46.88756316728922,37.42697169310827,118.55977493848002,87.38527776707018,71.7350290784575,71.73502907845761,68.61611477069857,32.74860023146982,48.34317177026492,14.035114384915572,17.15402869267473,21.832400154313177,22.054054569561536,21.832400154313177,53.02154323190348,65.49720046293959,59.34139177850575,"{'neutral': ['m1', 'm3', 'm12', 'e1', 'e2']}"
6,120,6,0.24,24.962699612312008,149.8086976629004,21.842362160773064,34.46525364769826,43.68472432154613,46.90895770952267,37.44404941846801,118.61387312445426,84.24911119155308,71.76776138539708,71.76776138539708,68.64742393385802,32.76354324115948,48.365230498854544,10.921181080386532,14.041518531925476,24.962699612312008,22.0641177157358,21.84236216077295,56.16607412770196,68.64742393385797,59.36846893557764,"{'neutral': ['m1', 'm3', 'm12', 'e1', 'e2']}"
7,120,7,0.28,22.01383037778953,147.8071468223012,22.01383037778953,40.88282784446631,40.88282784446631,47.172493666691935,34.59316202224068,119.50365062228605,78.62082277781974,67.61390758892492,72.33115695559411,72.33115695559411,37.73799493335344,47.172493666691935,3.1448329111128714,15.724164555563902,25.15866328890229,22.23732677146483,23.586246833345854,53.46215948891745,66.0414911333686,56.69428156891935,"{'neutral': ['m1', 'm3', 'm12', 'e1', 'e2']}"
8,120,8,0.32,15.724164555564016,150.95197973341385,25.15866328890229,40.88282784446631,44.13983332147036,47.172493666691935,34.73581484197274,116.40130769532134,75.54147880732859,67.61390758892492,75.47598986670698,75.47598986670698,40.88282784446631,40.88282784446631,3.1448329111128714,15.724164555564016,25.15866328890229,22.23732677146486,23.586246833345854,53.46215948891745,66.0414911333686,56.69428156891935,"{'neutral': ['m1', 'm3', 'm12', 'e1', 'e2']}"
9,120,9,0.36,22.01383037778953,147.8071468223011,22.23732677146486,37.73799493335355,44.13983332147036,44.02766075557918,34.73581484197274,116.35881771117327,78.62082277781974,67.61390758892492,72.33115695559411,72.33115695559411,37.73799493335344,44.02766075557918,3.1448329111128714,15.724164555563902,25.35445350472336,25.158663288902343,25.15866328890229,53.46215948891745,66.0414911333686,56.69428156891935,"{'neutral': ['m1', 'm3', 'm12', 'e1', 'e2']}"
10,120,10,0.3999999999999999,21.86432666440476,149.92681141306173,22.08630521496932,37.48170285326546,37.61162249014888,43.84006409110505,34.9215147884789,115.61078521719575,78.14932548122677,67.15471761210051,71.83993046875878,71.83993046875878,37.48170285326546,43.72865332880963,3.1234752377721406,15.61737618886059,25.18226243734698,25.18226243734694,24.987801902176955,56.22255427989813,65.5929799932145,53.09907904212605,"{'neutral': ['m1', 'm3', 'm12', 'e1', 'e2']}"
11,120,11,0.4399999999999999,15.740226263443788,148.09202566112816,22.03631676882117,40.92458828495364,37.90748464856962,44.072633537642446,37.90748464856964,116.52020773572846,75.61864189991275,67.68297293280807,72.4050408118411,78.7011313172186,37.77654303226496,40.92458828495364,3.148045252688803,15.740226263443788,25.380352230484306,22.26004145658333,23.610339395165624,59.81285980108618,66.10895030646367,56.66481454839743,"{'neutral': ['m1', 'm3', 'm12', 'e1', 'e2']}"
12,120,12,0.4799999999999999,9.367855617684882,146.7630713437287,21.85832977459779,37.47142247073919,37.4714224707393,43.7166595491957,37.98829409366462,106.3525551558458,68.98089816947635,64.01368005417953,74.94284494147848,74.94284494147848,37.47142247073919,31.226185392282677,9.367855617684768,15.613092696141392,28.27651351220003,21.858329774597905,24.98094831382616,56.207133706108834,62.45237078456535,56.2938062845098,"{'neutral': ['m1', 'm3', 'm12', 'e1', 'e2']}"
13,120,13,0.5199999999999999,3.0992856001528253,145.69939059997563,21.69499920106921,40.290712801985705,40.290712801985705,43.38999840213853,43.38999840213842,108.47499600534616,68.18428320336045,66.63464040328404,80.58142560397141,77.4821400038187,35.641784401756695,29.443213201451044,13.946785200687486,13.946785200687486,24.794284801221977,21.91525864701822,24.79428480122192,55.78714080274938,58.88642640290215,55.78714080274949,"{'neutral': ['m1', 'm3', 'm12', 'e1', 'e2']}"
14,120,14,0.5599999999999999,0.0,138.35923956433578,24.5971981447708,36.8957972171562,39.97044698525258,43.04509675334896,43.154765967406526,104.5832977788441,67.71213724496262,67.64229489811976,83.01554373860154,83.01554373860154,39.97044698525258,21.522548376674425,18.44789860857816,18.44789860857816,24.5971981447708,21.741057007945724,23.05987326072261,52.26904605763798,58.41834559383068,55.34369582573436,"{'neutral': ['m1', 'm3', 'm12', 'e1', 'e2']}"
15,120,15,0.6,3.1006820312645686,133.36537691306376,24.805456250117004,40.30886640644019,40.3088664064403,40.3088664064403,43.52014619259042,111.66760984964483,71.38306102482488,69.76534570345405,86.81909687540951,83.71841484414483,41.85920742207236,26.3557972657494,17.053751171955355,17.053751171955355,24.998497731573305,21.70477421885238,23.255115234484663,55.81227656276332,58.91295859402794,58.91295859402794,"{'neutral': ['m1', 'm3', 'm12', 'e1', 'e2']}"
16,120,16,0.64,10.118964710848784,156.82763125808142,25.5991808393195,41.59866886389421,41.59866886389409,47.99846407372411,41.72156032472733,118.56905265837334,77.06373930406832,71.99769611058616,73.5976449130435,76.7975425179585,33.59892485160685,43.19861766635165,1.5999488024574475,7.999744012287351,12.79959041965975,12.79959041965975,11.199641617202303,63.997952098298754,60.7980544933838,60.79805449338369,"{'neutral': ['m1', 'm3', 'm12', 'e1', 'e2']}"
17,120,17,0.68,39.15448142568109,166.1183959796507,19.509616190520205,32.516026984200266,45.63841869904531,52.12715672134546,42.39571226460661,133.47423115570868,101.00924662910523,81.29006746050084,74.78686206366069,84.54167015892085,37.393431031830346,53.651444523930536,14.632212142890126,17.88381484131014,9.754808095260104,13.406701378129158,11.38060944447011,68.28365666682066,65.03205396840065,58.61910128295241,"{'neutral': ['m1', 'm3', 'm12', 'e1', 'e2']}"
18,120,18,0.7200000000000001,45.50439956381422,169.1413071256214,19.77088975932052,29.43284739500215,45.620334527671424,52.10650139492848,42.25408530925608,136.6678879180579,107.309606285684,84.50817061851205,74.75722785483765,81.25785636395403,35.7534568001397,58.50565658204687,26.0025140364653,16.251571272790784,9.75094276367446,9.75094276367446,9.750942763674516,71.50691360027946,61.755970836605,58.86569479000431,"{'neutral': ['m1', 'm3', 'm12', 'e1', 'e2']}"
19,120,19,0.7600000000000001,35.714568076740875,166.09424253759545,26.17636847307641,32.629724275754484,45.57071368735021,52.0498256074275,42.33281783757493,136.71214106205016,104.09965121485476,86.03964127578479,71.42913615348164,84.416251817751,35.714568076740875,58.44202048921227,19.480673496404165,9.740336748202026,9.740336748202026,10.267216433785515,9.740336748202084,71.42913615348169,58.44202048921227,65.25944855150921,"{'neutral': ['m1', 'm3', 'm12', 'e1', 'e2']}"
20,120,20,0.8000000000000002,22.91971959957363,172.88823209566158,25.93070264280448,39.03087604598351,49.05034192618555,52.26500207519378,43.24484045088118,130.6625051879847,91.67887839829469,79.41277684358863,61.5854187766605,81.03344575876383,29.172040473154997,58.34408094630987,16.2066891517527,0.0,13.364378242845696,13.364378242845753,14.586020236577497,74.55077009806269,55.10274311595936,55.95416639784352,"{'neutral': ['m1', 'm3', 'm12', 'e1', 'e2']}"
21,120,21,0.8400000000000002,12.750724408656538,163.6929338840924,28.86568007765857,41.56227661649499,45.08061847200919,51.39981333005532,39.42943765502429,122.1759615413754,80.70563938554415,73.31666534977523,60.5659409411187,79.69202755410345,31.8768110216414,51.00289763462615,6.375362204328212,0.0,16.2540481430459,13.14314588500804,12.750724408656538,73.31666534977518,47.815216532462046,58.16972150035136,"{'neutral': ['m1', 'm3', 'm12', 'e1', 'e2']}"
22,120,22,0.8800000000000002,11.287689970486982,161.15965660106536,25.045135366234604,40.81857667954561,44.27396263299899,47.37520884889339,41.767972812109015,117.3468830637522,76.74863008888612,70.43944321753497,56.35155457402789,78.26604801948326,26.610456326624217,48.5249497720796,1.565320960389727,1.565320960389727,12.90796731535972,12.907967315359691,14.087888643506972,72.00476417792459,46.959628811689925,56.698336644510185,"{'neutral': ['m1', 'm3', 'm12', 'e1', 'e2']}"
23,120,23,0.9200000000000004,9.748271929254887,155.63689327774347,24.66139403770353,40.193154831561706,41.12800432551088,46.6493263444759,41.92890296351597,115.54889522510064,75.5726883004875,69.36017073104108,55.48813658483289,77.06685636782345,26.20273116505996,47.78145094805052,4.624011382069398,1.541337127356428,12.710191561553664,12.710191561553636,12.330697018851764,73.98418211311042,46.24011382069404,62.87446471532541,"{'neutral': ['m1', 'm3', 'm12', 'e1', 'e2']}"
24,120,24,0.9600000000000004,15.94904445657802,161.0167036911242,25.21765349303445,34.54839767380066,44.23469044834359,47.33318577620361,41.73092350720381,117.24279325144884,82.81461812933775,73.5048265123221,56.3015692434808,78.19662394927889,26.586852142754765,48.48190684855297,7.819662394927946,1.563932478985521,15.949044456577996,16.84406829313551,15.639324789855776,71.94089403333663,46.91797436956739,63.79617782631199,"{'neutral': ['m1', 'm3', 'm12', 'e1', 'e2']}"
