,video_id,frame_seq,gap,time_seconds,m1,m3,m4,m5,m6,m7,m8,m9,m10,m11,m12,m13,m14,m15,m16,m17,e1,e2,e3,b1,b2,b3,m_0_16,m_1_15,m_2_14,m_3_13,label_measures
0,5,77,1,3.2115416666666614,17.14110813942031,154.29642331468526,17.141108139420083,28.56851356570033,39.995918991980346,42.85277034855038,42.85277034855038,105.7035001930911,77.13498662739077,68.56324635260705,68.09271426979501,66.14336706957386,24.266011699305068,38.583630790584834,7.041176524936873,9.864369021809011,19.99795949599023,23.03267198524387,20.00601587813202,60.5473962275596,62.32869625534801,54.35530408175495,400.0,400.0,388.6263011670517,368.6334691321104,{}
1,5,78,0,3.253249999999994,22.22168640483937,152.774094033271,16.666264803629588,27.777108006049275,38.88795120846896,44.44337280967886,38.88795120846896,105.5530104229872,77.77590241693792,66.66505921451824,66.66505921451824,66.66505921451824,27.777108006049275,38.88795120846896,8.333132401814737,11.110843202419687,16.666264803629588,19.44397560423448,19.44397560423453,61.10963761330851,61.1096376133084,52.77650521149371,399.9999999999999,397.2223566432965,388.889432353874,366.6578256798505,{}
2,5,79,0,3.294958333333328,19.442569287060792,147.20802460203174,19.442569287060905,27.775098981515384,36.21429841700744,41.66264847227308,38.885138574121584,105.54537612975868,77.77027714824328,68.04899250471283,72.21525735194018,72.21525735194018,33.3301187778186,33.330118777818484,5.5550197963031,13.887549490757692,22.220079185212285,22.3930006973482,22.2200791852124,66.66023755563702,69.43774745378852,55.61959236605614,400.0000000000001,397.2227598284713,388.8910624298291,369.45058115937127,{}
3,5,80,0,3.336666666666661,22.22007918521232,149.98553450018332,19.44256928706091,27.775098981515374,38.88513857412159,44.44015837042464,38.98420915143674,108.35848927818223,80.59566092107993,69.37993914397009,70.8240321133436,73.39483498189884,33.27761490963076,36.1499316948682,5.26855896518714,13.504649636669456,22.393000697348228,22.39300069734817,22.240618643704067,65.58721145517575,67.80889294651979,58.39380160234271,400.00000000000017,397.271309978356,386.1637847592585,369.50278040248753,{}
4,5,81,0,3.3783749999999944,21.90958698549836,147.88971215211365,19.170888612311,30.125682105060115,41.08047559780936,41.08047559780924,35.708258043214265,106.84434230268164,76.73244419246319,65.6931715202901,70.2938843423401,71.98394211370521,35.569456614011415,35.632051346284015,5.289254877050553,16.149440926379157,21.90958698549836,21.9095869854983,21.90815629547552,66.88247143347309,67.39887797472375,57.512665836932975,400.00000000000006,394.5246863100038,383.6622209623162,367.2409687392869,{}
5,5,82,0,3.420083333333328,21.613729078332003,143.2164407640041,18.91201294354052,29.84143007473178,37.82402588708104,40.61569938455267,32.42059361749795,102.70075586613012,72.94633563937047,62.13531905749642,66.66390476412471,65.61764530776566,33.72234770159923,36.548809815046525,6.582065087392493,14.592977044290024,21.781931841425983,21.613729078331943,21.61228488956391,68.75642367684247,69.17805062194225,64.8411872349959,400.0,394.6817992101196,383.9860094774971,362.3926974337157,{}
6,5,83,0,3.461791666666661,21.76065282937748,144.16432499462564,21.76065282937748,32.640979244066216,38.08114245141053,43.52130565875496,29.92089764039406,106.08318254321524,73.44220329914901,62.56187688446028,68.00204009180459,68.00204009180459,38.08114245141053,38.08114245141064,2.720081603672156,16.32048962203305,24.48073443304964,24.48073443304964,24.48073443304964,70.7221216954768,68.00204009180453,68.05641998061633,400.0,397.36472959197,383.8785935246636,364.85613603172425,{}
7,5,84,0,3.503499999999994,21.75612601398848,138.72196269614307,21.75612601398836,32.63418902098266,35.35370477273118,38.073220524479694,27.330795054752045,103.37737547545056,70.75968859847923,59.84375595622316,67.5873382417011,65.65144267033179,39.40930270287879,36.73592310432082,1.275232797013132,17.561338397423242,27.195157517485512,24.62626252131448,24.482933277597454,71.32085112934243,72.90336893768404,65.26837804196532,400.00000000000006,397.38444107618216,386.640164263859,364.9119968729078,{}
8,5,85,0,3.545208333333328,21.904966605085647,139.6441621074209,21.904966605085647,30.119329081992767,35.59557073326418,38.333691558899886,30.2435330278252,104.08461304439788,73.9799508564271,62.9911676454617,65.31391888220514,66.09842426680075,35.57193533092311,38.35616032331109,5.391551711778789,13.57501964520634,24.64308743072141,24.643087430721355,26.011737359823087,74.52801153657191,73.40509206450378,65.7719192618326,399.99999999999983,397.26349448970007,386.424425659364,364.67411166989183,{}
9,5,86,0,3.5869166666666605,21.90958698549826,134.19622028617718,22.0800921794819,30.12568210506014,35.60307885143465,38.34177722462202,30.24991224903713,104.07053818111704,73.9448560760569,62.98907964600585,65.3299417266079,66.07962958248697,35.59487340209671,38.36412854320122,5.393162636681268,13.57853004270828,24.64828535868563,27.38698373187294,27.386556367828632,71.80173689062542,70.68485498288726,65.7287609564949,400.00000000000006,394.52468631000346,383.662220962316,364.5041892166636,{}
10,5,87,0,3.6286249999999938,22.0754358422591,134.16792045614946,21.904966605085576,32.85744990762848,35.59557073326415,41.0718123845356,30.11932908199281,106.82181054493084,73.97995085642708,62.98341292205441,65.33359702939822,66.07896286279538,35.587415657806105,41.09399589637235,5.392493631413686,13.57630625116144,24.64308743072141,27.381208256357084,27.380785716628,71.79850476804654,70.6728502441407,65.77191926183261,400.0,397.2634944897001,383.6887981905325,367.16352351040985,{}
11,5,88,0,3.670333333333327,21.764175640020653,130.61338953620194,21.76417564002054,29.925741505028327,35.366785415033405,38.18434525309096,32.64626346003092,106.10035624510044,76.17461474007212,65.29252692006173,68.01304887506433,70.73357083006692,36.7270463925347,36.72704639253482,4.080782932503894,14.962870752514164,27.205219550025845,27.20521955002573,27.20521955002573,73.45409278506946,73.45409278506946,68.01304887506444,400.00000000000006,397.2800482854108,383.6804110000653,364.7123250260461,{}
12,5,89,0,3.71204166666666,21.913182636732824,131.5931774868233,21.91318263673271,32.983707655321055,32.869773955099355,35.60892178469087,30.254876657284264,106.8267653540726,74.0076989753104,63.01471924504324,66.12107864444681,70.86478019033405,38.34747120642987,38.33216894337875,2.8309186644810325,16.526444095348893,24.652330466324457,24.6523304663244,24.644294644036503,76.08285189080993,74.47611427042875,68.47869573979,400.0,397.3275319476499,383.6371869455605,364.3993274843456,{}
13,5,90,0,3.7537499999999935,22.0800921794818,126.00989011095676,21.90958698549837,32.864380478247504,35.60307885143479,35.60307885143479,32.97829548351926,109.54793492749154,76.68355444924403,65.73535402532752,68.83155690558556,70.87033423214348,36.97185748907452,39.695298843207866,4.199272702462736,15.169111899838413,24.64828535868554,24.6482853586856,27.37895372493392,76.073780841717,74.47623144404093,68.46745932968219,400.0000000000001,397.196249105866,383.5742373709728,364.4115801363665,{}
14,5,91,0,3.795458333333327,19.57276387626865,128.65140865888137,22.368873001449955,36.34941862735624,30.75720037699364,36.34941862735612,33.55330950217493,111.84436500724978,75.49494637989355,65.70472497906792,70.62407816611483,72.02960764812838,37.775493981640125,40.510986844483455,4.3450508180521865,15.559060233686182,25.1649821266312,25.1649821266312,26.5463713457695,77.07742320718728,76.5182340584293,69.90272812953106,400.0,400.08794537721246,386.1162469633583,366.5570026057288,{}
15,5,92,0,3.83716666666666,19.57276387626877,125.8559746777307,22.368873001449955,36.34941862735612,33.55330950217493,36.34941862735624,30.75720037699363,109.04825588206846,72.69883725471234,62.90877923527785,67.82813242232476,69.26388834481156,37.79060720187681,40.49587362424677,4.329937597815501,15.604399894396238,27.961091251812444,25.1649821266312,26.5463713457695,77.07742320718728,76.51823405842924,69.95862796103886,400.0,397.2049918135751,386.1162469633583,366.5570026057288,{}
16,5,93,0,3.878874999999993,16.545429808991905,126.8782652665296,22.06057307865595,35.848431252815885,33.09085961798381,35.84843125281589,33.090859617983924,107.54529375844768,71.69686250563177,63.420276025768885,66.90892440672042,68.26477465084577,34.4980098631645,39.95187938447725,4.288447682261335,12.621594688289631,30.333287983151845,27.71325194639257,27.54356450987035,75.98855076063785,75.51628831605484,68.99442026055421,400.00000000000006,397.2434842991948,386.2175722533184,364.1665430023067,{}
17,5,94,0,3.9205833333333264,13.695739147957966,120.646946976587,24.65233046632443,35.60892178469089,30.13062612550766,32.86977395509928,32.98370765532097,106.8618768637648,71.27050002283747,64.36997399540269,68.47869573979006,73.95699139897329,38.3480696142824,35.60892178469089,2.739147829591616,13.695739147957966,27.391478295916045,27.52809499525881,27.391478295916045,79.43528705815646,73.95699139897323,71.27050002283747,399.99999999999983,397.4124985718264,383.7251849761677,364.5640091456656,{}
18,5,95,0,3.96229166666666,11.10870063031234,119.45082014518532,22.21740126062468,33.44161732184909,27.771751575780904,33.32610189093702,36.10327704851508,102.79300337348047,69.42937893945209,63.87121427885938,70.09292914090076,71.56489582777397,34.7277913701995,31.89008239653685,4.028939746029209,12.663465981398872,27.771751575780907,30.67490222341395,30.51675265259837,79.31927703387942,78.8185048620565,75.03514079938999,400.00000000000006,400.06748044922506,383.41113360576907,366.8500166049556,{}
19,5,96,0,4.003999999999993,8.217443488774805,117.9106900681884,22.08371581286005,32.98370765532092,30.254876657284186,30.13062612550762,35.71411823775848,98.6473582493026,65.73954791019857,61.62702214604599,66.40501843094933,70.57435276873116,32.91339479059195,30.083116736477223,5.341008585990721,11.15373018100047,27.39147829591602,30.254876657284164,28.74406045281006,78.18262710774911,75.04801808007369,71.21784356938177,399.99999999999983,394.5894329972101,383.7251849761678,361.7334843725354,{}
20,5,97,0,4.045708333333327,10.88032641468881,117.08995603154106,21.760652829377506,32.6409792440662,27.200816036721907,32.640979244066315,38.08114245141049,103.363100939543,70.7221216954768,65.28093978661809,68.33528543305897,73.12194652076494,32.64806776805142,32.632872018566786,2.651658285094186,13.68377241104497,27.20081603672185,27.336481796204488,28.54521540716064,75.5228749393604,76.723339148658,68.05641998061631,400.00000000000017,397.2809317451866,386.49095735295913,367.3721711544416,{}
21,5,98,0,4.08741666666666,30.12568210506011,128.74795533230878,24.64828535868577,32.86438047824739,32.97829548351938,35.60307885143479,30.12568210506011,117.76403004705338,84.89964956880598,69.83573081269617,74.3240838823574,76.34764645274709,45.2106479542324,42.42634757542555,6.930321434680536,20.654031498526024,30.12568210506022,30.125682105060164,30.1252172133199,76.0433513293803,79.96875842081295,73.94485607605674,399.9999999999999,397.2623359761457,386.311826510277,369.8865380129259,{}
22,5,99,0,4.129124999999993,35.84843125281595,140.66318579443742,22.06057307865583,33.09085961798374,38.60600288764781,38.60600288764781,24.818144713488035,115.81800866294356,82.7271490449598,64.80196591456297,69.34511036828712,71.33414873608672,45.52185537214143,45.47664995469143,9.734233224231502,23.56709096392888,27.575716348319897,27.575716348319897,28.954069876719583,76.5779771602858,80.51084847843498,77.26123243364391,399.99999999999983,397.4348623920518,383.5503601360778,366.9228589123015,{}
23,5,100,0,4.170833333333326,25.50050912983079,155.8364446822991,22.667119226516206,28.33389903314525,42.50084854971783,45.33423845303241,22.667119226516206,99.16864661600846,70.8347475828632,58.08449301794781,62.33457787291957,62.33457787291957,39.66745864640336,36.83406874308889,5.666779806629052,17.000339419887155,28.33389903314537,28.33389903314525,28.33389903314525,70.8347475828632,76.50152738949225,76.55397959132783,400.00000000000006,397.0387123276569,391.37720476214,379.9384638690127,{}
24,5,101,0,4.21254166666666,28.333899033145325,164.33661439224275,22.667119226516125,28.333899033145325,45.33423845303248,48.167628356347024,22.66711922651624,102.002036519323,73.66813748617768,59.49771121443257,58.54819819119086,60.324706428223976,36.770657561352095,42.55962405789148,11.11849120763918,16.69305153764003,31.16728893645987,28.475216114450745,29.77948505957903,77.78349427493004,81.06084567773291,82.16830719612132,400.0000000000001,397.3216906241613,391.51051286766335,383.02149958193866,{}
25,5,102,0,4.254249999999993,28.134849952035985,163.1821297218086,22.507879961628767,25.32136495683232,42.202274928054095,45.10359563589809,25.47719021193934,101.32452847288172,76.01617858924594,61.92346744398208,60.980624865021696,62.744652915979714,36.51233922716119,39.447316932634976,11.070796733599993,16.60619510039976,28.134849952035985,28.275174263686075,29.55507342273552,74.45414946113351,77.6780627956436,84.40454985610796,400.00000000000006,397.189951430596,388.627732376292,380.0808929462295,{}
26,5,103,0,4.295958333333326,11.253939980814378,149.11470474579068,22.50787996162887,31.075957488463043,36.68335629546564,39.48914370042048,28.134849952035943,92.8876236205718,61.8966698944792,56.26230286329371,57.79811167118351,60.21587009152495,30.875839449707428,33.87142692648297,0.2508994587146844,10.910324947138632,25.32136495683241,28.134849952035943,28.153960473348093,77.87006836835855,79.93808814927968,78.77757986570076,400.0,397.3393926918306,388.627732376292,377.384730938731,{}
27,5,104,0,4.337666666666659,5.66862888330852,141.71572208271218,22.67451553323396,28.34314441654237,36.84608774150514,36.84608774150503,31.17745885819674,87.86374769128159,59.52060327473922,56.68548692772652,61.962061508764805,62.71585787748461,31.161941882875112,25.52354504485129,5.759004257019114,8.397291547538202,28.343144416542422,28.343144416542483,28.35028142755044,77.17367222952976,78.83202424071317,76.52648992466466,400.00000000000006,400.1305204537691,388.673291789085,377.2301096224478,{}
28,5,105,0,4.3793749999999925,2.833389903314582,138.83610526241182,22.667119226516206,31.16728893645984,34.00067883977431,36.83406874308878,36.83406874308889,93.50186680937952,62.33457787291968,60.91788292126239,68.00135767954873,68.00135767954873,31.16728893645984,25.50050912983079,8.500169709943634,8.500169709943634,28.33389903314525,28.333899033145315,28.33389903314537,79.33491729280684,82.1683071961213,79.33491729280684,400.00000000000006,397.32169062416096,385.8511160969689,374.53299236287455,{}
29,5,106,0,4.421083333333326,5.670194901237892,130.44529536510544,22.680779604951795,34.02116940742769,31.31467486099372,34.139094091721184,39.79248896761434,102.1028769829455,68.10137773165863,65.20724136423621,70.87743626547422,73.71253371609316,32.60362068211828,29.768523231499103,4.252646175928589,9.92284107716648,28.350974506189687,28.4923767524775,28.350974506189687,76.54763116671216,79.38272861733111,73.71253371609328,400.0,397.2779883913573,386.08364993653527,371.9276162280119,{}
30,5,107,0,4.462791666666659,14.257414991434098,120.23269238279352,22.368873001449856,33.5533095021749,30.75720037699364,33.669612483494106,39.14552775253742,109.08409754478885,75.54670843354414,68.50467356694048,72.69883725471232,72.69883725471232,33.5533095021749,36.34941862735616,0.0,11.184436500725042,27.961091251812377,28.10054893115264,27.96109125181249,78.29105550507484,81.08716463025598,69.90272812953106,400.00000000000006,397.2935558976279,389.0210859660007,369.4674953890191,"{'neutral': (['m1', 'm3', 'm12', 'e1', 'e2'], 3.501350698740111, 128)}"
31,5,108,0,4.504499999999992,11.418090237916257,125.63142618575776,25.69070303531144,37.1087932732277,34.25427071374866,37.108793273227576,37.21842067092219,111.36297024953552,74.2724609247814,68.52297022044559,73.87705053264892,71.70147322999571,35.66558109987841,38.55092121048938,1.350092297745732,12.737156477590132,23.01389662285304,22.83618047583252,22.843561677858588,83.38170030877922,79.38542710745179,77.12495251914028,399.99999999999983,397.1481141427233,391.5797382183784,374.4759358392918,"{'neutral': (['m1', 'm3', 'm12', 'e1', 'e2'], 3.501350698740111, 128)}"
32,5,109,0,4.546208333333325,17.13411747512472,129.57425181895067,19.71782092897077,36.618810296660165,36.61881029666005,39.43564185794154,33.80197873537845,107.07665648727064,70.47710314662125,61.97740008139101,67.22834229241118,67.9773138946033,33.80141404675362,39.451265045898026,0.0976919481120148,13.969948580016649,11.267326245126071,11.267326245126071,11.267138015584464,79.52124576317186,78.31637840312374,73.23762059331999,400.0,397.2631388484545,391.6307687895992,374.80799283127055,"{'neutral': (['m1', 'm3', 'm12', 'e1', 'e2'], 3.501350698740111, 128)}"
33,5,110,0,4.587916666666659,25.329129321317755,142.6538546601134,19.5799408357018,33.565612861203135,42.05015052201608,44.75415048160418,28.11085286681568,106.29110739380998,72.72549453260685,60.14561233191307,61.96620048725447,61.12210961523249,33.55674986322333,44.74509161786648,8.515387326573773,16.90664364255622,11.188537620401044,8.391403215300755,9.78979903531274,77.68946182883872,78.88111953051668,69.92836012750656,400.00000000000006,397.1930855242372,388.8419267643087,374.857756233365,"{'neutral': (['m1', 'm3', 'm12', 'e1', 'e2'], 3.501350698740111, 128)}"
34,5,111,0,4.629624999999992,28.168315612815388,152.1089043092031,19.7178209289706,30.98514717409698,45.069304980504505,47.8861365417861,22.534652490252423,101.4059362061354,70.42078903203841,56.3357321340128,56.78132549552481,55.92196686975183,33.81735332903304,45.05267165858493,11.378544767180529,17.043946077832743,11.614094056737333,11.267326245126268,11.26714642680264,78.24937709122645,79.42701668950804,76.10659782555781,400.0000000000002,400.0,388.76357695924446,377.5500124510792,"{'neutral': (['m1', 'm3', 'm12', 'e1', 'e2'], 3.501350698740111, 128)}"
35,5,112,0,4.671333333333325,28.162729709114046,154.9206137661232,19.71391079637988,30.97900268002548,45.06036753458261,47.87664050549392,22.530183767291305,101.3858269528107,70.40682427278523,56.325459418228206,56.325459418228206,53.50918644731678,32.387139165481244,46.46850402003816,12.673228369101253,15.489501340012794,16.89763782546845,16.89763782546845,15.489501340012737,73.2230972436966,73.2230972436966,76.03937021460797,400.0,397.18435978093066,385.9938158779226,377.47514258519976,"{'neutral': (['m1', 'm3', 'm12', 'e1', 'e2'], 3.501350698740111, 128)}"
36,5,113,0,4.713041666666658,19.910602979342176,146.42079279574185,22.52627581472948,33.78941372209433,42.23676715261786,47.86833610630006,19.71049133788838,95.77807185657338,62.01122057103543,52.09892837621885,55.91479790879487,56.71489958498012,36.60465168547682,39.43578069351713,2.708036442473372,16.77136205849922,19.710491337888325,19.710491337888325,19.710197061410668,79.47163764417314,78.30225827128709,78.84196535155341,400.0,397.1853399254993,388.6700660174872,374.6686676324175,"{'neutral': (['m1', 'm3', 'm12', 'e1', 'e2'], 3.501350698740111, 128)}"
37,5,114,0,4.754749999999992,19.71391079637987,143.62992151648174,22.530183767291312,33.79527565093686,39.52827480421046,45.06036753458251,22.705518581054243,98.60977824555351,64.83547275021346,54.944820605062205,58.36877315642096,59.93840533726848,36.59397378485869,39.4408556814941,2.616053634745981,16.66580050841128,22.53018376729125,22.7055185810543,22.55961546198614,77.29669063134787,74.95763091086911,76.03937021460793,400.00000000000006,397.1843597809308,388.8088979098064,374.7336667202167,"{'neutral': (['m1', 'm3', 'm12', 'e1', 'e2'], 3.501350698740111, 128)}"
38,5,115,0,4.796458333333325,17.01956453814682,144.66629857424718,22.692752717528943,34.03912907629341,39.71231725567576,42.64335965546753,22.86935267839008,96.48590465103638,62.46950475544244,53.90990781748292,59.18219505613865,59.9684133285698,36.86747055919659,36.88288660375406,2.736347908951529,14.067140658694145,25.52934680722006,25.68645196271739,25.54438583173271,80.04010334239962,81.7358682437216,73.75144633196906,400.0000000000001,400.05028600183294,388.70655191950993,374.5271094263373,"{'neutral': (['m1', 'm3', 'm12', 'e1', 'e2'], 3.501350698740111, 128)}"
39,5,116,0,4.838166666666658,19.84020109157956,147.4116014702687,22.67451553323395,31.30602624429871,42.51471662481363,42.60908903089083,25.665808871764195,99.36283428563569,68.08256921089256,58.15095374525333,60.75609209747711,61.091256096008806,35.359801845096285,38.376277831881794,3.884855437526767,15.097614661133434,25.508829974888226,25.66580887176414,25.533402797234544,79.00729529024966,80.1041956490809,76.52648992466455,400.0,400.13052045376907,391.5049115880411,377.3472171987754,"{'neutral': (['m1', 'm3', 'm12', 'e1', 'e2'], 3.501350698740111, 128)}"
40,5,117,0,4.879874999999991,19.840201091579765,144.57782125052867,19.84020109157965,31.30602624429861,39.680402183159416,42.60908903089081,22.850973568341374,93.70399575849254,62.41930071518227,52.48383312625447,57.9749915023707,58.266015237785496,35.390017930311046,35.51255423995951,3.852235234569776,15.125575722216922,25.508829974888226,25.50882997488823,25.533503522972865,79.02060268447309,80.0927953938961,73.6921754830103,400.0000000000001,400.1305204537693,391.5049115880413,377.4855702225768,"{'neutral': (['m1', 'm3', 'm12', 'e1', 'e2'], 3.501350698740111, 128)}"
41,5,118,0,4.9215833333333245,8.440454985610783,143.51531529091065,22.507879961628788,31.075957488463096,39.38878993285024,42.2959537890007,22.68304120230201,84.59190757800162,53.53020278498267,49.29402717538176,57.16130830514578,58.225481598060696,35.11771866619324,26.83236945706972,4.712767440051948,12.085968112391242,25.477190211939288,25.477190211939288,26.79436326803705,79.05287318796752,78.90084843183683,73.20469536133334,400.00000000000017,399.9999999999999,391.5700023485292,374.71141949487793,"{'neutral': (['m1', 'm3', 'm12', 'e1', 'e2'], 3.501350698740111, 128)}"
42,5,119,0,4.963291666666658,8.959965593798277,144.502885069041,22.66711922651621,31.16728893645984,42.50084854971794,42.50084854971794,22.667119226516206,85.0489071542278,53.90891949021157,49.60422120780095,54.26318121074348,58.92214121368613,33.937326295944786,28.45619688071838,6.166270592129877,10.551174124311274,28.33389903314526,28.47521611445077,28.41052080225802,80.20719377614967,79.01961573618394,76.55397959132777,400.00000000000006,397.32169062416096,391.5105128676631,374.87579478449067,"{'neutral': (['m1', 'm3', 'm12', 'e1', 'e2'], 3.501350698740111, 128)}"
43,5,120,0,5.004999999999991,14.452224645652771,144.66114340973647,19.84020109157972,31.17745885819668,39.78149891308076,42.60908903089075,25.5088299748882,90.74233748931113,59.58804873918131,52.4539622596792,57.52966340265789,55.72665314589847,31.12844178582065,34.11325708482593,2.3408830644483487,13.5983336591745,28.34314441654249,28.9044492913056,28.44665342072437,79.60517553794182,82.42332602329714,76.52648992466459,400.0,397.2997172426409,391.7920740284016,374.8159830339703,"{'neutral': (['m1', 'm3', 'm12', 'e1', 'e2'], 3.501350698740111, 128)}"
44,5,121,0,5.046708333333324,17.357638011353902,145.64434569822583,19.97504677755673,34.242937332954774,39.95009355511381,40.05187739792467,25.84024881758419,97.1893683578485,63.037600855233954,54.32650026674333,60.48350363030761,59.39697362497293,34.180423084492645,37.21365268271927,2.35414834489211,13.581625066685888,28.53578111079557,28.6781050915026,28.6119568071515,80.7201249796696,82.48573623833863,77.09943492856239,400.00000000000006,400.00000000000006,394.3000673750463,380.051184372766,"{'neutral': (['m1', 'm3', 'm12', 'e1', 'e2'], 3.501350698740111, 128)}"
45,5,122,0,5.0884166666666575,17.234837937606926,144.61395571193435,19.833729323201748,34.000678839774345,39.66745864640327,39.667458646403496,28.47521611445073,99.3304226560403,65.41388550958519,56.77494751398967,60.03091276219129,59.00111910229487,31.10582613863301,39.78335212570028,2.332179759176938,10.646249160398838,28.47521611445081,28.475216114450845,28.41018979361013,80.18760925222057,81.7777318152958,76.55397959132789,399.9999999999999,397.32169062416096,388.6807875895647,374.5329923628744,"{'neutral': (['m1', 'm3', 'm12', 'e1', 'e2'], 3.501350698740111, 128)}"
46,5,123,0,5.130124999999991,14.667365577020105,146.81462039261643,23.01205639699221,31.64157754586417,40.373700386361904,40.373700386361904,28.90853807199888,97.970299864717,66.40932213088814,59.06073490598396,61.38961642693755,59.45761825199861,31.593412015766035,37.49424365085088,2.463672091298122,10.94050129296852,31.641577545864163,28.90853807199882,28.8676471487978,86.38577886083817,86.52056943118271,80.54219738947258,400.0,402.9677360884895,397.2184405687229,385.7201821973233,"{'neutral': (['m1', 'm3', 'm12', 'e1', 'e2'], 3.501350698740111, 128)}"
47,5,124,0,5.171833333333324,14.067424976017906,140.67424976017998,22.68304120230199,33.76181994244313,36.68335629546584,39.48914370042038,28.134849952035925,98.51215927568056,64.77128872938195,57.72341978817349,57.565479486472896,60.57386618553073,30.94125719981048,39.4399496246491,2.4518351597322408,10.830192116608488,28.27517426368604,28.69202978348731,29.62508801897264,84.0392824381824,85.0922177828528,78.77757986570067,400.00000000000017,397.1899514305959,388.7601039761872,374.711419494878,"{'neutral': (['m1', 'm3', 'm12', 'e1', 'e2'], 3.501350698740111, 128)}"
48,5,125,0,5.213541666666657,16.886341073526943,140.71950894605845,19.70073125244821,33.889745521103464,39.40146250489632,39.40146250489643,28.284271247461856,98.66434748857633,64.79212762350215,56.335302594735936,57.63627897044682,60.66180542558834,30.95113563609823,39.45286497504605,2.4506764286646785,10.831384709406848,28.143901789211743,31.08595556941054,31.01164616520112,84.07938018838405,85.10805918313235,73.17414465195031,400.0,394.3763092115534,388.7527657410131,374.5783107590309,"{'neutral': (['m1', 'm3', 'm12', 'e1', 'e2'], 3.501350698740111, 128)}"
49,5,126,0,5.25524999999999,19.85366272453748,141.8118766038391,22.68990025661423,34.03485038492135,36.87108791699832,39.80849077341571,28.50383442932652,104.97910922442878,70.96264038079458,61.005582354529,61.64743213217628,63.14010603368183,34.00311147629486,42.57105967093628,5.493039957540077,11.13534730523088,31.32726747228425,31.32726747228425,31.22673801949464,83.4703245721866,84.03754065475857,76.57841336607316,400.0,399.99999999999983,388.6576918160023,374.4800316674404,"{'neutral': (['m1', 'm3', 'm12', 'e1', 'e2'], 3.501350698740111, 128)}"
50,5,127,0,5.296958333333324,17.254328242438493,139.02205221931075,22.69275271752897,34.03912907629352,36.98466202419605,36.98466202419593,31.20253498660229,104.99230667362596,70.97156144945514,62.411731194333015,62.04207389607086,65.61794245476949,32.62791459150128,41.1375764780247,6.993312560999243,12.666420485348112,31.20253498660229,28.365940896911187,29.79136062932685,82.87867507566091,81.73198304839889,76.6405519399459,400.00000000000017,397.2143383310967,388.7065519195101,374.6022951844466,"{'neutral': (['m1', 'm3', 'm12', 'e1', 'e2'], 3.501350698740111, 128)}"
51,5,128,0,5.338666666666657,19.856158627837903,136.15651630517377,22.692752717529,34.039129076293385,34.15711601265886,36.8757231659846,34.039129076293385,110.62716949795367,76.5880404216603,66.65626834197906,64.52147632117203,65.95462341206348,31.20080645794769,45.382991211560125,8.330167465805971,11.166604416528571,31.20253498660229,28.365940896911138,29.78258798258628,83.48081804442262,84.04810543456705,76.5880404216603,400.0,397.1636932621897,388.7065519195097,371.6912532323628,"{'neutral': (['m1', 'm3', 'm12', 'e1', 'e2'], 3.501350698740111, 128)}"
52,5,129,0,5.38037499999999,16.899732305666095,132.38123639438405,22.53297640755468,33.79946461133219,33.79946461133219,39.53317437595399,36.72425849812645,109.88436459256592,76.10093716796219,67.61302462295885,67.25153819147056,67.95944911980177,30.97486859815433,42.25625764751862,5.550322916810046,11.168424539524151,30.98284256038784,28.30670128369708,28.17334875411996,85.11499268085106,86.77180549183925,76.0487953754973,399.99999999999983,397.2335912051663,385.9697266739535,369.1494560532398,"{'neutral': (['m1', 'm3', 'm12', 'e1', 'e2'], 3.501350698740111, 128)}"
53,5,130,0,5.422083333333323,13.883533620176678,124.95180258158976,22.21365379228255,36.09718741245934,33.32048068842383,33.32048068842383,36.203826307746986,108.32715519223788,72.24775329788555,65.27905611561164,65.9693982546612,67.33491017805568,30.52677766522038,41.66328601823818,5.386185920056278,10.90892303245198,30.543773964388645,27.90555721288503,29.18402427388241,79.0176233004313,84.98035869925423,72.19437482491857,399.99999999999983,397.2243713993591,386.12201202820086,366.6935342134142,"{'neutral': (['m1', 'm3', 'm12', 'e1', 'e2'], 3.501350698740111, 128)}"
54,5,131,0,5.463791666666657,14.276612204964955,134.20015472667092,22.842579527944068,34.26386929191598,31.53806718124404,37.11919173290902,37.11919173290891,108.50225275773391,74.23838346581793,67.08521248114971,67.0701877975032,69.89482832302531,31.371539453670948,39.99570786670108,2.584245587179794,11.02811779645333,31.40854685092295,31.53806718124397,32.889032501956535,82.39536511682525,89.18652212499535,80.15272046990117,400.00000000000006,400.0,388.7015785888351,374.43936860903295,"{'neutral': (['m1', 'm3', 'm12', 'e1', 'e2'], 3.501350698740111, 128)}"
55,5,132,0,5.50549999999999,8.5635676784372,134.19292412079872,19.9816579163534,37.1087932732277,34.25427071374858,37.10879327322758,37.21842067092218,102.80245064306392,65.71604440747087,61.43221040623314,63.5147875130134,64.9642001514319,27.0582454130024,38.56200466950315,0.923046996045514,6.537613848024535,31.39974815426959,28.68759668044815,30.04861254068703,80.78568337290562,88.0022326147157,80.13026672580712,400.00000000000017,397.2814524423146,388.5926888877317,374.33447428090267,"{'neutral': (['m1', 'm3', 'm12', 'e1', 'e2'], 3.501350698740111, 128)}"
56,5,133,0,5.547208333333323,5.750041272417024,129.4078693603052,23.000165089667984,34.50024763450215,31.75564085878644,34.50024763450203,37.48568289315559,100.66678561210736,66.18794557221982,63.29712668991385,64.77233603372008,64.63546093996501,27.276164516665176,35.96012879824639,1.7717720469426013,6.851358859636321,34.50024763450215,31.75564085878645,33.11616851688797,82.97672350316452,89.79006150342434,80.70567515978249,400.0,402.8723650000785,391.3831389848502,380.0359705964041,"{'neutral': (['m1', 'm3', 'm12', 'e1', 'e2'], 3.501350698740111, 128)}"
57,5,134,0,5.588916666666656,5.709045118958077,128.45351517655754,22.836180475832425,34.25427071374869,31.39974815426954,34.254270713748575,40.06513336290365,102.80245064306396,68.56798485857448,65.7065463908931,66.82379924772351,70.22085185295111,28.49749685496556,34.28003528964223,3.2687195068079973,8.145377246756993,31.39974815426965,28.687596680448213,30.03749403600221,82.99376964860738,88.59513194433845,77.28326596493815,400.0000000000001,400.0,388.5926888877317,377.186030074494,"{'neutral': (['m1', 'm3', 'm12', 'e1', 'e2'], 3.501350698740111, 128)}"
58,5,135,0,5.6306249999999896,11.689406247821449,127.57938527785348,22.68077960495171,34.13909409172118,31.18607195680872,36.85626685804653,39.792488967614375,107.77100058114615,73.71253371609318,68.05709279605878,69.46673859339376,72.19508529791267,31.087994949825543,36.93878288284975,0.3334645972189491,10.943701781459822,31.186071956808604,31.3146748609937,32.656794304924006,81.85040113557181,85.68524400359036,85.2417204734488,400.00000000000017,394.3334180227142,383.0005748947877,368.8351733634106,{}
59,5,136,0,5.672333333333323,19.85017004060173,138.95119028421175,22.68590861783041,39.70034008120334,36.86460150397454,39.70034008120322,31.19312434951693,113.42954308915242,73.72920300794908,63.78983335018995,63.70733033233535,66.64743787769396,33.991243356032896,48.22676407310075,5.340195337488012,13.725502061240036,31.19312434951705,31.3217563358572,31.24614294378506,84.67809741606635,85.66813363031974,82.43175492632805,400.00000000000006,397.25651107097,388.7548342515407,371.7522408840356,{}
60,5,137,0,5.714041666666656,22.689900256614283,144.64811413591585,22.689900256614173,42.54356298115167,39.80849077341573,42.54356298115179,25.52613778869108,113.4495012830712,70.90593830191953,59.553486317272586,64.05488362016536,66.35059624464077,39.67981722500053,48.23247210049704,5.379169776956928,16.677677007218108,31.19861285284453,31.327267472284262,31.239697282076463,84.04108764500984,89.12766659727873,79.46528185700586,400.0,400.0000000000002,388.6576918160022,371.7202816944841,{}
61,5,138,0,5.755749999999989,28.36237532076786,153.1568267321463,19.853662724537383,39.70732544907489,45.46834654964679,45.37980051322857,22.689900256614283,110.61326375099442,70.90593830191953,56.71760601645008,58.293095072462506,60.72384961602472,36.82142993766354,51.09085938783403,8.192543091265065,16.61015604767465,31.19861285284453,31.327267472284262,31.239697282076463,75.57846071557128,80.57501172178229,79.61698154683118,400.0,400.0,394.328826907846,377.315542487071,{}
62,5,139,0,5.7974583333333225,33.799464611332155,154.91421280193882,19.71635435661043,33.91662081915829,47.882574866053766,50.699196916998176,22.53297640755473,109.8843645925659,76.04879537549732,59.14568041724522,58.30224825443258,59.95899000281486,36.59893135062555,50.74148136636086,13.856385531924047,19.42906232193696,33.799464611332155,31.11060740165067,32.41942375811573,77.30959449496311,77.74637186499103,81.73058749919224,400.0,400.0495804258382,388.78567855269495,374.7060198991618,{}
63,5,140,0,5.839166666666656,45.06595281510948,157.75598125955602,14.083110254721795,28.16622050944348,45.06595281510948,47.96534515231916,22.53297640755473,109.84825998682948,81.68203947738601,59.135679414705805,57.39815691923832,57.93738803852125,35.13989460661094,52.15563214843098,20.700483523587536,20.58065438596907,28.16622050944348,28.306701283697084,29.627754276162136,81.36398444292843,82.2027884062577,87.3607011550789,399.99999999999983,400.0495804258382,391.60164007081016,374.706019899162,{}
64,5,141,0,5.880874999999989,36.34941862735614,153.78600188496853,16.776654751087467,27.96109125181241,41.941636877718665,44.73774600289988,22.368873001449995,103.456037631706,75.4949463798936,57.29997554849672,53.820942264026485,57.90954975645934,33.50427994253687,47.55422205289733,16.21318716544772,19.008307923911048,27.961091251812352,30.88403473107852,29.423106281908417,81.38559059482878,81.1031049862608,86.85958969235666,400.00000000000006,400.0,388.82006224135125,377.56792403319207,{}
65,5,142,0,5.922583333333322,34.02886292674573,153.15613775831892,14.178692886144017,31.32175633585712,42.53607865843205,48.20755581288975,22.685908617830567,102.12596644371908,70.89346443072031,53.86058111680484,54.69171711640274,55.86421254440722,32.59982541280294,46.84787112019672,15.07176084985258,17.832319705660325,28.35738577228809,31.704521125510784,31.33085884198806,82.49024796009962,82.37151424587114,88.09065678969723,400.0,402.9244255158628,391.4962797856358,380.1582294770316,{}
66,5,143,0,5.964291666666656,28.162729709114053,149.26246745830468,16.897637825468482,30.97900268002545,39.42782159275963,42.33786625411189,22.530183767291152,98.56955398189912,67.59055130187369,53.4822432500157,53.97372585298149,58.70983093610744,33.82293913138005,42.17814338180017,7.7743611741877885,16.308286371140866,28.162729709114053,28.303193072784246,29.64533700616994,82.47971682500344,83.95416463390103,81.72045816140378,400.0,397.25424529980114,391.50246277285424,377.3910864370587,{}
67,5,144,0,6.005999999999989,14.175487253094891,150.28690870519088,19.84568215433278,34.02116940742756,36.85626685804656,39.79248896761441,25.672899319506328,93.60116203558444,59.604510559954605,52.50593500515413,54.73273247717054,55.87237293422948,29.72062349856219,38.2979174648475,3.763812562128805,9.432024309079452,31.18607195680861,28.492376752477625,29.83308801735097,85.26310051101132,87.91726315442486,87.93373645782904,400.0,400.00000000000017,394.3334180227141,377.2384545649236,{}
68,5,145,0,6.047708333333322,14.18118766038398,144.675917714094,19.85366272453741,34.034850384921285,36.871087916998285,39.70732544907506,28.503834429326503,96.47377644978788,62.46165238852621,55.362103319629,57.67507529120383,58.64503127928344,29.732881634598584,38.31326152915017,0.9326499885381736,9.438417884006869,31.198612852844622,28.503834429326457,28.46447765018649,85.28151495193515,88.0421589180084,82.29977454950873,400.0,400.0703809373652,394.4002198704843,380.1510641490498,{}
69,5,146,0,6.089416666666655,11.33725776661701,147.3843509660207,22.674515533233908,39.68040218315942,36.84608774150512,42.514716624813616,28.34314441654253,102.03531989955286,62.35491771639344,56.65863023722852,60.022736407564025,64.62625011433863,33.995178142336954,39.661041166060045,0.6197037682195514,10.712022279225948,34.12966541521646,31.30602624429857,31.295040295094168,82.9517758316922,84.63382891686012,85.07665870911352,400.00000000000017,399.9999999999999,394.3365701043524,377.2301096224478,{}
70,5,147,0,6.131124999999988,5.710644881986077,139.91079960865704,19.987257086950937,34.26386929191592,37.11919173290884,40.076360234950606,40.07636023495061,99.97706743418136,65.73445906281015,62.8631071504135,64.22319815152798,67.15262492315924,25.66237636168796,34.28625007205153,0.3885974288897387,8.175492061644263,31.408546850922985,28.695635390174967,30.03409743669897,82.3826549246503,86.34335948833541,82.85356586047563,400.00000000000006,400.00000000000006,394.2930463112769,377.07557234743615,{}
71,5,148,0,6.172833333333322,5.709045118958137,134.1625602955156,19.98165791635326,34.254270713748724,37.218420670922136,39.96331583270675,39.96331583270686,99.90828958176698,65.65401886801826,62.78528667009312,64.1818646134318,67.03574128025411,25.654529611329053,34.27688039194163,3.2485617377659537,8.166944929523652,31.3997481542696,28.687596680448216,30.02642578178057,82.45881943712425,86.34494936641443,80.13026672580708,400.0,400.0,391.44445774032926,374.3344742809028,{}
72,5,149,0,6.214541666666655,11.257560715684656,132.30627534266668,19.900743804199863,33.77268214705397,36.58707232597528,39.40146250489636,33.77268214705397,98.54385363435362,64.79212762350225,59.162991238700215,62.55083786072203,64.12043652505304,29.58149561935022,35.20718588160628,2.0125052181276715,9.238875306384898,19.70073125244813,16.886341073527046,16.923692529273694,79.7698014258599,78.30898682737347,78.85316596166717,400.0000000000001,397.1881365821295,385.9410512623721,374.6945951090839,{}
73,5,150,0,6.256249999999988,14.452224645652784,136.07661410529505,19.84020109157968,28.34314441654254,39.68040218315935,39.781498913080846,28.343144416542422,90.7423374893112,62.4193007151822,55.28461383464628,59.90214031985022,61.89664359295102,32.57409337202819,29.842126703831468,2.120207260901225,14.874971889722133,11.33725776661704,11.337257766616922,12.746384362967548,72.00324421210871,75.89168756806993,62.61205248859719,399.9999999999999,397.168266509899,385.8417115599022,374.5158042910938,{}
74,5,151,0,6.297958333333321,11.340389802475936,138.94870163453783,19.845682154332856,31.314674860993662,39.792488967614375,42.5264617592845,28.49237675247756,90.90013930700194,59.60451055995465,53.92627291198176,63.21430351377205,64.39373597114229,35.38297372110594,27.04504148775265,7.617167953849275,17.806153905019414,11.689406247821315,14.175487253094891,14.169570494794812,74.12405374444631,76.48291865918668,68.10137773165876,400.0,397.2779883913571,388.7806668450589,374.6192681932925,{}
75,5,152,0,6.339666666666655,8.445470359156916,129.52780808962473,19.706097504699624,33.781881436628,36.59703822301356,39.41219500939913,33.89897669739187,95.75672115233871,61.99739712268256,57.77295938269356,65.42674393153573,67.0004192593351,32.35571848217717,29.54217774459653,7.701471679987662,14.902228482948203,16.890940718313942,16.890940718313946,18.28801479427404,71.33994819356968,72.53212647220545,70.60377301098009,400.0,394.3732232786471,385.9332516303217,368.95741693509456,{}
76,5,153,0,6.381374999999988,8.505292351856923,127.57938527785365,22.680779604951724,36.96514823811825,34.0211694074277,36.85626685804664,34.13909409172125,102.22089229143936,65.26884481809276,61.01491266906055,65.95028580406756,70.15391591905757,33.95598992886471,34.14281793397561,6.18089316907799,10.727041293437765,22.85728638843421,20.047166326573723,21.29839258261672,80.33604219758922,84.38398230832058,79.58497793522878,400.00000000000006,397.4094754387368,388.9150267355291,371.7871173196333,{}
77,5,154,0,6.423083333333321,17.000339419887215,127.50254564915367,22.66711922651614,34.118532499357066,36.83406874308889,36.83406874308889,34.00067883977443,107.70609131973838,73.66813748617778,65.13296886512967,68.75404625036151,72.93221246409041,36.86071081889736,36.860710818897246,0.6035128975386215,13.555828160098372,22.66711922651625,25.65743682102298,25.57966204182924,80.36006351071944,84.35253344828266,82.21714423294188,399.9999999999999,397.1701201818668,388.6807875895647,371.5631941208501,{}
78,5,155,0,6.464791666666654,25.65743682102296,130.3667296309967,22.66711922651621,36.83406874308889,36.83406874308879,39.66745864640336,31.29581438456236,116.30711805381884,79.53704479821536,66.68707455192396,71.62009102562797,72.99037337943457,41.0627945357395,43.986063557193575,6.531679219811622,17.767994521026367,25.657436821023023,28.475216114450724,28.410520802257963,83.03911064068336,87.24130985902383,82.36348159744703,399.99999999999983,397.1701201818668,385.85111609696895,371.7036084083165,{}
79,5,156,0,6.506499999999988,25.65743682102301,133.19946449101218,19.83372932320156,34.00067883977441,36.83406874308882,39.76852239910778,31.167288936459883,110.53852577214688,76.55397959132779,63.75964850429239,68.3474360836799,70.49748834860736,38.276986800961936,41.10839365688776,6.38959194224924,17.71521936595161,28.333899033145308,25.65743682102296,25.58865019526332,83.73090862710455,86.68344518809658,79.38549741735393,399.99999999999983,397.1701201818668,388.6807875895648,371.7036084083166,{}
80,5,157,0,6.548208333333321,16.874649821691364,129.40288170650982,19.6870914586399,33.86628196864924,33.74929964338261,33.86628196864935,33.86628196864935,104.21225355391287,70.36726727490135,61.93748168111608,64.74726881852382,67.55705595593133,32.31255208018786,38.0542910131511,3.481692757222504,11.911054169445492,28.2646886429946,25.311974732536985,26.754060134446604,81.1173330103768,79.89568642889543,81.60928343862368,399.9999999999999,397.3612786398665,385.96086588418206,369.1162237458423,{}
81,5,158,0,6.589916666666654,14.442076628299729,135.98106425915302,19.826269761981315,33.98789102053929,33.987891020539514,36.820215272251126,36.92899014814432,104.94898425217256,71.03433085092347,63.83114145472689,65.84013303127051,67.39253561314513,29.723943552952164,38.30781665272957,0.8675190898711662,9.360074390714544,31.15556676882784,28.323242517116164,28.354176568945206,80.35966306174504,81.6381122468182,82.18622196861256,400.0,397.34390140526375,385.8619519678446,369.0834759014613,{}
82,5,159,0,6.631624999999987,22.65859401369304,150.13990300317548,22.83492814405588,31.28404387788957,36.820215272251,42.5791699156341,28.323242517116263,104.94898425217276,73.69487819005124,62.37347153259054,65.1735424458468,67.95847784065302,38.26259064168608,38.36853927083644,3.5568468357580514,14.878214636383404,28.323242517116206,28.464506448386093,28.40936813071397,80.97502370768223,83.926449805439,85.01691985021132,399.99999999999983,397.17225602075945,388.5346028714537,374.3921286987573,{}
83,5,160,0,6.6733333333333205,28.311179655705693,155.73722341572287,19.81782575899408,33.973415586846805,39.635651517988045,42.466769483558544,25.63686354974154,107.61972779672398,73.6634915611462,59.51337248803907,65.4871676132534,67.59820799584816,40.98562444930985,41.075455954952304,3.660633854924754,20.548956915681288,28.311179655705747,28.452383422705044,28.341840030152923,80.2644502914157,81.65683862887164,84.98071116679228,399.99999999999983,397.0031004631792,388.5238815470828,377.05985048611626,{}
84,5,161,0,6.715041666666654,42.21585268381748,160.4202401985065,19.700731252448094,31.08595556941059,45.11810683480006,47.84463304165975,22.5151214313694,115.42431406435874,84.43170536763498,63.29085790105478,62.06587355458282,67.23802968413133,42.148535476759776,50.76879569267396,19.00994226562136,21.732129702226075,28.284271247461923,28.284271247461984,28.22000975946679,82.48227932911652,83.84337304741882,84.61912336820765,399.99999999999983,397.1881365821293,388.7527657410132,374.694595109084,{}
85,5,162,0,6.756749999999987,45.63983243081035,162.5919030347619,17.11493716155384,25.830391268815035,45.63983243081035,48.576146258775424,22.819916215405232,111.2836559197153,85.57468580776943,62.73305138109174,60.556904861891326,64.83415836514746,39.88351292948596,48.58809900628808,22.24922217044707,25.025684970806424,31.37738479618221,31.37738479618204,31.366525690545814,82.91868633505544,85.69514913541485,85.7646409489559,399.99999999999983,400.1728674467085,391.4567731020703,379.9062022903142,{}
86,5,163,0,6.79845833333332,28.350974506189697,155.9561312675321,17.010584703713818,34.13909409172124,42.52646175928466,48.196656660522486,22.68077960495176,102.10287698294556,68.04233881485527,53.8397282712383,56.98825039236328,59.10225810226166,35.37589497521219,44.056820252028274,9.2431613698742,17.654213322022656,31.18607195680855,28.49237675247756,28.42665686501465,83.03102622281199,84.60528728337442,85.24172047344884,400.00000000000017,400.00000000000017,394.333418022714,380.167434438532,{}
87,5,164,0,6.840166666666653,33.77268214705396,155.02155710841265,16.886341073527095,28.14390178921172,42.21585268381751,45.11810683480008,22.515121431369234,101.318046441162,73.1741446519503,56.23691043639121,52.88662641039343,51.03200489600181,29.464551478641283,49.26712313230655,20.19144390668293,11.636254340295864,30.95829196813284,28.284271247461906,28.23810821912405,80.82560212719642,82.85970314298083,84.61912336820765,400.0000000000002,400.1286921691943,391.56451866484,377.3907290544345,{}
88,5,165,0,6.881874999999987,33.98789102053942,150.22002747903977,14.16162125855817,28.32324251711612,42.57916991563395,45.40561189298397,22.83492814405588,99.17180233079468,70.86473013733952,53.88790224876459,49.46793346448305,52.488989569564296,28.19404330579516,48.15087205906593,18.56535709896002,15.737767641001938,31.155566768827768,28.884153256599216,28.60329967471006,83.0567198150664,84.58957094227503,85.15833983126824,400.0,402.82780833591175,394.3445777826457,380.04894725067,{}
89,5,166,0,6.92358333333332,33.63019630981344,145.33483815182495,19.74833125937128,28.0676523209604,41.98552816906028,44.772563695900544,19.549850530867577,100.58087035080054,72.61373054322233,55.84173127070949,51.47242120080978,54.470232569523205,33.455574874842,47.56027736463852,18.36159463336969,15.40875043518713,30.72119369136319,28.06765232096046,28.04452535431426,82.19998773012236,80.65611487523495,83.97105633812068,400.0,400.00000000000006,388.696125539048,374.7502784115074,{}
90,5,167,0,6.965291666666653,30.732432193461435,142.59625202582924,19.75555564213852,30.73243219346155,36.42744470424389,42.00088741750516,22.35085977706301,103.4104744075373,72.69400244861482,57.34216841837542,55.2454671398375,56.51393410550111,33.554682026992054,47.50781864929036,15.73645194461335,15.870760211565994,30.732432193461435,28.077920098074483,29.435895173778817,83.64420402992704,87.38991236382736,78.27788363295997,400.00000000000006,397.2095073399442,385.91657528956654,374.7520076344765,{}
91,5,168,0,7.006999999999986,11.181977992543644,137.00775289317653,19.56846148695136,36.34142847576688,36.34142847576688,39.23663504117434,27.95494498135917,95.04681293662104,58.70538446085416,53.07722149035533,50.56751892621821,52.89795702148842,23.797358242087284,43.24755311415106,3.510595848644357,3.510595848644357,27.95494498135905,28.094372005793723,28.03995067193836,82.50647179601242,85.62866129544523,75.68514184115841,400.0,400.1074389265714,391.72848557148274,377.65051062619193,{}
92,5,169,0,7.04870833333332,5.554350315156234,138.8865268538604,19.44022610304654,33.44161732184892,36.10327704851503,38.97951084359786,36.10327704851525,94.46478734025872,61.09785346671802,58.30734062775366,54.04601983321197,54.23904133261624,18.047510194304664,40.31922166403479,6.5850026912168005,0.9725314008449004,30.54892673335901,30.674902223413905,31.989601574355675,82.89531009033561,83.93465662558981,72.2599415750057,399.99999999999983,400.0674804492251,391.73923575029227,375.0112073524113,{}
93,5,170,0,7.090416666666653,8.44986615283301,143.67533588618173,22.5329764075547,36.61608666227639,39.43270871322084,42.34311407770691,30.982842560387827,98.58177178305192,61.96568512077554,57.72034188329678,54.365552941454894,55.36899427673802,23.895382842449408,43.67965155750767,6.552322152034776,3.661812036965785,31.110607401650707,28.30670128369704,29.63896123171889,84.72339751785421,84.58860689072674,78.91569822047285,400.00000000000006,400.00000000000017,391.5509899199068,374.65308560024135,{}
94,5,171,0,7.132124999999986,22.69275271752916,150.3662446939951,19.85615862783776,39.71231725567562,45.385505435057965,48.22209952474902,22.69275271752904,104.95398131857156,65.24166406289595,53.88864084880072,55.522079948654095,55.04689766506044,32.59453476525698,49.65654863554403,9.592742350048296,12.38443826616151,31.33120577985812,31.331205779858006,32.68363144343061,84.03301696427758,89.24517263744627,79.47527183527859,399.99999999999983,400.00000000000006,391.5424710849566,377.3629767122238,{}
95,5,172,0,7.173833333333319,42.249330764165165,154.9398163411274,14.083110254721834,31.110607401650693,42.249330764165165,47.965345152319244,25.34959845849901,112.7000843139141,81.682039477386,60.54958274888327,57.87639510109637,57.545070434891954,32.364395803345474,54.9848343778566,23.59935236102467,17.921652399246682,33.799464611332084,31.11060740165069,31.024036926426845,83.52393630774935,85.72272727437957,78.91569822047286,400.00000000000017,400.0495804258383,391.5509899199069,371.8901195347042,{}
96,5,173,0,7.2155416666666525,39.43270871322073,157.75598125955617,19.71635435661048,33.79946461133216,45.06595281510951,47.96534515231917,19.716354356610363,112.66488203777372,78.86541742644157,59.12815509996256,54.21578557798,55.59364532195059,35.19533041664454,57.72034188329667,20.518128796086216,14.886875929423354,31.110607401650707,28.30670128369704,31.04677444838456,84.64851383611648,84.58860689072662,78.91569822047296,400.00000000000006,400.1189827005643,391.6725392781493,371.8901195347043,{}
97,5,174,0,7.257249999999986,28.56487106290384,154.25030373968147,19.99540974403289,39.99081948806568,42.84730659435592,48.64422258230627,19.99540974403267,108.54651003903508,68.55569055096939,54.26172224101504,52.67185083514698,55.8515936468832,34.27056141537798,54.26172224101526,10.952447462646546,13.867211706737862,34.39665965349659,31.55093132991797,32.90150548254724,85.11700434008395,89.38610348547024,80.03263141929403,399.99999999999983,402.8558361540033,394.28835598435774,380.0845650742479,{}
98,5,175,0,7.298958333333319,23.19533998902393,152.5096148368775,20.13919487471526,34.524334070940625,40.27838974943062,43.15541758867563,23.01622271396037,100.73706638686564,66.23415485630674,54.67918940189497,53.462129338315776,52.93104858329946,30.18308957676436,47.53172757396624,9.78073723821842,9.73648050863369,31.77781114095968,31.77781114095977,31.709946747436447,82.31751702753922,87.6283245777031,83.63198768224626,400.0,402.87636277572017,397.1236468594912,385.79001657076327,{}
99,5,176,0,7.340666666666652,14.357739993484849,152.07843159303633,16.894706861047272,30.973629245253004,42.23676715261789,45.05255162945897,25.34206029157073,87.33472285213408,56.38604020702252,49.29494530387433,49.07269577590375,49.45792829105267,23.92886584483233,38.06393582376097,3.8078752458958434,6.563769392731047,30.97362924525323,31.10135609330276,32.43361444850632,84.0695881136707,85.13638584792955,78.89223119367053,399.99999999999983,400.0,391.556068282083,374.7638833791635,{}
100,5,177,0,7.3823749999999855,14.081364854557124,152.07874042921614,19.713910796379857,28.30319307278416,39.4278215927596,42.33786625411197,22.530183767291167,84.53511397912834,56.32545941822815,49.273742982585645,46.256983208141605,49.47486030088192,25.340782105329826,36.662942246452985,5.21415269656984,8.029795152717725,30.979002680025555,31.486889030766104,31.091247650689752,81.2216014334262,82.32402228927236,78.90591774796513,400.0,397.1843597809308,388.80889790980655,372.01462908228063,{}
101,5,178,0,7.424083333333319,19.91652552262313,152.1236683492575,16.899732305666014,30.982842560387788,42.24933076416521,45.15388646519307,25.349598458499194,92.99119398025748,62.02966622725762,52.12564082492054,51.89469972651068,52.29698422051479,26.751918851263213,40.89147384421733,9.438786183389311,9.379188480573816,28.306701283697087,28.306701283697056,29.62750801210637,81.2316689373921,82.33422643947694,78.91569822047283,399.99999999999983,400.00000000000017,391.60164007081016,374.7060198991619,{}
102,5,179,0,7.465791666666652,22.21740126062467,147.1902833516387,19.44022610304671,38.8804522060932,41.65762736367127,44.52150465739344,22.21740126062467,102.75548083038925,63.87502862429605,52.75330409449032,53.86389997016374,57.13398782631339,33.28702638476898,47.23117460155822,5.090231096836874,16.134490082700722,19.44022610304671,22.21740126062478,22.242767398905016,82.98619182115715,81.07349892416403,77.81048102188468,399.99999999999983,397.291383596922,386.1172449838849,372.23472277675074,{}
103,5,180,0,7.507499999999985,27.58358313709202,143.43463231287888,19.30850819596436,35.85865807821969,41.467218047739294,44.13373301934723,22.06686650967373,104.8176159209498,68.95895784273011,55.15847632661132,56.64351222771245,59.18928805817143,35.85300961229734,46.88470487761947,7.882113628921047,18.962766121752225,8.722694874182261,11.033433254836922,11.031695265322298,79.1311987301001,78.31524493828624,71.71731615643927,400.0,397.2131746916909,386.2095670277959,366.9031324510682,{}
104,5,181,0,7.549208333333318,24.99457641820275,141.66315762741866,19.63759386466296,36.10327704851508,38.88045220609317,44.52150465739325,24.99457641820275,105.569191442061,69.48490024295872,56.97168445541331,59.88487243362363,59.563859984234,34.73354702395113,45.84057777282999,6.628907079894589,14.911028274145336,11.450586515535838,11.108700630312446,9.718651905269212,79.62713807108184,76.06389988285775,75.03514079939002,400.0,397.2234315437165,388.8937781602232,372.3072356987915,{}
105,5,182,0,7.590916666666652,14.081364854557096,140.8418084595697,22.53018376729124,33.912417338926055,36.71970705134571,42.244094563671176,30.9790026800255,101.42493431278112,67.59055130187383,60.54621325416906,58.36450712873125,57.0957134954981,26.75297794951655,43.68054178801924,6.854580238077347,6.823634051900967,16.8976378254684,16.8976378254684,16.8966176523262,80.08872982457945,83.39997174545636,78.90591774796508,400.00000000000006,400.0000000000002,388.7374941264495,374.65958044530464,{}
106,5,183,0,7.632624999999985,14.178692886144034,141.81528341204125,22.685908617830528,34.028862926745845,36.86460150397444,42.53607865843222,34.02886292674562,104.92232735746602,70.89346443072017,63.79563909765216,61.22224012922027,60.698314590737255,26.935936507897736,43.94810693393822,6.764803276296902,6.811032000280761,22.685908617830528,19.850170040601693,21.288327394542648,81.23927761420839,80.60748505309641,79.4513022141939,400.00000000000017,400.00000000000017,391.4962797856358,374.4893157020789,{}
107,5,184,0,7.674333333333318,25.86197521124553,142.82742641287751,20.1948097930505,34.27172867865232,39.98368345842786,42.83966084831546,28.55977389887701,108.5271408157325,74.25541213708017,61.41844358781634,61.69040717565906,61.10115273533325,32.839603232009495,47.11769159375285,9.67737100073714,12.532988673085695,22.847819119101587,22.84781911910164,24.29541384728384,78.91476773903196,81.27178550033557,79.96736691685548,400.0,402.9459219137841,394.2904089507355,380.0167421399856,{}
108,5,185,0,7.716041666666651,30.97900268002552,146.4732715319968,22.530183767291245,36.61154862184833,39.528274804210525,45.0603675345826,22.530183767291245,112.65091883645631,76.039370214608,60.541994517467856,60.76908376922131,65.9467187091999,40.83064746526907,49.2783676304972,9.537748573644537,17.98546873887267,28.162729709114053,28.162729709114053,28.18177614260219,77.89161335143103,80.071670168264,81.67191615643092,400.00000000000006,394.36872859808375,383.1787513485767,369.1037052560272,{}
109,5,186,0,7.757749999999985,39.70732544907492,147.5116206617855,19.85366272453746,36.87108791699815,45.3798005132286,45.3798005132286,19.85366272453746,116.285738815148,79.41465089814984,59.55356506165072,64.01635101489217,63.508877026898176,43.9114256670116,52.50863205185146,12.44803841138264,23.702020380426347,31.198612852844583,28.36237532076786,28.38122906384183,84.07649924618511,83.50932243607417,82.25088843022674,399.9999999999998,397.2352921447049,391.493254508672,377.3901539596405,{}
110,5,187,0,7.799458333333318,42.53607865843202,153.12988317035567,19.8501700406017,36.86460150397456,45.37181723566087,48.20755581288994,17.01443146337285,116.26528166638111,79.40068016240657,58.1293862905369,61.54258422087571,63.16291554604732,45.33927096915807,53.90602269761234,13.967856145693643,25.25016315059338,28.357385772288016,28.49881999516393,28.3858043261572,80.59648035946947,84.04718595937243,82.23641873963543,400.0,400.00000000000006,388.6617403790053,371.7522408840355,{}
111,5,188,0,7.841166666666651,53.87903296734736,158.80136032481343,19.850170040601665,31.19312434951705,45.46034769493741,51.12200422004893,19.850170040601665,124.77249739806771,93.57937304855068,66.63146310725006,63.90859683370161,66.42893586376306,45.32109648699827,59.58801563931047,25.15838424650633,25.113378192398272,31.19312434951693,31.321756335857227,31.234201551119043,78.35554020244683,80.60584290785874,79.40068016240677,400.0,397.1654099600997,388.7548342515406,377.4196534539352,{}
112,5,189,0,7.882874999999984,56.71477154457616,164.49728168502074,19.85017004060173,28.357385772288023,48.207555812889865,51.122004220048815,19.85017004060173,124.77249739806764,96.41511162577962,68.04924378940302,63.87078145145711,63.63201217500307,43.90370070798758,61.005550134008445,29.413390243182675,23.697850688064023,28.357385772288136,28.3573857722882,28.376236198585502,81.2263232337105,83.40509288135365,85.07215731686429,400.0,400.0000000000001,388.5893186147668,374.4141526198799,{}
113,5,190,0,7.924583333333317,48.54048149688093,165.608701577594,19.987257086950976,31.40854685092309,45.68515905588801,51.39580393787407,19.987257086950976,119.92354252170595,88.51499567078288,64.23674807048587,61.45691218907302,64.07146053159101,42.77942029395865,57.1444100379083,22.47910528969521,22.4340268699965,31.40854685092298,28.695635390174907,30.02222751925865,81.83235789283424,84.07125273786403,82.80435078879694,400.00000000000006,397.2594012067351,391.4396098415007,380.02614727340136,{}
114,5,191,0,7.966291666666651,31.186071956808654,164.46009081510712,19.845682154332728,34.021169407427664,45.450069653501046,48.19665666052249,19.845682154332845,104.8986056729019,70.87743626547423,55.28127219131454,55.79397357006656,54.70825300329773,35.406554038517925,49.64155702504297,12.515945422474374,15.320723553293988,28.350974506189704,28.350974506189647,28.34937035452026,77.80997395176843,81.12745346134005,85.10016202458172,400.0,397.166696120387,391.4077671545211,380.0722802436202,{}
115,5,192,0,8.007999999999985,37.10879327322786,159.85326333082725,17.127135356874305,28.54522559479048,45.6723609516649,45.672360951665006,19.98165791635332,102.76281214124596,74.2175865464555,55.65085867577136,55.39551060627389,58.76009693377,37.10057245051428,45.66224301601756,13.78879575286328,19.49657612986539,28.54522559479053,28.687596680448195,30.025928877966862,79.57847483515167,80.59986711314156,85.63567678437165,400.0,400.0,391.3299531164872,379.9196878817564,{}
116,5,193,0,8.049708333333319,42.50084854971781,150.16966487567004,19.83372932320176,28.3338990331454,42.50084854971804,45.33423845303242,14.16694951657264,104.8354264226376,76.50152738949221,55.23873334913765,57.86914922290612,61.04663164591989,45.29411265258284,45.35406515113027,13.71413404272448,24.98520376964109,28.333899033145222,28.47521611445081,28.38750806220781,79.00240496087497,79.99162118690754,85.04890715422782,400.0,397.1701201818669,388.5465086225455,377.22412853770186,{}
117,5,194,0,8.091416666666653,42.561035458558536,147.245353981412,22.64894372456449,31.27072001197176,45.38627365502642,45.29788744912909,11.324471862282303,107.58248269168168,76.49259521373816,55.11658230469345,59.41274176190359,62.03235118703151,49.40583375791448,46.786224332786446,11.997811167086295,25.9341333087674,28.31117965570576,28.45238342270514,29.81115525795689,77.8547921148047,78.27392962282534,79.47326846658213,400.0,394.3494285483539,388.5238815470828,374.2326751913087,{}
118,5,195,0,8.133124999999987,45.709131794800925,148.26537975604958,19.95880112100675,31.49316626453725,42.76885954501428,48.4713741510162,14.538616626275717,111.23558339150544,79.83520448402665,57.04160208083738,60.33100618701383,65.06047199865918,48.3557562152198,48.53765874643671,16.371227809541324,27.7704530991482,31.36383033301046,28.654781258972147,28.58901448962513,80.7647238604045,82.31089537574991,82.73560679094275,400.0,400.19303304274337,394.3094019629745,380.2876118816159,{}
119,5,196,0,8.174833333333321,48.44799399177861,148.22126415331948,19.94917399661462,31.477975541042017,42.74822999274589,48.4479939917785,14.531603926970927,114.13768513296873,82.69569928480593,58.48359066656724,63.16318218878576,65.01693341980967,49.75739584735777,50.02867651531244,15.033470349156232,29.094851638141563,28.49881999516388,29.063207853941744,30.04433397598297,80.70599871652308,85.13691629311637,76.99957149330321,400.00000000000017,400.21314118308834,394.314929921999,380.1041802154497,{}
120,5,197,0,8.216541666666656,48.903026801069856,152.22637345878937,20.101792293140512,34.57966187158388,45.94695381289214,48.81863842619793,14.642775880130136,117.77408448285937,83.27885378586727,58.88565889800941,63.59471768269407,65.47834119656784,50.09541583326472,53.23478835638775,15.113836289892788,29.285860822848576,34.460215359669164,28.860073186809466,30.272520758687165,84.13518361969943,85.83941441796651,89.0685284632107,400.0,402.86572667900754,394.0909796444076,382.6243613746102,{}
121,5,198,0,8.25824999999999,31.186071956808554,150.28690870519088,22.680779604951784,36.9651482381182,45.36155920990356,48.27996987164344,19.845682154332778,110.60514200505506,73.71253371609312,58.099170406245776,60.4009442241213,61.54058468118024,41.13202333832294,49.634340958749135,12.116177490836662,20.61849511126286,31.186071956808668,31.314674860993787,29.83308801735097,76.83575923644435,79.41494553399866,85.10016202458178,400.0000000000002,400.0,391.5001662667313,380.07228024362047,{}
122,5,199,0,8.299958333333324,31.41575128876472,154.32851974448937,22.84781911910154,31.415751288764607,42.839660848315546,45.78480054393902,17.372232254587843,102.85484473985665,71.45653146543113,55.61999057282833,58.29688851483616,55.79845043562875,39.97500926731618,45.68572487693268,10.945538251765129,19.511611666190102,31.41575128876466,28.702217545104897,30.040743571420705,79.59309880903129,83.4597291697093,80.01835026084052,400.0,400.0917513042025,394.2904089507356,382.8714383915992,{}
123,5,200,0,8.341666666666658,36.71970705134574,149.28903370706126,22.53018376729128,30.979002680025555,42.24409456367114,47.87664050549388,16.897637825468436,107.05542270460444,76.09150554484322,57.69087519276286,60.33519548888057,60.6778398089408,43.61266291202424,46.42830536817178,12.163873362140862,20.670391047116595,30.9790026800255,28.16272970911401,28.186219719743576,81.22160143342614,79.4487895165924,73.22309724369659,400.00000000000017,397.1843597809308,388.7374941264498,377.4226096863881,{}
124,5,201,0,8.383374999999992,36.605198198935554,149.23657727258305,19.71049133788837,30.973629245253047,42.23676715261783,45.14045913086287,16.894706861047066,104.18402564312404,73.210396397871,54.904755567946495,55.54197675267562,57.11280106851973,39.43361796661418,47.850865243967405,16.641846289555815,22.30274146552199,28.15784476841185,28.29828376813696,29.59373734660977,80.02312552413252,80.55661302762667,81.65774982839459,400.0,397.11546652855793,388.6190641321367,377.35714419042887,{}
125,5,202,0,8.425083333333326,31.198612852844576,147.51162066178546,22.68990025661424,31.198612852844576,42.54356298115181,45.37980051322859,14.181187660383898,99.26831362268727,68.06970076984271,52.47039434342037,56.72475064153559,53.88851310945881,41.12544421511336,43.96168174719003,9.926831362268672,21.271781490575904,28.3623753207678,28.503834429326503,29.78049408680613,79.41465089814994,82.25088843022661,79.41465089814994,400.0,399.94972031907736,391.44188216017454,377.2302541626344,{}
126,5,203,0,8.46679166666666,28.166220509443328,149.3075382417219,19.71635435661043,30.98284256038785,42.249330764165165,45.15388646519301,16.89973230566602,95.76514973210764,64.78230717171978,50.69629750049592,55.51590985942596,54.295945481071726,38.00716183675024,40.85374538624342,6.815233101299668,18.081076990298698,28.16622050944344,28.30670128369721,28.194732299741133,77.24934934047644,80.56283283724088,78.8654174264415,400.0,400.0,391.5205966841661,377.42735482654217,{}
127,5,204,0,8.508499999999994,22.53297640755481,149.30753824172191,19.71635435661036,33.79946461133204,39.43270871322072,45.153886465193104,22.708332954254605,98.62200103254654,64.84350917608441,53.55378117127805,57.97934405604963,57.53231750203236,35.18098980116508,40.85822703718532,3.889131019950924,17.970467471497273,30.98284256038771,31.110607401650743,31.02364284880377,80.6882930001309,80.06245582450657,81.73058749919215,400.0,402.8655784943425,391.550989919907,374.6213214306525,{}
128,5,205,0,8.550208333333329,22.53018376729129,152.10481479553354,19.713910796379857,33.91241733892609,42.24409456367116,45.14829028654727,22.530183767291188,98.60977824555351,64.77427833096235,53.49047157519112,54.29483956880301,55.501391559220906,32.37581174287891,43.71144217137248,6.516870318614906,14.888255733612825,30.97900268002551,28.30319307278421,28.22735829434339,81.80720409104708,81.77741268387626,76.2476976466894,400.0,400.0693936733062,394.3687285980839,377.4751425852,{}
129,5,206,0,8.591916666666663,30.973629245253136,155.09835748820862,16.894706861047194,36.71333786791065,42.236767152617816,45.14045913086279,22.701580215951715,107.14790681384638,70.45090510229393,54.96949483931349,56.77873054918098,53.24960410277254,32.40988907429653,52.11045569285568,14.808929328916976,14.808929328917088,30.973629245253136,28.29828376813699,28.233011571268666,79.56169874751492,81.12523578073382,78.8922311936705,400.0,399.99999999999983,388.67006601748704,374.5945942080729,"{'neutral': (['m1', 'm3', 'm12', 'e1', 'e2'], 5.2791793408646095, 126)}"
130,5,207,0,8.633624999999997,33.66961248349411,153.88764499050333,19.57276387626868,30.75720037699364,44.825039248838536,47.61602261400383,19.57276387626868,103.49381599251652,72.75258871289091,55.93818445104432,53.45905460027291,52.828003365531,33.580940705904936,50.34887351475948,18.88646195405932,16.001656309525174,30.75720037699376,28.10054893115264,28.03670485781595,79.06170469551313,80.5041075177802,78.49052348569467,400.0,397.2049918135751,388.7496793795318,372.0506626493439,"{'neutral': (['m1', 'm3', 'm12', 'e1', 'e2'], 5.2791793408646095, 126)}"
131,5,208,0,8.675333333333331,25.16498212663124,153.88764499050333,17.008067817277478,36.34941862735614,41.94163687771864,44.82503924883851,22.36887300144992,100.69875586708412,64.37126616090889,51.79088697993791,53.48553712796104,52.80173092788152,30.78614435575525,47.55426160987986,7.7151177791583905,13.304490197199812,28.100548931152645,28.100548931152574,29.433397307771656,79.11340427876843,80.6296702006839,75.54670843354414,400.0,400.00000000000006,391.61502259528606,374.8455174920394,"{'neutral': (['m1', 'm3', 'm12', 'e1', 'e2'], 5.2791793408646095, 126)}"
132,5,209,0,8.717041666666665,22.217401260624733,149.9931708897759,16.663050945468523,33.326101890937046,38.880452206093146,41.65762736367131,22.217401260624733,94.42395535765505,61.09785346671799,49.97747210421096,51.1331073450591,51.598363091374495,29.153525394123108,43.03615653418149,9.297610801368933,12.074137029380836,30.548926733359,27.91026491172662,29.213558393647645,80.14405436531109,83.85109208595384,80.5859476747751,400.00000000000006,397.2234315437166,388.89377816022335,372.1829191827658,"{'neutral': (['m1', 'm3', 'm12', 'e1', 'e2'], 5.2791793408646095, 126)}"
133,5,210,0,8.75875,22.71058520647485,149.32234682477278,16.90140845070416,30.985915492957687,39.436619718309935,42.34731374189549,25.508127149682903,95.77464788732392,64.78873239436624,53.53308110448791,55.55574159961964,54.32716263220618,29.560808569592496,40.82777666099355,6.847080342779577,12.45059904781101,30.9859154929578,31.11369300616132,31.01412759202072,82.88413228940027,80.57680105791661,81.69014084507052,400.0,400.00000000000006,388.74260039674266,374.6584770291996,"{'neutral': (['m1', 'm3', 'm12', 'e1', 'e2'], 5.2791793408646095, 126)}"
134,5,211,0,8.800458333333333,17.25606391573961,150.354609929078,17.25606391573957,31.20567375886529,36.87943262411351,42.64764930034867,28.36879432624108,93.61702127659564,62.41134751773036,53.90742805694197,53.51176351089316,54.30309260299066,25.53902664212694,39.70829661194773,5.576630488649244,11.250310771612137,31.33435749556665,31.33435749556673,29.80175222314256,82.8655936064336,84.55276695373578,82.31840072934418,400.0,402.8468683208668,394.3364456049904,380.1524291952732,"{'neutral': (['m1', 'm3', 'm12', 'e1', 'e2'], 5.2791793408646095, 126)}"
135,5,212,0,8.842166666666667,19.71782092897076,146.47524118663992,16.900989367689142,33.80197873537851,36.61881029666001,42.346263708700256,28.168315612815384,98.5891046448538,64.78712590947528,54.92744661066001,55.93344380133146,56.70843422970063,28.15301767671599,42.266785670284094,5.544162295255774,11.162842900931878,31.11292151896177,31.11292151896184,29.591221067824165,82.29802202796498,81.13553638541123,78.87128371588315,400.0,397.1732501406967,388.722755456852,374.63859765044464,"{'neutral': (['m1', 'm3', 'm12', 'e1', 'e2'], 5.2791793408646095, 126)}"
136,5,213,0,8.883875000000002,17.021276595744585,150.35460992907795,17.021276595744702,34.0425531914894,39.71631205673756,42.553191489361694,31.205673758865267,99.29078014184395,65.24822695035456,56.73444555696688,55.9282192253678,57.5108116540622,25.515570383383192,42.56576428497704,5.479353031422875,11.122937352615736,34.16055199657384,31.33435749556669,31.23380529083545,80.62263315990037,81.16011738096626,82.26950354609926,400.0,397.1631205673758,391.4893617021277,377.30496453900713,"{'neutral': (['m1', 'm3', 'm12', 'e1', 'e2'], 5.2791793408646095, 126)}"
137,5,214,0,8.925583333333336,19.8581560283689,150.38137056111853,17.02127659574461,31.205673758865267,39.71631205673757,42.647649300348746,28.36879432624109,96.45390070921988,65.24822695035459,55.316147924480674,55.96623085949068,54.69561421378944,26.96366719075252,41.11774563937775,9.73646941298955,9.73646941298955,31.33435749556676,28.510285449988427,29.815167337500725,83.47655870013796,84.03799396219188,79.43262411347514,400.00000000000017,397.1631205673759,388.65248226950376,377.30496453900713,"{'neutral': (['m1', 'm3', 'm12', 'e1', 'e2'], 5.2791793408646095, 126)}"
138,5,215,0,8.96729166666667,22.85481085256031,148.58373772696297,17.141108139420062,34.28221627884035,39.995918991980375,42.94789315227394,25.71166220913032,99.98979747995104,65.7075812011107,54.27720021426615,56.35615607808074,55.05493909857091,29.995294855252386,44.278768595848646,9.789040380335337,12.645735128454817,31.425364922270283,31.4253649222704,31.438598746317894,81.1839743078084,84.62397321915614,79.99183798396086,400.00000000000017,400.0510067458493,391.48246278685247,380.00418816622624,"{'neutral': (['m1', 'm3', 'm12', 'e1', 'e2'], 5.2791793408646095, 126)}"
139,5,216,0,9.009000000000004,17.01956453814671,147.53016508585273,17.254328242438515,34.039129076293534,36.8757231659846,42.54891134536683,28.50741778900237,96.44419904949814,62.40506997320461,53.895287704131306,56.73188179382237,53.895287704131306,26.947643852065653,41.1306143005213,7.091485224227768,9.928079313918944,31.33120577985812,31.33120577985812,31.20253498660236,82.2612286010426,85.09782269073366,76.64055193994584,400.0,400.0,391.4910922781842,377.309667067996,"{'neutral': (['m1', 'm3', 'm12', 'e1', 'e2'], 5.2791793408646095, 126)}"
140,5,217,0,9.050708333333338,8.57120992090313,151.4247086026221,19.99948981544071,34.28483968361252,40.1008880244054,40.1008880244054,28.570699736343727,91.42623915630008,57.14139947268757,52.855794512236,54.28432949905323,54.28432949905323,25.713629762709505,37.141909657246856,2.8570699736343386,8.57120992090313,31.55736931015741,31.55736931015741,31.42776970997818,79.99795926176262,82.85502923539696,77.19377985950362,400.00000000000017,402.887390059462,394.3688106821264,382.9433108270443,"{'neutral': (['m1', 'm3', 'm12', 'e1', 'e2'], 5.2791793408646095, 126)}"
141,5,218,0,9.092416666666672,5.673616177636063,144.67721252971967,22.694464710544253,34.04169706581638,39.71531324345244,39.71531324345244,28.509568453610875,90.82217315228148,56.80703770877468,53.89935368754266,53.89935368754266,53.89935368754266,25.53127279936234,36.878505154634354,0.0,5.673616177636063,31.204888976998404,31.33356947747225,31.204888976998404,79.43062648690494,82.26743457572292,76.64633387796118,400.0,400.0301769121903,388.65306134436247,377.30614035414106,"{'neutral': (['m1', 'm3', 'm12', 'e1', 'e2'], 5.2791793408646095, 126)}"
142,5,219,0,9.134125000000006,17.1389226377425,145.68084242081017,19.99540974403271,34.27784527548477,39.99081948806553,42.84730659435596,25.70838395661358,97.12056161387356,62.84271633838879,54.27027983833887,53.522549336295015,55.04791956046449,28.578259788113883,42.83000315706897,8.374581622890673,8.374581622890446,31.550931329917937,28.707340131553966,31.449544915962065,84.05986303976391,84.64309283135793,74.2686647635503,400.0,400.0,388.5767510780884,377.09957565435207,"{'neutral': (['m1', 'm3', 'm12', 'e1', 'e2'], 5.2791793408646095, 126)}"
143,5,220,0,9.17583333333334,17.25215938714217,147.48435166799268,19.85366272453746,31.19861285284447,36.87108791699826,42.63799941917532,25.526137788691024,93.63880199368988,62.46165238852621,53.90418551883499,55.55347597981552,57.88188604237632,31.19472455610276,36.91126977379997,5.403105401583275,11.030096386105242,31.32726747228424,31.327267472284248,31.23950167269038,84.03172212959743,83.50932243607417,76.57841336607318,400.0,400.07038093736537,388.6576918160022,374.4800316674404,"{'neutral': (['m1', 'm3', 'm12', 'e1', 'e2'], 5.2791793408646095, 126)}"
144,5,221,0,9.217541666666676,8.508712596230387,144.6481141359159,19.85366272453738,31.32726747228422,39.707325449074986,42.543562981151815,25.526137788691045,85.13438346439843,53.88851310945881,49.63346937193012,53.49965540721735,54.26095072690714,28.35451881864105,31.220571786884648,2.933226084687135,11.232837805226382,34.15282249042302,31.32726747228422,32.63120723219225,82.86177097250652,84.5485625631917,79.41465089814997,399.9999999999999,399.9999999999999,388.6576918160023,374.4263250640308,"{'neutral': (['m1', 'm3', 'm12', 'e1', 'e2'], 5.2791793408646095, 126)}"
145,5,222,0,9.259250000000009,11.2664882037774,146.46434664910595,19.716354356610363,30.982842560387763,39.43270871322096,42.249330764165165,25.505597459871577,87.36070115507898,56.4028126153673,50.73785456559824,52.33423704822019,54.68363013585247,28.117415991086887,33.84029658916563,0.271083817803742,8.087333897811277,30.982842560387763,31.11060740165069,31.024036926426845,80.66249600870998,82.90646761164084,73.23217332455292,400.0,399.99999999999983,388.73466149648937,377.4378644639916,"{'neutral': (['m1', 'm3', 'm12', 'e1', 'e2'], 5.2791793408646095, 126)}"
146,5,223,0,9.300958333333345,14.284256782850171,151.4131218982115,19.997959495990216,34.40104580768909,40.09781958768575,42.8527703485504,25.71166220913026,94.319370460973,59.993878487970655,52.84891257103629,56.3346761645048,57.90363982016356,31.40887620101921,37.18147833033004,2.6642779058357746,14.06146672524426,31.55495460575716,28.71100080155929,30.02493184437673,84.05796792911781,87.49192611886173,79.99183798396075,400.0,400.0510067458495,391.4824627868523,377.2017591538425,"{'neutral': (['m1', 'm3', 'm12', 'e1', 'e2'], 5.2791793408646095, 126)}"
147,5,224,0,9.342666666666675,20.05926236528084,150.35082870735573,19.85765662172621,31.20488897699844,36.87850515463443,42.6465767677672,25.531272799362323,96.49318376771718,65.30822666690023,55.333211294683,55.570820360897415,57.93206045640318,31.22331635723856,39.732691041042585,5.383330406420441,11.056246862289754,31.20488897699838,28.50956845361094,29.82736309322888,81.24745007869313,83.48988564109169,76.64633387796117,399.99999999999983,397.2443050866182,391.5720099418784,377.3914458357544,"{'neutral': (['m1', 'm3', 'm12', 'e1', 'e2'], 5.2791793408646095, 126)}"
148,5,225,0,9.384375000000013,19.578504812218146,148.23725072108073,19.578504812218373,33.563151106659774,36.36008036554803,39.1570096244364,25.172363329994774,97.89252406109108,64.32937295443129,54.53237600003274,54.658062836103,57.15608870300173,30.73828684646037,41.97154782024995,5.286702542210151,10.879766747341478,16.781575553329883,16.781575553329944,16.779192615394777,77.39166931033162,76.6061265848918,75.56886722609138,399.99999999999983,397.2525799561494,386.0674311685515,372.0336481413173,"{'neutral': (['m1', 'm3', 'm12', 'e1', 'e2'], 5.2791793408646095, 126)}"
149,5,226,0,9.426083333333343,19.774859492397955,142.65337477890233,16.779524692902925,30.76246193698868,39.15222428344008,41.948811732257255,30.88931798832008,97.88056070860029,67.11809877161159,57.30976869946596,57.87395389567985,56.74558350325208,26.58211699842548,40.56409794807405,6.778398951613212,9.57479514154295,11.530625442749637,13.98293724408564,12.60013604877679,71.18545388750903,77.18707611969734,67.35074452559027,400.0,397.2040320952428,386.0911549107069,369.3189945005474,"{'neutral': (['m1', 'm3', 'm12', 'e1', 'e2'], 5.2791793408646095, 126)}"
150,5,227,0,9.46779166666668,14.184040444090073,147.54129509794583,19.85765662172626,34.041697065816564,39.81649891889472,42.64657676776714,31.20488897699841,99.2882831086313,65.24658604281474,58.15368800937756,59.16681846250253,57.14055755625259,26.94927005312616,41.13309639687691,4.14604154663482,9.819572084135077,17.02084853290817,17.020848532908225,17.020591612500766,77.20054052812844,81.70507438894583,73.97490446288332,400.0000000000001,400.0,391.5206272589717,377.3381321697252,"{'neutral': (['m1', 'm3', 'm12', 'e1', 'e2'], 5.2791793408646095, 126)}"
151,5,228,0,9.509500000000012,11.346376358764552,147.5301650858528,19.85615862783783,34.039129076293435,39.81349529801566,39.81349529801566,34.039129076293435,99.28079313918926,65.24166406289582,59.56487951342649,58.75447298943425,57.538863203445885,24.109594088767835,41.12813109260401,4.036447879114917,6.87287071308765,22.692752717529,22.69275271752905,22.70696741262759,77.83019578494293,81.10299136260357,73.80597605944243,400.0,397.16369326218944,388.65479821431046,377.3629767122238,"{'neutral': (['m1', 'm3', 'm12', 'e1', 'e2'], 5.2791793408646095, 126)}"
152,5,229,0,9.551208333333348,8.507215731686415,144.6226674386694,22.68590861783048,34.02886292674566,36.86460150397454,39.80148760839964,31.193124349517007,96.41511162577956,62.3862486990339,58.13264083319064,56.71477154457625,56.71477154457625,25.521647195059245,39.70034008120331,5.671477154457648,5.671477154457648,25.521647195059245,25.67870496788068,25.521647195059245,79.40068016240667,82.23641873963544,79.40068016240662,400.0000000000002,400.00000000000006,391.5886997929057,380.25340519003487,"{'neutral': (['m1', 'm3', 'm12', 'e1', 'e2'], 5.2791793408646095, 126)}"
153,5,230,0,9.592916666666682,22.06686650967368,143.46115253725495,19.308508195964464,33.21503251672735,35.858658078219605,41.37537470563802,30.46706338967808,104.81761592094983,71.77034190575866,60.6838829016026,57.92552458789339,60.6838829016026,28.96276229394676,45.51291217620178,9.654254097982175,9.654254097982289,27.583583137091978,24.9779968796201,24.82522482338288,79.99239109756695,82.75074941127616,77.23403278385774,400.00000000000006,397.28978652030105,389.0849933571489,369.7846554768408,"{'neutral': (['m1', 'm3', 'm12', 'e1', 'e2'], 5.2791793408646095, 126)}"
154,5,231,0,9.634625000000016,39.43270871322083,149.3872185132879,22.532976407554795,36.61608666227652,42.34311407770684,45.06595281510948,25.34959845849912,123.93137024155126,87.31528357927475,67.59797294302984,68.00248208963035,72.84161002859275,45.072806205475445,53.50757100310966,14.195274681631304,19.828439093550514,30.98284256038788,31.11060740165076,30.967422445310888,81.0666293428045,85.05179352783239,78.86541742644155,400.00000000000017,397.2335912051665,385.96972667395335,369.07423018406206,"{'neutral': (['m1', 'm3', 'm12', 'e1', 'e2'], 5.2791793408646095, 126)}"
155,5,232,0,9.67633333333335,54.67060009618607,158.25700027843342,20.346290557658502,40.28360007087407,48.915800086061154,54.67060009618607,25.89660004556184,141.02195841604987,100.75009750604396,73.39980608050644,75.68201657228622,74.0249660502019,48.95831087976319,66.16150811812918,23.27402778745659,29.058640519096343,31.65140005568664,28.77400005062435,28.772422701645382,82.20476999103607,90.30925345359384,89.2457977674366,400.0,397.1750178766984,388.5449021787002,374.1615897088503,"{'neutral': (['m1', 'm3', 'm12', 'e1', 'e2'], 5.2791793408646095, 126)}"
156,5,233,0,9.718041666666684,62.85553941995628,162.95320573033536,19.999489815440768,37.14190965724688,48.57018955178448,51.4272595254188,23.034434532364905,142.8820665249566,105.75019103014958,74.31980768557867,72.77809111369959,75.90686886251285,51.44345443519762,68.53837054103235,28.952530327786462,31.854585051323284,31.42776970997814,28.713197875864665,29.95011163900228,78.08340990516552,84.61303303312366,85.71209920903136,400.0,397.1430034323229,385.7467710810013,368.7391666639013,"{'neutral': (['m1', 'm3', 'm12', 'e1', 'e2'], 5.2791793408646095, 126)}"
157,5,234,0,9.759750000000018,55.550197963030726,155.56535151534416,19.44256928706097,36.1076286759701,44.4401583704246,49.99517816672772,22.393000697348104,133.3494043673618,97.25251705374168,69.45181692948609,69.88957017681389,71.82172244088122,48.62080033250925,62.47795485136771,23.72924499307805,29.299277691834845,30.55260887966692,30.67859955389476,30.537062736003065,71.59529834743591,75.56526745251199,75.04418499164845,400.0,397.271309978356,386.1138379460433,366.7259821693457,"{'neutral': (['m1', 'm3', 'm12', 'e1', 'e2'], 5.2791793408646095, 126)}"
158,5,235,0,9.801458333333352,39.25965223226681,156.66449910931829,16.782806430601525,33.565612861203164,44.84147573631218,50.34841929180469,22.55121853055209,112.025145622908,78.51930446453363,58.781746525705785,59.64351595779567,60.74718558134941,37.78934553523709,51.74396283030558,15.625240492365492,21.249419943899056,30.76847845610288,30.76847845610288,30.751561839836768,71.48150657755593,73.87027096826102,75.57440997151598,400.00000000000017,397.2029344669352,383.2176218824904,369.26411986550886,"{'neutral': (['m1', 'm3', 'm12', 'e1', 'e2'], 5.2791793408646095, 126)}"
159,5,236,0,9.843166666666686,38.61242628643523,157.23192698301963,13.790152245155449,30.33833493934213,41.370456735466455,44.12848718449746,22.23595235774421,104.84144065681244,74.51787925847941,55.19857262989626,53.71368102470024,53.88035253140572,31.690314206815287,51.03936093983157,18.311137804894315,18.265681939428987,30.33833493934201,27.717862972026744,28.909930435861213,69.78990544422254,78.94168635788094,79.98288302190157,400.00000000000017,397.30957902862775,388.9703056022359,372.42603362038034,{}
160,5,237,0,9.88487500000002,38.86546720685439,161.01407842839663,16.656628802937547,33.31325760587521,44.41767680783357,44.41767680783346,19.63002529710716,108.3036724582537,75.00622134336591,55.53636335698741,55.97389515197597,55.09883156199896,36.08882943491278,52.7452122510266,16.777081242317422,19.553145045002907,30.53715280538556,30.663079742954235,30.52161452626615,74.3351432382172,81.07916780235024,77.78049191597842,400.0,394.4511813928202,386.1281362752895,372.2569181896051,{}
161,5,238,0,9.926583333333356,45.10359563589794,163.20638210058894,16.880909971221616,33.76181994244323,45.103595635897946,47.82924491846115,22.507879961628785,118.19985892202314,84.45142825453244,61.88826231184919,61.44443011586054,59.50360458085902,37.966459206017134,57.67561773975308,20.980474484957767,20.96542932577165,28.13484995203595,28.134849952036006,29.541170061824687,79.42339534319967,83.83162698471472,84.45142825453256,400.0000000000001,397.0603901748475,388.5156904115177,374.57408323084667,{}
162,5,239,0,9.968291666666689,53.530202784982656,166.0194560980642,14.067424976018016,31.075957488463093,45.01575992325755,50.72082206477567,22.50787996162872,120.97985479375474,90.07546982220904,63.25885131444011,60.01731464620525,60.7543693874743,37.88310950788673,60.566345218783226,26.27073684952302,23.33755981794184,28.13484995203604,28.275174263686043,28.188583370172523,78.53393477890643,79.28603145367111,84.45142825453235,400.00000000000006,397.1899514305961,388.9127844528248,374.711419494878,{}
163,5,240,0,10.010000000000025,45.10359563589794,163.1821297218086,14.06742497601809,31.0759574884632,47.82924491846119,50.642729913664766,22.68304120230185,112.57456287721266,81.5910648609043,59.09965091550555,56.86933276019352,61.25436506555275,36.48649294079962,53.51251492643576,19.0824509288392,21.819315919425435,28.1348499520359,28.13484995203596,28.16249196114336,76.29956211325089,84.389190676586,73.20469536133346,400.0,397.0603901748476,391.5700023485293,374.57408323084667,{}
164,5,241,0,10.051708333333355,39.50184855932645,166.14439622220073,17.119267125980908,31.08595556941051,47.8446330416598,50.65902322058104,19.700731252448143,106.98385183968384,75.98853483087144,56.30531917678945,56.91139636659955,55.69924198697947,36.611551725186814,50.67852847633162,19.05776052402439,19.057760524024275,30.95829196813289,31.085955569410515,29.615475521824976,73.47750622140501,81.63335976329222,79.00369711865284,400.0000000000002,400.1286921691941,391.5645186648399,380.3177410513687,{}
165,5,242,0,10.093416666666691,31.155566768827807,164.29922137337027,20.02755684904404,28.32324251711625,48.232743995980606,50.98183653080916,16.993945510269683,96.34066738157205,68.0347632079593,52.461093877466965,51.29759737531094,53.62459037962299,35.475527107138646,43.87938082334836,14.769735852209692,14.858665521164085,28.32324251711625,28.464506448386032,29.81367151702915,80.17009656257073,81.54850643136695,87.84772257431653,399.99999999999966,397.0207425848392,391.36326387623234,379.9117206900487,{}
166,5,243,0,10.135125000000023,34.011773299850944,161.58078366888768,17.00588664992553,28.343144416542472,45.34903106646789,48.18334550812217,19.8402010915796,99.20100545789856,70.85786104135607,53.83333726528269,51.745617814551565,53.1622845846905,32.6206164176748,46.71272271011048,14.949562495414511,15.024123904369048,28.34314441654241,28.48450760977185,28.40789681173516,82.46491830388192,85.00000620834129,85.21817806178136,400.0,399.88952634209375,391.299666535095,382.7269151104117,{}
167,5,244,0,10.17683333333336,36.34142847576667,153.7776088838724,16.772966988815536,27.95494498135908,44.727911970174496,47.60555589257785,19.56846148695136,100.63780193289264,72.68285695153355,54.49980825422915,54.29168023580053,54.76740142078006,34.96550709600285,46.085489794901946,14.866287030613648,20.515476102246566,30.75043947949501,28.09437200579364,29.375783172492334,80.69420600217018,84.44051033388484,86.70540633963961,400.0,400.1074389265714,388.7345937151517,377.4849288970327,{}
168,5,245,0,10.218541666666694,36.59703822301357,154.8592134709134,19.70609750469956,28.151567863856563,45.042508582170456,47.85766536855624,16.890940718314006,101.3456443098837,73.19407644602714,54.88871567724118,55.0961224301376,54.72575322853686,38.02210223633983,46.42207572864652,15.103656041281395,20.777712209805827,28.151567863856563,28.29197555713029,29.599906591937383,80.68122687672212,85.61454464204496,78.87464465572944,400.0,397.2963260551425,391.6711763291135,380.2129536696429,{}
169,5,246,0,10.260250000000028,34.129665415216486,150.21866540767493,19.84020109157973,31.30602624429869,42.51471662481357,48.18334550812226,17.005886649925383,102.03531989955276,70.91452467379511,53.82288941845604,52.63710039011528,55.00867844679669,36.81912221960886,48.19971377462696,13.834205330641112,19.50212773025657,31.177458858196708,31.30602624429868,32.63530055357677,84.06423853745832,89.03112842975315,85.02943324962726,400.00000000000017,399.88952634209375,394.224509384905,379.96731030595225,{}
170,5,247,0,10.301958333333362,33.789413722094295,146.420792795742,19.710491337888293,30.973629245253097,39.52141846320685,42.2367671526179,19.710491337888406,104.1840256431241,73.210396397871,56.30874417560312,55.15898447777681,57.45850387342966,36.60068371414207,47.86243254926262,16.583072564804525,16.583072564804638,30.97362924525316,31.10135609330269,31.014030823421194,86.32042039066278,85.64235697912409,81.65774982839449,400.00000000000017,400.08918728201104,391.4851901579205,377.4096679771944,"{'neutral': (['m1', 'm3', 'm12', 'e1', 'e2'], 4.936648310693602, 120)}"
171,5,248,0,10.343666666666696,39.52141846320675,146.42079279574193,16.894706861047197,31.101356093302822,36.60519819893554,42.23676715261783,19.710491337888342,106.99981011996536,76.07830716186098,56.28644378091883,55.10840711365995,57.42002623431904,36.55618186324261,50.72225801292223,16.58142176934257,19.39685531373516,33.789413722094345,28.298283768136915,29.606506429979103,80.69921622505825,82.81820041899573,81.7062834135582,400.0,397.1853399254992,388.6700660174871,371.7795312031117,"{'neutral': (['m1', 'm3', 'm12', 'e1', 'e2'], 4.936648310693602, 120)}"
172,5,249,0,10.38537500000003,36.61154862184834,143.6299215164817,19.713910796379885,33.795275650936794,39.52827480421048,42.2440945636712,19.71391079637988,109.8346458655449,76.03937021460811,57.72624666264608,57.96589895808006,60.25757403316686,39.40033519618339,50.70892788697131,13.787496121682691,19.374390258986296,33.79527565093685,31.10675168666304,31.019993990228272,83.54878149565116,85.6307608122334,81.67191615643084,400.00000000000006,397.2542452998012,388.7374941264496,371.79070051420905,"{'neutral': (['m1', 'm3', 'm12', 'e1', 'e2'], 4.936648310693602, 120)}"
173,5,250,0,10.427083333333364,42.249330764165165,143.64772459816152,19.716354356610584,33.79946461133204,39.43270871322083,42.34311407770684,19.71635435661036,115.48150408871815,81.68203947738611,60.54974674164964,63.61187863666828,65.89171406215678,45.03792531724764,50.715162553267874,13.790769191435174,25.011135697270447,30.982842560387823,30.982842560387823,31.001291521102928,83.50456029044022,85.60558509432173,81.682039477386,400.00000000000006,397.2335912051665,391.6016400708101,374.706019899162,"{'neutral': (['m1', 'm3', 'm12', 'e1', 'e2'], 4.936648310693602, 120)}"
174,5,251,0,10.468791666666698,45.06036753458257,152.1048147955336,19.71391079637985,30.979002680025484,42.33786625411189,45.06036753458245,22.705518581054186,118.3169870872356,87.34987404519873,64.75847097393478,64.35615189517364,67.97702360402457,43.651620045591926,52.10032069957731,18.20121313728976,23.81877953332605,33.91241733892601,31.106751686662964,32.40158654689856,82.29660266659971,89.56814749754301,81.67191615643083,400.00000000000017,394.3687285980837,388.8088979098066,374.65958044530464,"{'neutral': (['m1', 'm3', 'm12', 'e1', 'e2'], 4.936648310693602, 120)}"
175,5,252,0,10.510500000000032,36.597038223013655,152.0184664648256,19.906164537566315,36.59703822301354,42.22735179578486,45.04250858217046,22.696519613712965,115.42142824181204,78.82439001879851,60.52244623923184,66.72143009451202,68.33855631762844,45.03995999198662,47.884904273395136,11.050362524629575,25.095403240216,33.781881436627934,33.89897669739199,33.80991677589947,77.29264410858843,83.34189405432073,76.06134789964779,400.00000000000006,397.2963260551425,386.0461771589046,374.5851470545488,"{'neutral': (['m1', 'm3', 'm12', 'e1', 'e2'], 4.936648310693602, 120)}"
176,5,253,0,10.552208333333366,33.53692604929274,150.91616722181752,19.563206862087466,36.33166988673406,39.12641372417493,44.71590139905702,22.35795069952845,111.7897534976427,75.45808361090864,58.68622802459083,66.22859527199103,67.85125595469856,44.68326731826255,44.74336586206664,5.378819670456664,24.9108464067516,33.53692604929279,33.65317224204351,33.56503671452538,76.68574189388426,85.52022783306995,75.5098203901175,400.00000000000006,397.3355240501398,385.9277136284056,369.2870913277808,"{'neutral': (['m1', 'm3', 'm12', 'e1', 'e2'], 4.936648310693602, 120)}"
177,5,254,0,10.5939166666667,27.938574721328493,145.30745008179412,22.350859777063043,39.11400460986007,39.11400460986008,44.78894250448767,19.55700230493004,108.96044141318164,69.84643680332157,55.848714036389424,61.819773356237306,63.6615926489269,43.193633089845775,46.16430936837719,6.446367524413063,20.230305456798305,33.52628966559439,30.859164410273745,30.805913008370112,82.02037205025061,83.26805608723373,81.21431795275251,400.0,397.2095073399441,385.91657528956654,369.1699703014692,"{'neutral': (['m1', 'm3', 'm12', 'e1', 'e2'], 4.936648310693602, 120)}"
178,5,255,0,10.635625000000037,28.143901789211625,146.34828930390074,16.886341073527067,33.88974552110344,39.40146250489629,42.21585268381744,25.329511610290485,104.1704619770636,70.35975447302917,56.25885225451668,59.53811155705273,64.23136340288409,36.56825396543593,42.28439403407651,7.807043935853926,19.05881438675749,30.958291968132823,31.085955569410547,32.439094889536136,82.64335141345316,86.67473440923129,87.29147713378444,400.00000000000017,397.3177395216753,388.88517992887927,371.88308606734216,"{'neutral': (['m1', 'm3', 'm12', 'e1', 'e2'], 4.936648310693602, 120)}"
179,5,256,0,10.677333333333369,19.694394966425083,143.51531529091076,19.69439496642508,31.075957488463203,36.57530493764678,39.3887899328504,22.507879961628927,92.88762362057184,61.896669894479096,52.022984877295926,53.90765885502435,61.2967774661181,35.10579226768641,35.28528502747008,0.8226751490083188,14.882941332061478,30.948334947239488,31.07595748846308,31.022331982608307,85.31889181716394,89.56688713204363,78.97828740084081,400.0000000000001,400.14839180893074,391.5700023485293,374.7114194948781,"{'neutral': (['m1', 'm3', 'm12', 'e1', 'e2'], 4.936648310693602, 120)}"
180,5,257,0,10.719041666666705,8.502943324962843,147.3843509660206,19.84020109157966,31.306026244298657,39.68040218315944,42.60908903089073,28.3431444165424,87.9094505540295,56.686288833084895,52.408133537961135,57.13963265553434,61.84099483605303,31.161592914463423,28.41913164249422,3.465747761279772,13.53148473751844,31.1774588581966,31.306026244298664,32.71364517277573,80.28480031347249,87.30670664719571,76.73615193379503,400.00000000000017,400.1305204537693,391.6382631921504,380.17867334744494,"{'neutral': (['m1', 'm3', 'm12', 'e1', 'e2'], 4.936648310693602, 120)}"
181,5,258,0,10.760750000000035,17.01443146337287,144.65046612560337,22.685908617830567,34.02886292674573,36.86460150397447,39.80148760839964,22.862455316412028,96.45680464897188,62.4506640478393,53.9347896881975,60.50966911358864,61.45953882741492,38.23225598150714,35.47169712569951,0.9350279995477422,15.108865135548967,34.02886292674573,34.146814278430604,34.12852198349208,76.8207131056991,85.13207310167866,79.60297521679928,400.00000000000006,400.200984838328,391.5886997929057,374.5859317893783,"{'neutral': (['m1', 'm3', 'm12', 'e1', 'e2'], 4.936648310693602, 120)}"
182,5,259,0,10.802458333333371,19.6943949664252,137.86076476497638,22.50787996162868,36.575304937646685,33.7618199424432,36.5753049376468,22.683041202302043,101.32452847288168,64.77128872938205,54.91836476516005,60.079584008957454,63.7447976748424,39.3374666712034,39.41226695009914,0.4114015339258685,16.388741106028988,33.76181994244308,31.075957488463143,31.049595769569464,84.70383582139351,87.23208524806535,78.77757986570079,399.9999999999999,402.95745351770177,391.5700023485292,374.7114194948781,"{'neutral': (['m1', 'm3', 'm12', 'e1', 'e2'], 4.936648310693602, 120)}"
183,5,260,0,10.844166666666704,19.7671311640158,128.59274691425188,22.363955985087262,36.34142847576692,36.3414284757668,36.448788911956825,27.95494498135908,106.26556738549542,69.94324999727768,60.118955419063695,65.40579823229803,68.88000922385197,39.19816314383684,39.12263681793343,0.5286842813234216,16.313686395122886,33.545933977630895,28.094372005793595,30.85250413151698,84.28737970813455,86.62869581113836,81.1175243078155,400.0,397.2062247694567,386.0313727766218,372.0634099317771,"{'neutral': (['m1', 'm3', 'm12', 'e1', 'e2'], 4.936648310693602, 120)}"
184,5,261,0,10.88587500000004,17.000339419887112,127.5340238734696,22.66711922651619,36.94288454512997,31.295814384562167,36.94288454512997,36.834068743088935,113.3710079741366,76.50152738949224,67.97757416128138,71.99388586216844,72.53339041900392,35.4424521365587,41.10724998333217,1.0040779252217362,15.166072542155462,34.00067883977434,34.11853249935701,34.06371826909003,85.36160988153858,90.69671049913472,82.36348159744696,400.00000000000006,400.1504985316939,388.8356672379831,371.8655590114877,"{'neutral': (['m1', 'm3', 'm12', 'e1', 'e2'], 4.936648310693602, 120)}"
185,5,262,0,10.927583333333374,17.005886649925422,122.00727834959952,22.674515533233933,34.01177329985095,34.01177329985096,36.954939050265885,42.60908903089079,116.24145177910336,82.2439717803741,73.74658677660864,74.37600287996531,73.22207335714472,31.20854845809538,42.4331356346205,4.982877484905998,10.752525099007698,34.01177329985096,31.30602624429863,32.67718603259402,89.3770866766294,89.69179472830785,85.21817806178146,399.9999999999999,397.29971724264095,385.8417115599023,368.9946500490543,"{'neutral': (['m1', 'm3', 'm12', 'e1', 'e2'], 4.936648310693602, 120)}"
186,5,263,0,10.969291666666708,22.82862488863637,128.44271750862927,25.84024881758408,39.95009355511392,37.20610657036703,39.95009355511381,37.096515444034296,125.58985972519729,85.65488976389591,74.24621703121602,77.7774395485543,78.99978580455604,41.31077624450279,47.196147106733406,3.7802189768941616,17.85983696269193,28.535781110795625,31.51880042761704,31.46409807115566,89.36709293879295,90.86107169612823,91.3590758323068,400.00000000000006,400.00000000000006,391.3149442809316,377.2015802108916,"{'neutral': (['m1', 'm3', 'm12', 'e1', 'e2'], 4.936648310693602, 120)}"
187,5,264,0,11.011000000000042,33.772682147054034,146.37534824640878,19.700731252448104,33.889745521103386,45.11810683480009,47.844633041659854,25.485386999122696,112.71623882586528,78.85316596166713,61.965654132878285,62.99179477289931,63.620719681299306,37.91755171432271,49.37060530939527,15.011444524177476,20.506262144934908,16.886341073527017,16.886341073527017,16.9147699048616,64.48135376647815,68.08939666203571,67.77949104220689,400.0000000000002,397.1881365821292,388.8851799288793,377.6425047397852,"{'neutral': (['m1', 'm3', 'm12', 'e1', 'e2'], 4.936648310693602, 120)}"
188,5,265,0,11.052708333333376,33.53692604929281,150.91616722181757,16.768463024646408,30.8689546350958,44.71590139905708,47.51064523649814,25.30748181046499,106.34725588040644,75.50982039011762,58.75517279488338,55.59503401906295,61.91531157070381,33.50750321028636,47.586005058121145,13.025122255894644,18.60970612427593,13.973719187205337,13.973719187205337,12.62383479229851,68.67031720790726,68.6201562749576,61.73790927019181,400.0,397.2077302390768,388.72063804206994,380.34194498947824,"{'neutral': (['m1', 'm3', 'm12', 'e1', 'e2'], 4.936648310693602, 120)}"
189,5,266,0,11.09441666666671,33.52628966559429,150.8941703283687,19.557002304930023,30.85916441027375,44.78894250448776,44.7017195541258,22.524799052345028,106.31352738015111,75.48587211824882,58.7263218647505,59.40097637722295,60.84442324111751,37.70220449933083,46.1589203649736,11.93981590677936,20.31808357329726,16.76314483279726,16.763144832797146,16.795759432598288,67.29286520916781,72.65872202929728,67.28499798070695,400.0,397.2095073399438,385.9165752895665,377.5430892913234,"{'neutral': (['m1', 'm3', 'm12', 'e1', 'e2'], 4.936648310693602, 120)}"
190,5,267,0,11.136125000000044,33.76181994244321,151.95423829493475,19.89434318875056,30.948334947239616,42.20227492805402,47.82924491846111,22.68304120230194,107.06040556996516,76.17221606837252,59.25794001013969,59.10088212514074,62.22633403662167,38.06297842951858,46.38704633446798,11.661547961179052,20.31543742462645,19.89434318875061,17.113761108380675,16.922987108647078,69.05835203408003,69.13688097657968,70.5618447014412,400.0,400.00000000000006,391.43858096461327,380.0808929462294,"{'neutral': (['m1', 'm3', 'm12', 'e1', 'e2'], 4.936648310693602, 120)}"
191,5,268,0,11.177833333333378,30.94833494723953,151.92818974099436,19.694394966425293,33.761819942443296,42.202274928054,47.82924491846118,19.894343188750604,104.13695794953422,70.39337209010239,54.9260521600138,56.62719845092636,61.6607272021198,39.3671662207538,44.99104710943288,7.690113369878873,19.031088642629584,22.507879961628653,19.894343188750728,21.13616008024292,71.21511047984802,72.47349266764638,73.20469536133336,399.9999999999998,400.00000000000006,391.4385809646133,380.08089294622926,"{'neutral': (['m1', 'm3', 'm12', 'e1', 'e2'], 4.936648310693602, 120)}"
192,5,269,0,11.219541666666712,13.969287360664426,136.8990161345103,22.35085977706276,39.21365828630054,36.3201471377273,39.11400460986012,25.144717249195924,100.61766509041377,61.46486438692311,54.46011715506597,56.82794833572109,60.54665756174984,33.551864261781816,41.93034382409962,0.4932981626365063,10.678007920454093,25.144717249195867,25.14471724919581,25.17338469946401,72.93223604517613,75.31524563083525,75.64082104377516,400.00000000000017,399.8731382395299,388.5973535808876,377.4293605912446,"{'neutral': (['m1', 'm3', 'm12', 'e1', 'e2'], 4.936648310693602, 120)}"
193,5,270,0,11.261250000000048,2.816272970911479,132.39478659364352,19.713910796379785,36.61154862184832,33.79527565093684,39.42782159275979,33.91241733892613,92.9796690512928,56.39582229315536,54.96480393650131,57.75048609786086,57.75048609786086,23.90295015876188,35.22540023396493,4.55294288738321,6.649692901309777,28.16272970911405,25.502436405729327,25.40062874013796,84.16953627333447,85.06814342216018,84.53511397912851,400.0000000000001,402.81564906580473,391.5531066463955,377.4751425851999,"{'neutral': (['m1', 'm3', 'm12', 'e1', 'e2'], 4.936648310693602, 120)}"
194,5,271,0,11.30295833333338,5.63031357277121,126.6820553873546,19.706097504699688,33.78188143662794,33.78188143662783,36.705153785655874,36.59703822301354,95.7153307371124,61.93344930048445,59.10491582142527,60.54211742194616,63.23687042292295,25.300736509171315,33.80417931225395,3.143878501139511,5.239797501899261,30.966724650242224,28.291975557130183,28.20508141022418,84.07629363047727,85.15419483086805,81.6880695713138,400.00000000000006,400.0,391.5598730487844,374.9340754706509,"{'neutral': (['m1', 'm3', 'm12', 'e1', 'e2'], 4.936648310693602, 120)}"
195,5,272,0,11.344666666666717,11.257560715684615,126.67882519377598,22.69033902674253,42.21585268381752,33.77268214705397,36.69515844720326,39.40146250489634,115.4243140643587,73.22824753893647,67.60076628654133,68.34889340347956,69.57582187525838,29.580946203738904,46.45869396186595,3.7256730423524687,6.448855748007759,30.9582919681329,31.08595556941048,31.032312810599024,88.06952420597213,86.87252081887084,81.66582474140004,400.0,400.1286921691941,386.2282708809944,366.5628415861096,{}
196,5,273,0,11.386375000000047,36.86460150397458,130.47479415710242,22.86245531641207,42.53607865843211,39.70034008120329,42.63049848306631,34.02886292674575,136.1449874460106,93.6223289255198,75.19578286099477,74.81331702615773,75.4282620939349,41.103828249836624,61.0220489817408,15.1411474614888,17.825907635442718,34.02886292674575,31.321756335857096,32.67458122323262,88.11712861440992,90.9968713708298,82.23641873963551,400.0000000000002,400.090455671596,388.8685853858666,369.1800558742642,{}
197,5,274,0,11.428083333333385,33.772682147054155,135.20794399299126,22.51512143136925,42.30956168410384,36.58707232597507,42.30956168410384,36.58707232597519,135.12004197221916,92.87487590439858,75.97152231341522,74.4827603633189,71.71366313613976,36.51933063586273,62.02182284101275,16.525257646069235,13.592396604379474,33.88974552110348,31.08595556941049,32.41779146334727,89.60858177629757,90.76981609737273,81.66582474140012,400.00000000000006,397.3177395216755,386.2282708809943,366.5628415861094,{}
198,5,275,0,11.469791666666715,8.384231512323176,134.1768129539849,16.768463024646465,30.742182211851755,36.33166988673376,36.43900149394218,44.8031520213377,100.64958654976436,69.92446847269319,65.60169331381837,65.56433897301804,65.63904765461893,20.95578518907439,34.92630864845694,1.0384506742535675,3.772788420849565,30.742182211851755,30.86895463509592,30.794918555922948,83.47948082093222,87.31950705522263,78.30271768449772,400.0000000000001,397.2077302390768,389.1122557455543,369.4245437594157,{}
199,5,276,0,11.511500000000051,2.815156786385669,135.12752574651162,19.70609750469968,33.781881436627906,33.78188143662791,36.705153785655945,39.41219500939913,95.7153307371124,61.93344930048448,60.49539463602048,59.66913786173734,63.95674058234124,22.420589226491188,33.85419648143488,0.4466252833963153,5.002203174037845,33.898976697391966,31.09442302561436,31.085119724378217,85.26076660034192,86.82395509222857,78.87464465572938,400.00000000000006,400.1089553922174,386.0461771589048,369.31166251090815,{}
200,5,277,0,11.553208333333384,5.670194901237877,133.2797373776623,22.680779604951848,34.02116940742771,36.85626685804671,36.96514823811822,36.85626685804648,99.22841077166392,65.20724136423621,62.358326424765096,63.76064285632674,63.73080633650625,26.89762261814633,35.46070380661888,1.7454364094969606,6.638625660052639,36.96514823811817,31.314674860993755,32.685907463315914,87.42100307395299,88.61446386677147,82.26669253649501,400.0,400.1105041774082,388.915026735529,374.75870531568233,{}
201,5,278,0,11.59491666666672,11.25756071568468,140.74765003402013,19.700731252448104,36.5870723259753,39.40146250489644,42.21585268381747,30.958291968132784,98.50365626224088,61.916583936265575,56.27520171364085,57.60019984922656,57.763963663737286,26.73072081397948,40.79952124238969,3.803786782496104,9.431306953860258,33.772682147053985,28.284271247461884,29.60403137766525,84.04061208293729,87.95605601169058,78.80292500979276,400.00000000000006,400.00000000000006,391.5645186648399,374.6945951090841,{}
202,5,279,0,11.636625000000054,22.22169464789023,143.35212395357723,19.48971549352416,35.83140597105539,38.685980658023375,44.10019196437588,22.050095982188,99.2254319198458,63.394025948790414,52.384438826209134,53.956046474770346,59.03583991703874,34.448745851161334,42.71644485543993,3.821017647923441,14.844616320295016,33.075143973282,30.44390882336214,31.737536447956582,81.75339123510196,86.62463010789332,77.17533593765792,400.00000000000006,397.3703983246585,386.2308936562069,372.3504916832511,{}
203,5,280,0,11.678333333333388,30.85916441027361,145.28058855090896,19.75555564213861,36.3201471377273,41.907862081992974,47.49557702625876,19.55700230493004,106.16658394104888,69.84643680332158,54.49811471671126,56.739776886448,60.56162714304799,39.10046800983196,47.479139726224616,7.790694753838807,18.96225704236213,33.52628966559435,30.732432193461506,32.15499013966439,84.00720852488337,86.72660197669512,81.02186669185305,400.0,400.0,388.8383193048999,377.6774517840664,{}
204,5,281,0,11.720041666666722,22.690339026742592,146.3753482464087,22.69033902674243,39.50184855932644,42.21585268381758,45.03024286273867,22.51512143136939,106.983851839684,67.54536429410805,56.304234576895055,56.77552296466911,58.55758218094024,35.162532056588134,49.31591145193136,6.413940402364119,11.951578958710456,30.958291968132883,30.958291968132773,32.39371277841502,87.92473984411811,89.6478880119173,81.61731518871385,399.9999999999998,400.00000000000006,391.4532456939864,377.3907290544348,{}
205,5,282,0,11.761750000000056,5.5894876748821245,139.73719187205316,19.563206862087423,33.53692604929284,33.536926049292724,39.12641372417485,39.12641372417485,97.81603431043725,64.2791082611444,61.4413324328757,56.034973089000914,61.26211610103451,19.549514865005904,39.09902973001192,4.958318514271923,2.165530676413937,33.536926049292724,30.86895463509592,32.273874425727854,82.58885959013196,85.50112498255083,75.66481847396815,400.0,397.0995648919717,388.7206380420701,374.7562872524561,{}
206,5,283,0,11.80345833333339,2.8134849952037366,135.07658372580158,19.89434318875058,33.76181994244315,33.76181994244315,36.57530493764677,39.48914370042032,95.65848983692231,61.89666989447916,60.45946922405153,62.5350434720533,64.00803164805461,23.991852866687168,32.338785864027614,4.75373456800412,6.494538776005584,33.76181994244315,31.075957488463025,32.42805787469433,79.67526952006801,83.8710540214048,76.0161785892459,399.9999999999999,397.1899514305963,388.9127844528251,374.7114194948781,{}
207,5,284,0,11.845166666666724,6.283222007842941,129.28788529422664,22.47953844361533,30.909365359971016,30.909365359971016,33.83618603204893,33.83618603204882,92.89823951854775,62.0736544023677,59.1428343505695,58.92635799108871,62.30040331816895,26.79828036331503,32.2773716687949,2.2095518071146216,6.344996743403272,30.90936535997113,31.03682720118385,32.4117363057141,81.55933460991065,84.84380351237832,81.68188610195837,400.00000000000006,394.6043509166327,385.9862598783071,371.7735260588724,{}
208,5,285,0,11.886875000000058,16.841379580687942,132.19261229032523,19.84775617673524,31.003186249364138,33.682759161376,36.597454089783945,31.00318624936425,98.6016071633619,67.59902168606537,59.17142440962027,63.82685594673399,63.08554519241648,32.46941103910501,35.10847732447519,0.3410029469860092,11.712709918215978,33.682759161376005,31.38205798107944,32.46941103910507,85.47312997280397,89.40207697068661,78.79334224385856,400.00000000000006,396.9749707947128,388.5803416267465,374.37098450046585,{}
209,5,286,0,11.928583333333393,11.220681946272196,134.9109117677361,22.61600749063172,30.984120738903,36.57494836607587,39.372444010581205,25.401899134009952,90.15906968713654,59.175136240882686,53.55829454467016,60.10794701817065,61.00108144637534,35.17461089745859,29.577635147376213,2.560318694186549,14.230608556060249,30.8568753522486,31.36275948221163,32.47287925213959,86.6786962572582,85.38365133636137,84.34191863288414,400.0000000000001,397.2065939120152,388.5743380998985,371.8094488668357,{}
210,5,287,0,11.970291666666729,5.610340973136106,131.96232783688922,22.616007490631603,30.984120738903,39.2723868119527,42.17095931644207,28.19161448604812,87.36653830243624,56.383228972096106,53.55829454467016,57.30945914312952,60.807568986931074,30.88012285517459,28.27514743957784,6.854806736470437,9.74260805433198,30.856875352248547,30.984120738902888,32.3761230224174,81.08172050717587,85.38365133636137,81.78407082009043,400.0000000000001,400.0000000000001,388.5743380998986,374.1407638430161,{}
211,5,288,0,12.01200000000006,8.823982644831519,131.17793262321075,19.532718234025005,33.48465982975705,36.38221248325755,36.38221248325744,36.38221248325744,97.822911979412,64.42111684749148,60.13560859572567,60.46332308398564,65.37904040788703,26.54487354906689,34.90159299969912,2.294001417820596,8.684433938892084,30.69427151061057,30.82084636311449,32.19794847155333,82.09247930915154,83.40333726219154,78.32993280760225,399.99999999999983,399.81503339361694,388.6761528361907,371.79241190121945,{}
212,5,289,0,12.053708333333397,11.171343160495782,134.17243562065303,19.549850530867484,33.63019630981342,33.51402948148712,36.41412360062387,36.41412360062399,100.69712645242824,67.08621781032652,61.50560927288223,61.07299644995874,61.93822209580571,25.10646141311201,39.18875468344925,4.773658735707613,4.773658735707613,30.721193691363265,30.847879563640262,32.214737624251484,83.74787544456979,81.77874121609034,81.04037594929345,400.00000000000017,397.2115550321764,388.84659826893983,374.7502784115073,{}
213,5,290,0,12.095416666666727,19.557002304930133,136.9275219164195,19.55700230493002,33.64249899035338,33.642498990353374,39.11400460986004,30.85916441027364,103.52363563899635,69.90229161976731,60.130513004636896,58.89968373195086,61.25627148575222,29.262215452456303,43.43176220142709,6.401813229275604,11.88050450403648,30.73243219346145,30.85916441027363,30.81576215639529,82.58564217461623,82.87083432316541,81.07002233752627,400.0,397.209507339944,386.04802343451695,369.30737913946064,{}
214,5,291,0,12.137125000000063,22.499533095588355,143.5447729422252,19.88696553177721,36.66975256817422,36.56174128033122,42.186624554228366,25.46774220110266,104.40183394266242,67.73256393729869,56.43638816253326,58.96383441849503,59.40985434601771,33.778575844382544,45.137216665292726,4.846749879079539,13.276526509257792,33.74929964338253,31.06443321986584,31.02811962465944,80.74447421251807,82.82590054095715,78.79857200212984,400.0,399.8516632209767,391.42479176625295,377.3810440949033,{}
215,5,292,0,12.178833333333396,25.47719021193941,152.0323571784918,16.88090997122155,31.075957488463,39.38878993285038,42.29595378900074,28.27517426368602,101.63653699727126,70.56184470144129,57.81918545279575,55.11428171359796,57.56513372038489,28.095132760727893,45.25109680823607,10.341399931076351,13.00147101161349,30.94833494723956,28.27517426368601,29.649331594300065,81.98398847093245,84.67394799057661,76.0161785892459,400.0000000000001,402.8100965445096,394.53045750333206,380.4867900436416,{}
216,5,293,0,12.220541666666731,30.86895463509592,151.0196407802351,13.973719187205369,28.08682795917673,39.12641372417502,42.01421240988274,25.307481810465,98.17470094822234,70.09181885597943,54.63602328263903,49.54561783472093,51.21753985867053,25.12361398488565,47.72441705863287,15.942970728376508,10.225594521477548,30.742182211851688,28.08682795917679,30.840990191784613,80.8792279085622,81.83461192224757,75.66481847396821,399.9999999999999,397.33552405013967,391.7529121196922,377.6628667316677,{}
217,5,294,0,12.262250000000066,13.958396188666043,150.85403893121548,16.981121863894998,36.39904400236929,36.39904400236918,39.18308530959448,27.91679237733209,95.0811686981874,58.69169490775222,51.71434780872335,50.28964848210194,50.34932175232689,22.4222312870362,44.740034351178906,7.638178588797473,7.742606811691189,33.50015085279836,31.211922734731186,30.895835658983344,79.6041424801233,82.82649907227233,72.63732648058073,399.99999999999983,399.8343544013836,391.4726713464244,377.2487373593971,{}
218,5,295,0,12.3039583333334,2.815156786385581,149.3095042183456,19.706097504699656,33.89897669739192,39.412195009399305,39.41219500939919,33.89897669739193,90.26079297473169,56.37347071544581,54.95706143782843,48.3373345548564,47.41916214603259,14.02434308316458,42.33959543270044,7.952557799006627,3.4801696140903005,33.78188143662791,31.094423025614383,31.0401511112068,82.33933214614012,84.11644003418633,76.06134789964786,400.0,402.9216200313061,394.3732232786472,383.11998160254615,{}
219,5,296,0,12.345666666666734,6.25335964057781,151.11926405304624,19.576112141720056,30.762461936988657,36.35563683462296,39.25197533500286,36.35563683462296,92.3297486251368,61.5884498835421,58.74475269091499,51.183252439470834,49.60701049915008,14.05234560002907,41.93398369532463,7.86633949461941,3.241705122546364,30.762461936988544,28.10535602420007,29.428139621647915,84.0464098744593,83.98692904652273,75.50786111806308,400.0,400.0684270340665,394.47747000008445,377.6325136661929,{}
220,5,297,0,12.387375000000068,8.388327375543565,153.8114189584227,17.00806781727739,33.55330950217495,39.24526174284736,42.03473718512269,33.55330950217495,92.313956699487,58.784827957947,54.571268992051046,48.71266409208704,49.188489870764215,15.40485958467707,43.35962408196747,6.602082679147202,0.9516515573545804,30.75720037699376,30.884034731078536,30.8097191693542,83.44794593552876,87.37350860961647,78.34097011359148,399.99999999999983,400.0879453772124,394.49919078736224,377.7335421677208,{}
221,5,298,0,12.429083333333402,13.98293724408576,148.24551534011852,14.259853972987315,33.55904938580578,39.152224283440034,39.15222428344015,33.55904938580578,95.12509065554691,61.58844988354213,54.580604367257024,51.57644031216557,51.93337069494862,18.2034495219408,43.367041508152965,9.399166746622996,3.747769019223142,33.55904938580578,30.88931798832009,30.81498971361213,83.46222117412708,84.53301232247662,72.7650343225567,400.0,400.0,394.4080729753832,377.6325136661929,{}
222,5,299,0,12.470791666666736,13.980545625906217,150.98989275978718,13.980545625906217,33.66961248349414,39.14552775253733,42.03473718512262,30.88403473107844,92.44090696350042,58.78482795794709,51.7908869799378,47.98535682297336,52.80173092788152,19.562803463145315,42.0094852483652,7.759713835685261,4.965027626664551,33.66961248349416,30.88403473107849,30.87533646880911,81.81889837473534,80.6296702006839,75.54670843354414,399.99999999999983,399.99999999999983,391.6150225952858,377.6403909043813,{}
223,5,300,0,12.51250000000007,16.772966988815455,148.16120840120325,17.00432918691594,33.545933977631016,36.34142847576685,41.93241747203863,27.954944981359123,95.08791426305524,61.56438014158391,53.16994260219974,48.36874286484715,52.30780766484224,22.393211778086084,44.74926256749302,7.900426193197973,5.105919844522191,33.5459339776309,31.254578642792843,30.85105280147195,81.21905685726006,83.95410562404925,75.53010212523827,400.0,400.0,388.93557325174856,377.65051062619193,{}
224,5,301,0,12.554208333333404,5.63031357277131,146.38815289205422,19.906164537566344,36.70515378565582,36.59703822301361,42.32108632132335,33.78188143662784,95.88078519204215,59.1852821021788,56.36376652317165,51.25184101780292,55.84815444049752,19.784772200893823,42.29492255306468,5.008803088833815,0.5303438564646967,31.094423025614272,31.47440970839097,31.084042698351368,82.40954258510783,84.04476947587409,76.00923323241277,400.0,400.0,391.4687831901707,380.21295366964296,{}
225,5,302,0,12.59591666666674,5.553413448070685,141.63926292469344,19.634281539316607,30.669728205821485,38.87389413649458,38.97293606551455,36.09718741245929,91.79945290040772,61.15062233683285,58.3738984622745,50.22766809730536,52.7501802321774,15.417000636071066,40.28600262457405,6.261765417152901,2.062524627924745,30.543773964388663,30.66972820582149,30.62626497868177,81.84809962326011,82.17454237012612,75.02248442201312,400.00000000000006,397.3117065173108,388.8975779523959,374.9479532116145,{}
226,5,303,0,12.637625000000073,3.95236463826775,145.3535495997761,16.76846302464636,33.653172242043475,36.43900149394208,42.01421240988288,36.33166988673388,89.60630404267559,55.964701731384565,54.50763927450589,50.08167837428709,53.46798402948798,15.476010932979534,37.813746483076784,3.356601219628942,0.6832020181545886,33.53692604929284,31.24618600108424,30.952021865959185,83.05360185913804,85.19232122031764,75.5098203901176,400.0,400.0,394.4154955241901,380.4548746470013,{}
227,5,304,0,12.679333333333409,3.951111128427733,142.51411920609834,16.76314483279717,33.52628966559446,36.42744470424383,39.21365828630061,33.52628966559435,86.6546321367654,53.156763690075564,51.702443570724085,47.64149507195509,50.17958788368571,15.40771636297643,37.74293310620578,3.5085400632747223,0.716637970371039,30.732432193461413,30.85916441027367,30.86768757795897,82.35364676180006,85.68302733248208,72.69400244861482,400.00000000000006,399.99999999999983,394.4190623203084,380.3342117090585,{}
