,video_id,frame_seq,gap,time_seconds,m1,m3,m4,m5,m6,m7,m8,m9,m10,m11,m12,m13,m14,m15,m16,m17,e1,e2,e3,b1,b2,b3,m_0_16,m_1_15,m_2_14,m_3_13
0,1,11,1,0.4587916666666662,8.0,76.02631123499285,7.0710678118654755,12.041594578792296,19.026297590440446,21.0,20.024984394500787,47.095647357266465,35.05709628591621,31.0,26.0,24.0,5.0,22.0,9.0,0.0,11.0,11.045361017187261,11.0,26.0,29.0,30.0,202.02227599945508,201.02238681301145,195.00256408570633,182.0
1,1,12,0,0.5004999999999996,7.0,76.02631123499285,6.082762530298219,13.038404810405298,19.026297590440446,21.02379604162864,21.095023109728988,47.16990566028302,34.132096331752024,30.5,26.0,24.0,4.0,22.0,8.0,0.0,11.045361017187261,11.045361017187261,11.0,26.0,28.0,32.0,201.02238681301145,201.02238681301145,196.0025510038071,183.0027322200409
2,1,13,0,0.542208333333333,6.0,78.0,6.082762530298219,12.0,20.024984394500787,22.0,19.1049731745428,43.104524124504614,31.144823004794873,28.0,19.0,19.0,0.0,24.0,11.0,4.0,11.045361017187261,11.045361017187261,11.0,29.0,30.0,33.0,201.0024875467963,200.0099997500125,195.0,184.0
3,1,14,0,0.5839166666666663,7.0,81.0,5.0,11.0,21.02379604162864,22.0,19.235384061671343,42.1070065428546,31.144823004794873,27.5,15.0,15.0,4.0,27.0,14.0,7.0,10.04987562112089,10.04987562112089,10.0,31.0,31.0,31.0,201.0,200.0024999843752,197.0101520226813,186.02419197512995
4,1,15,0,0.6256249999999997,10.0,89.02246907382428,4.0,11.0,22.02271554554524,24.020824298928627,17.11724276862369,42.04759208325728,31.064449134018133,26.0,9.0,11.0,7.0,32.0,18.0,10.0,10.198039027185569,9.055385138137417,9.5,30.0,30.0,30.0,200.0024999843752,199.01004999748127,197.02284131541703,187.06683297688022
5,1,16,0,0.667333333333333,12.041594578792296,93.04837451562494,4.0,11.0,23.021728866442675,26.019223662515376,15.132745950421556,42.01190307520001,31.016124838541646,25.0,6.0,9.0,7.5,34.5,20.5,9.5,10.04987562112089,9.055385138137417,9.5,30.0,31.0,33.0,200.0024999843752,200.0024999843752,197.0406049523803,188.09572031282372
6,1,17,0,0.7090416666666663,16.0312195418814,94.08506789071261,4.0,11.0,23.08679276123039,26.076809620810597,14.035668847618199,45.0,34.0,26.0,6.0,10.0,6.0,37.0,23.0,8.0,9.219544457292887,9.055385138137417,9.0,31.0,32.0,34.0147027033899,199.00251254695254,199.0226117806718,196.0637651377735,188.2153022471871
7,1,18,0,0.7507499999999997,23.0,97.02061636580135,7.0,12.041594578792296,26.019223662515376,27.018512172212592,11.045361017187261,53.0,41.012193308819754,29.5,14.0,16.0,4.0,38.0,23.0,2.0,9.055385138137417,9.055385138137417,9.0,33.0,33.0,36.013886210738214,197.02284131541703,198.04039991880444,195.0922858546693,186.21761463406193
8,1,19,0,0.792458333333333,23.0,96.04686356149273,6.0,13.038404810405298,25.019992006393608,27.018512172212592,10.04987562112089,52.0,39.01281840626232,27.5,11.0,14.0,2.5,39.5,23.5,2.5,8.06225774829855,8.0,8.0,34.0,34.0,36.0,196.0025510038071,197.0406049523803,195.12560057562922,186.21761463406193
9,1,20,0,0.8341666666666664,22.0,96.02083107326243,7.0,14.035668847618199,26.0,28.0178514522438,10.04987562112089,53.0,39.01281840626232,28.0,13.0,15.0,4.0,39.0,23.0,1.0,9.055385138137417,8.06225774829855,8.0,34.0,34.0,36.0,196.0025510038071,197.02284131541703,194.09276132818556,186.17196351760379
10,1,21,0,0.8758749999999997,22.0,96.02083107326243,8.0,14.0,25.0,28.0,12.041594578792296,56.00892785976178,42.01190307520001,31.0,16.0,18.0,5.0,39.0,23.0,1.0,9.219544457292887,8.06225774829855,8.5,34.0,35.0,36.0,194.0103090044444,196.0025510038071,193.04144632694815,184.06792224611002
11,1,22,0,0.9175833333333332,23.0,95.00526301210897,8.0,14.035668847618199,25.019992006393608,27.0,11.180339887498949,56.00892785976178,42.04759208325728,30.5,17.0,18.0,6.5,38.5,22.5,0.5,9.219544457292887,8.0,8.5,35.0,35.0,39.0,194.0,196.01020381602586,193.04144632694815,184.13310403075272
12,1,23,0,0.9592916666666664,22.0,95.00526301210897,8.0,14.0,26.0,27.018512172212592,12.165525060596439,56.0357029044876,42.04759208325728,31.0,18.0,19.0,6.5,37.5,21.5,0.5,9.055385138137417,8.06225774829855,8.0,32.0,33.0,35.0,196.0,196.01020381602586,194.09276132818556,185.13238506539042
13,1,24,0,1.0009999999999997,22.0,94.0,8.0,15.0,25.0,27.0,11.045361017187261,56.00892785976178,41.012193308819754,30.0,18.0,18.0,7.0,38.0,21.0,0.0,9.055385138137417,9.055385138137417,9.0,32.0,33.0,38.0,196.0,196.0025510038071,193.02331465395574,184.06792224611002
14,1,25,0,1.042708333333333,22.0,95.0,8.0,14.0,25.019992006393608,27.018512172212592,12.165525060596439,56.0357029044876,42.04759208325728,31.0,19.0,19.0,7.0,37.0,21.0,1.0,10.04987562112089,9.055385138137417,9.0,32.0,33.0,35.0,194.0025773024678,196.01020381602586,192.06509313251067,182.0686683644388
15,1,26,0,1.084416666666666,22.0,95.0,8.0,14.0,25.0,27.018512172212592,12.165525060596439,56.0357029044876,42.04759208325728,31.0,19.0,19.0,7.0,37.0,21.0,0.0,10.198039027185569,9.055385138137417,9.0,31.0,33.0,35.0,193.01036241611484,196.0025510038071,193.04144632694815,184.09780009549272
16,1,27,0,1.1261249999999994,22.0,94.0,8.0,14.0,25.0,27.018512172212592,12.041594578792296,56.00892785976178,42.01190307520001,31.0,19.0,19.0,7.0,37.0,21.0,0.0,9.055385138137417,9.055385138137417,9.0,32.0,33.0,34.0,193.0,195.0230755577401,193.06475597581243,183.13383084509536
17,1,28,0,1.1678333333333326,22.0,95.0,8.0,14.0,25.0,27.0,12.041594578792296,56.00892785976178,42.01190307520001,31.0,18.0,18.0,6.0,38.0,22.0,1.0,10.04987562112089,9.055385138137417,9.0,33.0,33.0,34.0,193.0,196.01020381602586,193.06475597581243,184.09780009549272
18,1,29,0,1.2095416666666658,22.0,95.0,8.0,14.0,25.0,27.0,12.165525060596439,56.0357029044876,42.04759208325728,31.0,18.0,18.0,6.0,38.0,22.0,1.0,9.055385138137417,9.055385138137417,9.0,32.0,34.0,34.0,193.00259065618783,196.01020381602586,193.02331465395574,183.09833423600554
19,1,30,0,1.251249999999999,22.02271554554524,95.00526301210897,9.0,14.0,26.0,27.0,11.180339887498949,56.00892785976178,42.01190307520001,31.0,18.0,19.0,7.5,37.5,21.5,0.5,10.04987562112089,9.055385138137417,9.0,31.0,33.0,33.0,193.00259065618783,195.00256408570633,192.04166214652486,182.0988742414406
20,1,31,0,1.2929583333333323,21.0,95.0,9.0,15.0,25.0,27.0,12.165525060596439,57.0350769263968,42.04759208325728,31.5,20.0,20.0,8.0,37.0,20.0,1.0,9.219544457292887,9.055385138137417,9.0,32.0,34.0,33.0,192.0,195.0102561405425,192.06509313251067,182.0988742414406
21,1,32,0,1.3346666666666656,22.02271554554524,96.0,9.0,15.0,25.0,27.0,12.165525060596439,58.008620049092706,43.01162633521314,32.0,19.0,19.0,7.0,39.0,22.0,1.0,9.0,9.055385138137417,9.0,35.0,35.0,34.0,191.0,195.0102561405425,193.06475597581243,183.13383084509536
22,1,33,0,1.3763749999999988,23.0,94.0,9.0,15.0,25.0,28.0178514522438,13.152946437965905,60.03332407921454,45.044422518220834,33.5,21.0,21.0,8.0,39.0,23.0,1.0,9.055385138137417,9.055385138137417,9.0,34.0,34.0,34.0147027033899,191.0026177831079,194.0025773024678,193.04144632694815,182.0686683644388
23,1,34,0,1.418083333333332,24.0,95.00526301210897,9.0,16.0,25.0,28.0178514522438,13.152946437965905,62.03224967708329,46.04345773288535,34.0,22.0,21.0,8.5,40.5,23.5,1.5,9.055385138137417,9.0,9.5,34.0,34.0,33.0,192.0,195.0102561405425,192.06509313251067,181.13530854032848
24,1,35,0,1.4597916666666653,26.0,94.00531899844816,9.0,16.0,24.0,28.0,13.152946437965905,64.03124237432849,48.041648597857254,35.0,23.0,22.0,9.5,41.5,23.5,1.5,9.055385138137417,9.0,9.0,34.0,34.0,33.0,191.01047091717248,194.0,193.02331465395574,181.06904760339356
25,1,36,0,1.5014999999999985,28.0178514522438,93.0,9.055385138137417,15.0,25.0,27.018512172212592,13.152946437965905,65.03076195155643,50.039984012787215,36.0,24.0,24.0,11.0,41.0,24.0,4.0,10.04987562112089,9.055385138137417,9.5,34.0,34.0,34.0,190.01052602421794,195.0,192.01041638411183,182.0686683644388
26,1,37,0,1.5432083333333315,28.0178514522438,94.00531899844816,9.0,15.033296378372908,26.0,28.0,14.142135623730951,66.03029607687671,51.0098029794274,37.0,25.0,24.0,10.5,41.5,24.5,3.5,9.055385138137417,9.055385138137417,9.0,33.0,35.0,35.014282800023196,191.04188022525324,194.0025773024678,192.00260414900626,181.02486017119307
27,1,38,0,1.584916666666665,31.016124838541646,93.02150289046077,8.0,16.0,25.0,27.0,13.152946437965905,68.06614430096654,52.08646657242167,36.5,25.0,23.0,11.0,44.0,27.0,4.0,10.198039027185569,9.055385138137417,9.0,32.0,33.0,35.014282800023196,191.01047091717248,194.0,192.00260414900626,182.02472359545007
28,1,39,0,1.6266249999999982,31.016124838541646,92.02173656261873,8.0,15.033296378372908,25.0,27.0,13.341664064126334,67.06713054842886,52.03844732503075,36.5,25.0,23.0,11.0,43.0,26.0,4.0,9.0,9.055385138137417,9.5,32.0,34.0,35.014282800023196,191.04188022525324,195.0230755577401,192.0,182.0109886792553
29,1,40,0,1.6683333333333314,31.0,93.04837451562494,9.0,16.0312195418814,26.019223662515376,28.0,12.165525060596439,68.06614430096654,52.03844732503075,36.5,26.0,23.0,12.5,43.5,25.5,5.5,9.055385138137417,8.06225774829855,8.5,31.0,34.0,34.0147027033899,190.02368273454758,194.0025773024678,192.00260414900626,181.04419349981927
30,1,41,0,1.710041666666665,32.01562118716424,92.0869154657707,9.0,16.0,26.019223662515376,28.0,13.152946437965905,70.06425622241343,54.08326913195984,38.0,28.0,24.0,13.0,44.0,27.0,6.0,10.04987562112089,9.055385138137417,9.0,32.0,35.0,35.0,191.12822920751398,194.06442229321684,192.01041638411183,182.0
31,1,42,0,1.751749999999998,35.014282800023196,93.13431161500041,8.0,16.0,25.019992006393608,28.0,13.152946437965905,72.06247289678588,56.08029957123981,38.5,28.0,23.0,12.5,46.5,28.5,5.5,9.0,8.246211251235321,8.5,31.0,36.0,33.015148038438355,191.1674658512792,195.0922858546693,193.04144632694815,181.01104938649465
32,1,43,0,1.7934583333333312,38.01315561749642,91.0494371207203,8.0,15.033296378372908,27.018512172212592,29.0,10.44030650891055,71.17583859709698,56.142675390472796,37.0,24.0,21.0,12.5,48.5,31.5,6.5,9.0,9.219544457292887,8.5,32.0,37.0,34.058772731852805,191.26160095534075,195.1640335717624,193.0932417253385,182.02472359545007
33,1,44,0,1.8351666666666644,38.01315561749642,91.08786966440702,9.0,16.0312195418814,25.019992006393608,28.0178514522438,14.142135623730951,77.10382610480494,61.07372593840988,42.0,30.0,26.0,14.0,49.0,32.0,7.0,9.0,8.06225774829855,8.0,32.0,36.0,36.05551275463989,192.26024029944412,195.1640335717624,191.06543381784158,180.01111076819674
34,1,45,0,1.8768749999999976,42.01190307520001,91.13725912051558,8.0,16.0312195418814,25.079872407968907,28.071337695236398,13.341664064126334,79.1580697086532,63.12685640834652,42.0,30.0,25.0,14.5,51.5,34.5,8.5,9.055385138137417,9.219544457292887,8.5,32.0,37.0,35.014282800023196,190.31815467789718,193.1657319505714,191.04188022525324,180.00277775634464
35,1,46,0,1.9185833333333309,41.012193308819754,89.05054744357274,8.0,15.033296378372908,24.020824298928627,28.0178514522438,13.341664064126334,77.1621668954417,62.12889826803627,41.5,29.0,26.0,14.5,49.5,32.5,8.5,8.0,8.06225774829855,8.5,32.0,36.0,36.0,191.26160095534075,194.164878389476,192.04166214652486,181.0
36,1,47,0,1.960291666666664,39.01281840626232,91.02197536858887,8.0,16.0,26.019223662515376,28.0178514522438,12.36931687685298,75.1065909225016,59.135437767890075,39.5,28.0,26.0,15.0,48.0,30.0,8.0,9.055385138137417,9.055385138137417,9.0,33.0,37.0,35.0,190.16834647227702,193.0932417253385,192.01041638411183,181.01104938649465
37,1,48,0,2.0019999999999976,35.0,91.00549433962765,8.06225774829855,16.0,25.0,28.0,13.152946437965905,72.06247289678588,56.08029957123981,38.5,27.0,26.0,13.5,45.5,27.5,6.5,9.0,8.06225774829855,8.5,33.0,36.0,34.0,190.06577808748213,194.02319448973105,191.0026177831079,181.04419349981927
38,1,49,0,2.043708333333331,32.01562118716424,88.0056816347672,9.0,17.0,25.0,27.0,12.165525060596439,70.06425622241343,53.08483775994799,37.0,27.0,26.0,14.5,43.5,24.5,7.5,9.055385138137417,8.06225774829855,8.5,34.0,36.0,35.014282800023196,190.02368273454758,193.00259065618783,192.04166214652486,182.13456563760764
39,1,50,0,2.085416666666664,28.0178514522438,84.0,7.0,15.0,24.0,26.0,14.035668847618199,64.0,49.0,35.0,28.0,28.0,14.0,36.0,19.0,8.0,9.219544457292887,9.055385138137417,9.0,31.0,34.0,35.0,191.02355875650522,193.06475597581243,190.21303845951255,182.33211456021672
40,1,51,0,2.1271249999999973,17.0,83.05419917138447,7.0,14.035668847618199,24.020824298928627,25.019992006393608,15.033296378372908,53.0,39.01281840626232,30.5,25.0,28.0,11.5,26.5,10.5,5.5,9.219544457292887,10.04987562112089,10.0,30.0,29.0,35.014282800023196,190.04210059878838,192.09372712298546,189.21416437465774,180.33579788827288
41,1,52,0,2.1688333333333305,15.033296378372908,80.09993757800315,8.0,13.0,22.02271554554524,23.08679276123039,15.033296378372908,51.0,38.0,30.5,25.0,29.0,12.0,24.0,8.0,5.0,9.219544457292887,9.055385138137417,9.0,31.0,30.0,34.0147027033899,189.12958520548815,192.26024029944412,189.51780918953236,180.7097119692243
42,1,53,0,2.210541666666664,18.0,79.1580697086532,7.0710678118654755,15.033296378372908,22.090722034374522,24.08318915758459,15.033296378372908,55.00909015790027,40.0,31.0,25.0,30.0,12.5,27.5,9.5,5.5,10.04987562112089,9.055385138137417,9.5,32.0,27.0,33.06055050963308,190.12890364171355,192.31484602078956,189.38056922503955,180.54362353736008
43,1,54,0,2.252249999999997,16.0,79.22752047110903,7.0,16.0312195418814,22.090722034374522,23.08679276123039,15.0,54.00925846556311,38.0,30.0,25.0,31.0,13.0,26.0,7.0,6.0,9.219544457292887,10.0,10.0,33.0,30.0,33.015148038438355,189.12958520548815,192.26024029944412,189.44656238633627,180.54362353736008
44,1,55,0,2.29395833333333,13.038404810405298,77.23341245859851,9.0,16.0312195418814,21.02379604162864,23.194827009486403,16.0,54.037024344425184,38.01315561749642,31.5,25.0,31.0,12.0,26.0,8.0,4.0,10.04987562112089,10.0,10.0,35.0,32.0,32.0624390837628,190.26297590440447,193.43732835210477,189.67603960437387,180.7097119692243
45,1,56,0,2.3356666666666634,13.038404810405298,76.32168761236873,9.0,16.0312195418814,21.095023109728988,22.090722034374522,16.0,54.037024344425184,38.01315561749642,31.5,24.0,31.0,11.5,26.5,7.5,2.5,9.219544457292887,9.0,9.5,39.0,33.0,35.12833614050059,188.26576959181932,191.51240168720145,189.85520798756087,181.99450541156455
46,1,57,0,2.3773749999999967,14.035668847618199,77.31752712031083,9.0,16.0312195418814,21.095023109728988,23.194827009486403,17.029386365926403,56.08029957123981,40.049968789001575,33.0,25.0,32.0,11.5,27.5,9.5,2.5,10.198039027185569,10.0,10.0,40.0,33.0,35.12833614050059,190.3785702225962,193.58202395883765,190.7590102721232,181.89282558693733
47,1,58,0,2.41908333333333,15.0,78.23042886243178,9.055385138137417,17.029386365926403,21.095023109728988,23.194827009486403,17.0,58.034472514187634,41.012193308819754,33.5,25.0,31.0,11.0,30.0,11.0,2.0,9.219544457292887,10.0,10.0,39.0,33.0,35.12833614050059,188.38258942906586,192.5850461484484,190.7590102721232,181.89282558693733
48,1,59,0,2.460791666666663,18.0,78.23042886243178,9.055385138137417,17.11724276862369,21.095023109728988,24.08318915758459,16.0,60.07495318350236,43.01162633521314,34.0,25.0,31.0,12.0,32.0,12.0,3.0,10.198039027185569,10.0,10.0,40.0,33.0,35.22782990761707,190.31815467789718,193.5071058126807,190.59118552545917,182.70194306574848
49,1,60,0,2.5024999999999964,17.0,79.22752047110903,9.055385138137417,17.11724276862369,23.08679276123039,24.08318915758459,16.0,59.07622195096772,42.01190307520001,33.5,25.0,31.0,12.0,31.0,12.0,3.0,9.219544457292887,10.0,10.0,39.0,33.0,36.124783736376884,190.31815467789718,193.3726971420733,191.58809983921236,181.62048342629197
50,1,61,0,2.5442083333333296,18.027756377319946,78.16009211867653,9.0,17.029386365926403,22.090722034374522,24.08318915758459,15.033296378372908,59.07622195096772,42.04759208325728,33.0,25.0,30.0,12.5,31.5,12.5,3.5,10.198039027185569,10.0,10.0,39.0,33.0,35.05709628591621,191.3164917094185,194.4350791395421,190.67249408344142,181.79658962697843
51,1,62,0,2.585916666666663,16.0,78.23042886243178,9.055385138137417,16.0312195418814,21.02379604162864,24.08318915758459,16.0,57.0350769263968,41.012193308819754,33.0,24.0,30.0,11.0,30.0,12.0,3.0,10.198039027185569,10.0,10.0,39.0,33.0,35.05709628591621,190.4442175546425,193.58202395883765,189.85520798756087,179.90275150758535
52,1,63,0,2.627624999999996,12.0,75.23961722390672,10.04987562112089,17.11724276862369,21.095023109728988,23.08679276123039,17.0,56.08029957123981,39.01281840626232,33.0,26.0,32.0,12.0,27.0,8.0,2.0,10.198039027185569,10.0,10.5,39.0,34.0,37.05401462729781,189.38056922503955,192.50974001333023,188.76705220985997,178.80995498014084
53,1,64,0,2.6693333333333293,11.0,75.23961722390672,8.06225774829855,14.035668847618199,21.095023109728988,22.090722034374522,19.026297590440446,52.08646657242167,38.05259518088089,32.5,26.0,32.0,10.0,23.0,6.0,2.0,9.219544457292887,10.0,10.0,34.0,31.0,31.016124838541646,189.44656238633627,192.5850461484484,188.95766721676048,179.0111728356641
54,1,65,0,2.7110416666666626,7.0,74.24284477308234,10.04987562112089,15.033296378372908,20.024984394500787,22.20360331117452,18.027756377319946,50.08991914547278,35.05709628591621,31.5,26.0,32.0,11.0,21.0,4.0,2.0,10.04987562112089,10.0,10.0,34.0,32.0,32.0624390837628,189.31983519959022,191.58809983921236,188.95766721676048,179.2344832893492
55,1,66,0,2.752749999999996,9.055385138137417,77.1621668954417,10.04987562112089,15.033296378372908,20.09975124224178,21.095023109728988,19.026297590440446,53.150729063673246,38.118237105091836,33.5,28.0,33.0,11.5,22.5,5.5,1.5,10.04987562112089,11.0,11.0,39.0,34.0,33.015148038438355,188.32153355365392,192.5850461484484,188.85973631242842,180.1138528820035
56,1,67,0,2.794458333333329,24.0,80.02499609497022,10.0,15.033296378372908,22.0,24.020824298928627,18.027756377319946,67.02984409947557,52.009614495783374,40.0,34.0,36.0,17.0,32.0,15.0,8.0,11.045361017187261,10.0,10.0,38.0,35.0,34.0147027033899,190.16834647227702,193.31321734428818,190.59118552545917,181.79658962697843
57,1,68,0,2.8361666666666623,24.0,83.02409288875127,11.0,18.027756377319946,24.0,26.019223662515376,14.0,67.00746227100382,49.0,37.0,31.0,33.0,18.0,35.0,15.0,8.0,10.198039027185569,10.04987562112089,10.0,39.0,37.0,37.0,191.06543381784158,194.20865068271289,191.3164917094185,181.46625030566977
58,1,69,0,2.8778749999999955,28.0,83.0,10.04987562112089,17.029386365926403,24.0,27.018512172212592,14.035668847618199,69.00724599634447,52.0,38.0,33.0,33.0,19.0,36.0,18.0,10.0,10.04987562112089,11.045361017187261,11.0,36.0,36.0,34.0,189.02380802428036,192.09372712298546,189.16923639957952,180.27756377319946
59,1,70,0,2.9195833333333288,32.0,82.00609733428362,10.0,17.029386365926403,23.021728866442675,25.019992006393608,14.035668847618199,73.0,56.00892785976178,40.0,35.0,34.0,20.5,38.5,19.5,10.5,10.04987562112089,10.04987562112089,10.0,37.0,37.0,36.0,189.02380802428036,192.09372712298546,188.17013578142522,178.33956375409244
60,1,71,0,2.961291666666662,25.0,78.00640999302557,10.0,17.029386365926403,22.0,25.019992006393608,16.0,68.00735254367721,51.0,38.5,35.0,36.0,19.5,32.5,13.5,10.5,10.04987562112089,10.04987562112089,10.0,36.0,37.0,34.0,189.01058171435798,191.09421759959145,187.17104476921637,177.341478509682
61,1,72,0,3.0029999999999952,11.0,76.02631123499285,10.04987562112089,15.033296378372908,21.02379604162864,21.02379604162864,18.027756377319946,54.00925846556311,39.0,33.5,31.0,33.0,14.0,22.0,5.0,4.0,9.055385138137417,10.0,10.0,37.0,37.0,34.0147027033899,189.01058171435798,192.09372712298546,189.21416437465774,181.39735389470266
62,1,73,0,3.0447083333333285,9.055385138137417,78.02563681252464,10.0,14.0,20.0,22.02271554554524,20.0,53.009433122794285,39.01281840626232,34.5,31.0,33.0,12.0,21.0,5.0,3.0,9.055385138137417,9.0,9.5,37.0,37.0,35.014282800023196,188.0026595556563,192.06509313251067,189.21416437465774,181.33394607739612
63,1,74,0,3.0864166666666617,16.0312195418814,81.02468759581859,11.0,18.027756377319946,22.0,24.020824298928627,17.029386365926403,62.00806399170998,44.04543109109048,36.0,33.0,31.0,15.0,30.0,11.0,5.0,9.055385138137417,9.055385138137417,9.0,36.0,38.0,36.05551275463989,189.0,193.01036241611484,190.09471323527123,182.17573932881405
64,1,75,0,3.128124999999995,24.020824298928627,87.00574693662483,11.0,15.0,24.020824298928627,27.0,13.152946437965905,63.071388124885914,48.093658625644196,36.0,30.0,29.0,16.5,33.5,17.5,7.5,10.0,9.055385138137417,9.5,34.0,37.0,35.014282800023196,190.04210059878838,193.00259065618783,192.04166214652486,184.06792224611002
65,1,76,0,3.169833333333328,26.0,92.04890004774636,10.0,14.0,26.019223662515376,27.018512172212592,13.152946437965905,63.0317380372777,49.040799340956916,36.0,28.0,25.0,13.5,36.5,21.5,5.5,9.055385138137417,10.04987562112089,10.0,34.0,38.0,34.0147027033899,192.04166214652486,194.0025773024678,193.01036241611484,184.04347312523745
66,1,77,0,3.2115416666666614,26.019223662515376,93.13431161500041,10.0,14.0,25.019992006393608,28.0178514522438,13.152946437965905,63.071388124885914,49.09175083453431,36.0,28.0,23.0,12.5,37.5,22.5,4.5,10.04987562112089,9.055385138137417,9.5,34.0,38.0,35.05709628591621,191.09421759959145,194.02319448973105,193.0,184.0108692441835
67,1,78,0,3.253249999999994,28.0178514522438,93.08598175880189,9.0,14.0,26.019223662515376,28.0,12.165525060596439,63.071388124885914,49.09175083453431,35.0,26.0,22.0,12.0,39.0,23.0,4.0,9.0,9.055385138137417,9.0,33.0,38.0,36.013886210738214,192.09372712298546,195.0230755577401,193.0,185.0108104949546
68,1,79,0,3.294958333333328,30.01666203960727,93.08598175880189,9.0,15.0,25.019992006393608,28.0178514522438,13.341664064126334,67.11929677819934,52.15361924162119,37.0,27.0,23.0,12.0,42.0,26.0,5.0,8.06225774829855,9.055385138137417,9.0,33.0,38.0,35.014282800023196,190.12890364171355,195.0640920313116,193.00259065618783,185.0108104949546
69,1,80,0,3.336666666666661,30.01666203960727,92.0869154657707,8.0,13.0,27.018512172212592,29.0,13.152946437965905,64.07027391856539,51.088159097779204,36.0,27.0,23.0,12.0,39.0,24.0,6.0,9.055385138137417,8.06225774829855,8.5,30.0,36.0,32.0624390837628,191.1674658512792,193.06475597581243,191.04188022525324,182.00274723201295
70,1,81,0,3.3783749999999944,28.0,91.13725912051558,9.0,15.033296378372908,26.019223662515376,28.0,12.36931687685298,64.1248781675256,49.09175083453431,35.0,27.0,22.0,12.5,39.5,23.5,5.5,9.0,9.219544457292887,9.0,30.0,38.0,33.06055050963308,192.26024029944412,194.164878389476,192.09372712298546,183.04371062672436
71,1,82,0,3.420083333333328,25.019992006393608,91.13725912051558,10.04987562112089,17.029386365926403,26.019223662515376,29.0,13.152946437965905,65.19202405202648,48.16637831516918,35.5,29.0,24.0,13.5,38.5,20.5,5.5,9.055385138137417,9.219544457292887,9.5,30.0,37.0,35.05709628591621,191.21192431435858,194.164878389476,191.06543381784158,182.02472359545007
72,1,83,0,3.461791666666661,26.019223662515376,89.1403387922662,9.0,16.0312195418814,25.079872407968907,28.0178514522438,13.152946437965905,64.1248781675256,48.093658625644196,35.0,29.0,24.0,13.5,37.5,20.5,6.5,10.0,10.04987562112089,10.0,32.0,38.0,36.013886210738214,191.21192431435858,194.12624758130983,191.02355875650522,182.0109886792553
73,1,84,0,3.503499999999994,23.021728866442675,88.20430828479978,9.0,16.0312195418814,24.020824298928627,27.018512172212592,13.341664064126334,61.204574992397426,45.17742799230607,33.5,30.0,24.0,14.0,34.0,17.0,6.0,9.0,9.219544457292887,9.0,28.0,36.0,32.14031735997639,190.21303845951255,193.0932417253385,190.02368273454758,182.0109886792553
74,1,85,0,3.545208333333328,23.0,85.21150157109074,9.055385138137417,16.0312195418814,24.020824298928627,27.018512172212592,13.152946437965905,61.1310068623117,45.09988913511872,33.5,30.0,24.0,14.0,34.0,17.0,6.0,9.055385138137417,10.198039027185569,10.0,29.0,39.0,34.132096331752024,192.26024029944412,193.1657319505714,191.06543381784158,183.02458851203573
75,1,86,0,3.5869166666666605,21.02379604162864,85.21150157109074,9.0,15.033296378372908,25.019992006393608,26.019223662515376,13.038404810405298,58.077534382926416,43.04648650006177,32.5,30.0,24.0,14.0,31.0,15.0,7.0,10.04987562112089,9.219544457292887,9.0,28.0,37.0,33.06055050963308,190.21303845951255,193.0932417253385,190.02368273454758,181.01104938649465
76,1,87,0,3.6286249999999938,18.027756377319946,83.15046602394962,9.0,17.0,23.021728866442675,25.019992006393608,14.142135623730951,58.077534382926416,41.10960958218893,32.0,29.0,24.0,12.5,31.5,14.5,5.5,10.04987562112089,10.198039027185569,10.0,30.0,38.0,34.132096331752024,189.21416437465774,191.12822920751398,190.02368273454758,181.01104938649465
77,1,88,0,3.670333333333327,20.024984394500787,82.05485969764375,8.0,15.0,23.021728866442675,24.020824298928627,15.033296378372908,58.034472514187634,43.04648650006177,33.0,29.0,26.0,12.5,30.5,14.5,5.5,10.04987562112089,10.198039027185569,9.5,31.0,37.0,32.0624390837628,189.0952141118331,192.04166214652486,189.01058171435798,180.0
78,1,89,0,3.71204166666666,17.0,81.00617260431454,9.0,16.0,23.0,25.0,16.1245154965971,58.034472514187634,42.04759208325728,33.5,28.0,27.0,11.5,30.5,13.5,3.5,10.04987562112089,10.198039027185569,10.0,31.0,37.0,33.015148038438355,190.12890364171355,192.04166214652486,191.01047091717248,181.00276240985937
79,1,90,0,3.7537499999999935,17.0,80.00624975587844,9.0,16.0312195418814,22.0,24.0,15.033296378372908,57.0,41.012193308819754,32.5,27.0,28.0,12.5,29.5,12.5,3.5,10.04987562112089,10.04987562112089,10.0,31.0,35.0,33.015148038438355,189.04232330353963,192.00260414900626,188.01063799689632,180.0444389588304
80,1,91,0,3.795458333333327,15.033296378372908,79.00632886041473,10.0,16.0,22.0,24.020824298928627,16.0312195418814,57.0,41.0,33.5,28.0,29.0,12.5,28.5,11.5,3.5,10.04987562112089,10.198039027185569,10.0,32.0,36.0,34.0147027033899,190.04210059878838,192.00260414900626,188.01063799689632,180.0444389588304
81,1,92,0,3.83716666666666,14.035668847618199,78.00640999302557,9.0,17.0,22.0,24.0,17.029386365926403,57.0,40.0,33.0,28.0,29.0,11.5,28.5,10.5,3.5,10.04987562112089,10.04987562112089,10.0,33.0,36.0,34.0147027033899,190.0,192.01041638411183,188.04254837669055,179.10053042914194
82,1,93,0,3.878874999999993,15.0,80.00624975587844,9.0,17.029386365926403,22.0,24.020824298928627,16.0312195418814,57.0,40.01249804748511,32.5,28.0,29.0,12.5,28.5,10.5,4.5,10.04987562112089,10.04987562112089,10.0,32.0,35.0,33.015148038438355,190.0,192.01041638411183,189.04232330353963,180.13605968822566
83,1,94,0,3.9205833333333264,18.0,79.00632886041473,9.0,16.0,22.0,24.020824298928627,15.0,58.0,42.0,33.0,28.0,29.0,13.5,29.5,11.5,5.5,10.198039027185569,10.04987562112089,10.0,33.0,35.0,33.0,190.0026315607234,192.00260414900626,189.04232330353963,180.06943105369106
84,1,95,0,3.96229166666666,24.0,81.0,10.0,18.0,23.0,26.0,14.035668847618199,66.007575322837,48.010415536631214,36.0,30.0,30.0,16.0,36.0,16.0,7.0,10.04987562112089,11.180339887498949,11.0,33.0,35.0,33.0,188.0026595556563,192.04166214652486,188.13027401245128,178.22738285684386
85,1,96,0,4.003999999999993,28.0178514522438,82.0,9.055385138137417,18.027756377319946,24.0,27.0,14.035668847618199,69.0,51.0098029794274,37.0,30.0,30.0,16.0,39.0,20.0,8.0,10.198039027185569,10.04987562112089,10.0,33.0,34.0,34.0,189.0026454841307,192.01041638411183,188.06647760831805,178.13758727455584
86,1,97,0,4.045708333333327,26.0,81.00617260431454,10.0,18.027756377319946,24.020824298928627,27.0,14.035668847618199,68.0,50.00999900019995,37.0,31.0,30.0,16.5,37.5,18.5,7.5,10.198039027185569,10.04987562112089,10.0,35.0,34.0,34.0147027033899,189.02380802428036,191.06543381784158,188.17013578142522,178.2806775845324
87,1,98,0,4.08741666666666,24.0,81.0,10.04987562112089,19.0,23.021728866442675,26.0,15.033296378372908,68.0,49.0,37.0,31.0,31.0,16.0,37.0,17.0,7.0,10.04987562112089,9.055385138137417,9.5,35.0,34.0,36.013886210738214,189.04232330353963,192.12756179163884,188.26576959181932,178.4040358287895
88,1,99,0,4.129124999999993,22.02271554554524,76.00657866263946,10.0,16.0,21.0,24.020824298928627,18.027756377319946,66.0,50.0,39.0,33.0,34.0,15.5,32.5,15.5,6.5,10.04987562112089,10.04987562112089,10.0,36.0,35.0,37.013511046643494,190.12890364171355,192.21082175569617,188.32153355365392,179.47144619688115
89,1,100,0,4.170833333333326,7.0,75.02666192761077,10.04987562112089,15.033296378372908,21.02379604162864,23.021728866442675,20.0,52.03844732503075,37.013511046643494,33.5,31.0,33.0,12.0,20.0,3.0,3.0,10.04987562112089,10.04987562112089,10.0,34.0,34.0,33.015148038438355,189.0952141118331,191.21192431435858,187.45132701584163,179.71366113904642
90,1,101,0,4.21254166666666,8.06225774829855,73.06161783043132,9.0,15.0,19.026297590440446,21.02379604162864,20.024984394500787,52.0,37.0,33.0,30.0,33.0,11.5,20.5,3.5,2.5,10.04987562112089,10.04987562112089,10.5,35.0,34.0,34.0147027033899,188.17013578142522,192.31484602078956,188.52055590836773,179.71366113904642
91,1,102,0,4.254249999999993,11.0,73.00684899377592,10.04987562112089,17.0,19.026297590440446,21.02379604162864,19.026297590440446,57.0,40.0,34.5,32.0,33.0,13.5,24.5,6.5,3.5,10.198039027185569,10.0,10.0,37.0,35.0,36.0,190.09471323527123,193.2097306038182,189.51780918953236,180.7097119692243
92,1,103,0,4.295958333333326,13.0,73.02739212103907,9.0,16.0312195418814,18.027756377319946,21.02379604162864,19.0,57.0087712549569,41.0,34.5,32.0,34.0,14.0,24.0,7.0,5.0,10.198039027185569,9.0,9.5,39.0,36.0,35.0,191.12822920751398,193.2097306038182,189.38056922503955,179.47144619688115
93,1,104,0,4.337666666666659,8.0,73.06161783043132,11.0,17.029386365926403,18.027756377319946,20.024984394500787,19.026297590440446,55.036351623268054,38.01315561749642,34.0,30.0,33.0,12.5,23.5,5.5,1.5,10.04987562112089,10.0,10.0,39.0,35.0,35.014282800023196,191.1674658512792,192.26024029944412,188.4489320744482,179.47144619688115
94,1,105,0,4.3793749999999925,7.0,72.06247289678588,11.0,17.029386365926403,19.026297590440446,21.02379604162864,20.0,55.00909015790027,38.0,34.5,30.0,33.0,11.5,23.5,4.5,1.5,11.045361017187261,10.04987562112089,10.5,37.0,33.0,33.015148038438355,189.21416437465774,192.37463450257678,187.6006396577581,179.71366113904642
95,1,106,0,4.421083333333326,11.0,75.1065909225016,10.04987562112089,16.0312195418814,20.024984394500787,22.090722034374522,19.0,56.0357029044876,40.01249804748511,34.5,30.0,34.0,13.0,24.0,6.0,3.0,10.04987562112089,10.0,10.0,36.0,32.0,34.058772731852805,189.38056922503955,192.66551326067673,188.85973631242842,181.10770276274835
96,1,107,0,4.462791666666659,23.0,81.09870529176159,11.045361017187261,16.1245154965971,22.02271554554524,25.079872407968907,15.033296378372908,65.03076195155643,49.0,37.5,29.0,33.0,16.0,34.0,15.0,6.0,10.198039027185569,10.0,10.5,38.0,33.0,35.05709628591621,190.51509126575775,192.84190415985836,190.2761151589973,181.46349495146399
97,1,108,0,4.504499999999992,26.0,87.14355971613737,10.04987562112089,15.033296378372908,24.020824298928627,26.1725046566048,14.035668847618199,65.00769185258002,50.0,37.0,28.0,33.0,16.5,34.5,16.5,7.5,10.198039027185569,10.0,10.0,39.0,32.0,36.124783736376884,190.59118552545917,193.83756085960223,191.38704240360684,182.58422713914803
98,1,109,0,4.546208333333325,26.0,88.14193099768123,9.055385138137417,15.033296378372908,25.019992006393608,27.16615541441225,13.0,63.0317380372777,48.010415536631214,35.0,25.0,30.0,14.5,35.5,17.5,5.5,9.219544457292887,9.0,9.0,39.0,32.0,36.124783736376884,191.58809983921236,195.02820308868152,192.37983262286096,182.58422713914803
99,1,110,0,4.587916666666659,24.020824298928627,88.14193099768123,10.0,15.033296378372908,24.020824298928627,27.073972741361768,14.0,63.0317380372777,48.010415536631214,36.0,25.0,30.0,13.5,35.5,17.5,4.5,9.219544457292887,10.04987562112089,10.0,39.0,31.0,35.12833614050059,190.59118552545917,193.93297811357408,192.37983262286096,182.7183625145541
100,1,111,0,4.629624999999992,27.0,88.2779700718135,9.055385138137417,15.132745950421556,24.08318915758459,27.16615541441225,13.038404810405298,64.03124237432849,49.0,35.5,23.0,30.0,13.5,37.5,19.5,4.5,9.219544457292887,9.0,9.0,39.0,32.0,36.124783736376884,191.66898549321954,195.02820308868152,193.49418595916518,182.7183625145541
101,1,112,0,4.671333333333325,27.018512172212592,87.36704184073076,7.0,14.035668847618199,27.073972741361768,29.154759474226502,7.0,55.036351623268054,41.012193308819754,27.5,14.0,22.0,11.0,37.0,19.0,5.0,9.219544457292887,9.0,9.0,34.0,24.0,34.132096331752024,193.74725804511402,196.02295783912658,193.49418595916518,185.82787734890587
102,1,113,0,4.713041666666658,29.017236257093817,83.38465086573187,7.0,13.038404810405298,24.08318915758459,28.160255680657446,8.0,57.0350769263968,44.01136216933077,29.5,17.0,25.0,13.0,36.0,20.0,6.0,9.055385138137417,8.0,8.5,35.0,26.0,34.23448553724738,192.50974001333023,194.83326204732086,192.04426573058618,184.20097719610501
103,1,114,0,4.754749999999992,28.0178514522438,79.30952023559341,7.0,13.038404810405298,24.08318915758459,26.1725046566048,10.0,58.034472514187634,45.0111097397076,31.0,20.0,27.0,13.5,34.5,17.5,7.5,9.219544457292887,8.0,8.5,34.0,26.0,33.13608305156178,192.5850461484484,194.92819190666086,192.26284092356485,183.5755975068582
104,1,115,0,4.796458333333325,23.021728866442675,78.23042886243178,8.0,16.1245154965971,22.090722034374522,25.179356624028344,13.038404810405298,60.13318551349163,44.04543109109048,32.5,26.0,32.0,16.0,31.0,13.0,8.0,10.198039027185569,9.055385138137417,9.5,35.0,29.0,34.132096331752024,191.51240168720145,193.83756085960223,190.2761151589973,181.59295140505867
105,1,116,0,4.838166666666658,21.02379604162864,77.1621668954417,9.055385138137417,16.0312195418814,23.08679276123039,25.079872407968907,13.0,59.07622195096772,43.04648650006177,32.5,28.0,33.0,17.5,28.5,9.5,8.5,10.198039027185569,10.0,10.0,39.0,31.0,35.12833614050059,191.75505208468434,194.1391253714717,190.51771571168914,181.59295140505867
106,1,117,0,4.879874999999991,19.026297590440446,77.23341245859851,9.0,16.1245154965971,22.090722034374522,25.079872407968907,14.142135623730951,58.215118311311535,42.1070065428546,32.5,27.0,33.0,16.0,28.0,10.0,7.0,10.198039027185569,9.0,9.0,39.0,31.0,36.22154055254967,190.9476368012969,194.2498391247725,189.6549498431296,179.88885457415086
107,1,118,0,4.9215833333333245,20.024984394500787,77.23341245859851,9.055385138137417,16.1245154965971,23.08679276123039,24.08318915758459,14.0,59.135437767890075,43.04648650006177,33.0,27.0,33.0,16.0,29.0,11.0,7.0,10.44030650891055,9.0,9.0,37.0,30.0,33.13608305156178,191.84629264074925,195.2434377898525,190.51771571168914,180.7373785358192
108,1,119,0,4.963291666666658,14.035668847618199,77.31752712031083,9.055385138137417,15.132745950421556,22.090722034374522,24.186773244895647,17.11724276862369,55.326304774492215,40.19950248448356,33.0,27.0,34.0,13.5,24.5,7.5,4.5,9.219544457292887,9.0,9.5,39.0,31.0,33.13608305156178,190.9476368012969,194.48650338776724,189.7893569197177,180.87841220001906
109,1,120,0,5.004999999999991,7.0710678118654755,74.54528824815154,10.0,16.1245154965971,20.09975124224178,22.20360331117452,17.029386365926403,50.15974481593781,34.058772731852805,30.5,24.0,33.0,11.5,21.5,3.5,1.5,10.198039027185569,10.04987562112089,10.0,39.0,30.0,33.13608305156178,190.2761151589973,193.75241933973368,189.2353032602532,180.6792738528689
110,1,121,0,5.046708333333324,6.082762530298219,75.66372975210778,10.04987562112089,15.132745950421556,21.213203435596427,22.20360331117452,16.0312195418814,47.265209192385896,32.14031735997639,29.0,22.0,32.0,11.0,20.0,2.0,1.0,10.44030650891055,10.04987562112089,10.0,37.0,29.0,33.13608305156178,189.40168953839878,192.89893727027115,190.22355269524328,181.33394607739612
111,1,122,0,5.0884166666666575,19.026297590440446,78.5175139698144,9.055385138137417,15.297058540778355,22.090722034374522,24.186773244895647,16.0312195418814,59.30430001273095,44.10215414239989,34.5,24.0,33.0,12.5,30.5,12.5,3.5,10.44030650891055,9.0,9.5,43.0,30.0,36.345563690772494,191.9088325221119,195.1665955024066,192.35384061671346,183.4693434882242
112,1,123,0,5.130124999999991,28.071337695236398,83.60023923410746,10.04987562112089,16.1245154965971,23.194827009486403,26.30589287593181,13.0,67.1863081289633,51.088159097779204,37.0,23.0,33.0,15.0,39.0,19.0,5.0,10.44030650891055,10.0,10.0,44.0,29.0,39.11521443121589,190.64626930522402,194.87944991712183,192.0520762709948,181.33394607739612
113,1,124,0,5.171833333333324,31.016124838541646,86.70063436907483,9.055385138137417,15.132745950421556,23.194827009486403,26.30589287593181,12.041594578792296,67.1863081289633,52.08646657242167,36.5,20.0,31.0,13.5,41.5,23.5,4.5,10.198039027185569,10.0,9.5,44.0,30.0,37.48332962798263,190.64626930522402,193.8891435846783,192.0520762709948,182.4828759089466
114,1,125,0,5.213541666666657,28.0178514522438,87.69264507357501,8.06225774829855,14.142135623730951,24.331050121192877,26.30589287593181,13.038404810405298,63.198101237299845,49.09175083453431,35.0,19.0,30.0,11.5,38.5,20.5,2.5,9.219544457292887,9.0,9.5,44.0,30.0,36.345563690772494,189.92893407798613,194.17775361765828,191.36614120580475,181.49655644116226
115,1,126,0,5.25524999999999,28.071337695236398,88.68483523128404,8.06225774829855,14.142135623730951,25.179356624028344,28.284271247461902,13.0,63.198101237299845,49.09175083453431,35.0,18.0,29.0,10.5,39.5,21.5,2.5,10.198039027185569,10.04987562112089,9.5,43.0,29.0,35.35533905932738,191.5097908724251,194.74342094150447,192.0520762709948,183.0027322200409
116,1,127,0,5.296958333333324,27.018512172212592,88.56635930193812,8.246211251235321,14.142135623730951,25.179356624028344,26.30589287593181,13.0,62.20128616033595,48.093658625644196,34.5,18.0,28.0,10.0,39.0,21.0,2.0,9.219544457292887,10.0,10.0,43.0,30.0,34.36568055487916,191.5097908724251,194.74342094150447,192.89893727027115,183.15294155431957
117,1,128,0,5.338666666666657,27.018512172212592,89.56003573022959,8.246211251235321,14.142135623730951,25.179356624028344,28.160255680657446,13.038404810405298,62.289646009589745,48.16637831516918,34.5,17.0,27.0,9.0,40.0,23.0,1.0,10.44030650891055,9.0,9.0,43.0,30.0,36.345563690772494,191.5097908724251,194.74342094150447,191.9088325221119,183.0027322200409
118,1,129,0,5.38037499999999,26.019223662515376,86.37129152675674,8.246211251235321,15.297058540778355,24.186773244895647,27.16615541441225,13.0,62.289646009589745,47.095647357266465,34.0,20.0,28.0,11.0,38.0,20.0,3.0,10.44030650891055,10.04987562112089,10.0,43.0,31.0,37.33630940518894,190.3943276465977,193.62076334938874,191.9088325221119,182.01373574541017
119,1,130,0,5.422083333333323,24.020824298928627,83.60023923410746,8.06225774829855,14.317821063276353,23.08679276123039,25.179356624028344,13.038404810405298,59.30430001273095,45.09988913511872,33.0,20.0,30.0,12.0,34.0,17.0,4.0,10.44030650891055,9.055385138137417,9.0,43.0,31.0,35.22782990761707,189.40168953839878,193.62076334938874,191.9088325221119,181.02486017119307
120,1,131,0,5.463791666666657,18.110770276274835,80.39900496896712,9.055385138137417,15.132745950421556,22.20360331117452,24.08318915758459,14.0,56.22277118748239,41.10960958218893,32.0,23.0,31.0,13.0,29.0,12.0,4.0,10.198039027185569,10.0,10.0,40.0,31.0,34.132096331752024,189.40168953839878,192.62917743685665,189.92893407798613,181.86808406094787
121,1,132,0,5.50549999999999,14.035668847618199,77.41446893184762,10.04987562112089,15.132745950421556,21.095023109728988,23.345235059857504,13.038404810405298,52.23983154643591,37.12142238654117,30.0,22.0,30.0,13.0,26.0,8.0,3.0,10.198039027185569,10.0,10.0,39.0,31.0,32.14031735997639,187.8643127366132,192.15098230297966,189.52572384771415,180.87841220001906
122,1,133,0,5.547208333333323,11.045361017187261,79.30952023559341,9.055385138137417,16.1245154965971,22.090722034374522,24.331050121192877,16.0,52.15361924162119,36.05551275463989,30.5,24.0,31.0,11.5,24.5,6.5,2.5,7.280109889280518,7.0,6.5,37.0,30.0,33.13608305156178,188.59745491389856,191.84629264074925,189.06083676954358,179.2344832893492
123,1,134,0,5.588916666666656,10.04987562112089,78.23042886243178,9.0,15.033296378372908,22.090722034374522,23.194827009486403,17.0,51.03920062069938,36.013886210738214,31.0,25.0,31.0,11.0,23.0,6.0,2.0,3.605551275463989,4.0,4.0,35.0,28.0,31.144823004794873,188.38258942906586,192.5850461484484,188.76705220985997,180.00555546982432
124,1,135,0,5.6306249999999896,9.0,77.05841939723393,9.0,16.0312195418814,21.02379604162864,23.08679276123039,19.026297590440446,53.0,37.013511046643494,32.5,28.0,31.0,10.5,23.5,6.5,2.5,6.082762530298219,6.0,6.0,34.0,31.0,32.01562118716424,191.1674658512792,193.3726971420733,188.52055590836773,181.70580618131055
125,1,136,0,5.672333333333323,8.0,77.1621668954417,8.0,15.033296378372908,20.09975124224178,22.090722034374522,20.024984394500787,51.0,36.013886210738214,32.0,26.0,31.0,8.5,22.5,5.5,0.5,8.246211251235321,8.0,8.5,33.0,34.0,33.0,190.02368273454758,192.09372712298546,188.32153355365392,180.54362353736008
126,1,137,0,5.714041666666656,11.0,78.05767098754612,8.06225774829855,15.033296378372908,21.02379604162864,22.090722034374522,20.09975124224178,54.0,39.01281840626232,33.5,26.0,29.0,7.5,26.5,9.5,0.5,11.045361017187261,10.04987562112089,10.5,32.0,33.0,35.0,191.0026177831079,194.0412327316027,190.16834647227702,181.33394607739612
127,1,138,0,5.755749999999989,21.0,81.00617260431454,8.0,16.0,22.0,25.0,17.029386365926403,62.00806399170998,46.010868281309364,35.5,27.0,26.0,9.5,35.5,17.5,2.5,10.04987562112089,10.04987562112089,10.0,31.0,36.0,31.016124838541646,191.02355875650522,193.00259065618783,189.06612599828665,180.22485955050706
128,1,139,0,5.7974583333333225,20.024984394500787,84.00595217006948,9.0,17.0,23.021728866442675,26.019223662515376,14.142135623730951,60.00833275470999,43.01162633521314,33.0,23.0,24.0,9.5,36.5,17.5,1.5,10.198039027185569,10.198039027185569,10.5,33.0,36.0,33.0,190.01052602421794,193.00259065618783,191.09421759959145,181.22361876973983
129,1,140,0,5.839166666666656,19.026297590440446,87.00574693662483,9.0,16.0,24.0,26.0,14.142135623730951,58.008620049092706,42.01190307520001,32.5,21.0,22.0,7.5,36.5,18.5,0.5,10.198039027185569,10.198039027185569,10.5,32.0,36.0,33.015148038438355,190.06577808748213,192.0,190.04210059878838,181.1767093199344
130,1,141,0,5.880874999999989,20.0,87.00574693662483,8.0,18.027756377319946,24.0,27.018512172212592,13.152946437965905,59.00847396772772,41.048751503547585,31.0,21.0,22.0,8.5,37.5,17.5,1.5,11.045361017187261,10.04987562112089,10.5,35.0,36.0,35.014282800023196,191.02355875650522,193.0,191.04188022525324,180.22485955050706
131,1,142,0,5.922583333333322,20.024984394500787,87.0,9.0,18.0,24.0,26.0,13.341664064126334,60.03332407921454,42.04759208325728,32.0,22.0,22.0,9.0,38.0,18.0,2.0,11.045361017187261,11.045361017187261,10.5,36.0,36.0,35.0,190.01052602421794,193.00259065618783,190.09471323527123,180.22485955050706
132,1,143,0,5.964291666666656,20.0,86.0,9.0,17.0,23.0,26.0,13.152946437965905,59.033888572581766,42.04759208325728,32.0,23.0,23.0,10.0,36.0,17.0,3.0,10.04987562112089,10.04987562112089,10.0,36.0,36.0,36.013886210738214,190.02368273454758,193.00259065618783,190.06577808748213,180.13605968822566
133,1,144,0,6.005999999999989,23.0,82.02438661763951,8.0,16.0,23.0,25.0,12.041594578792296,59.00847396772772,43.01162633521314,31.5,24.0,22.0,11.0,36.0,18.0,4.0,11.180339887498949,10.198039027185569,10.5,36.0,37.0,36.0,190.02368273454758,193.0,189.06612599828665,180.13605968822566
134,1,145,0,6.047708333333322,20.0,79.00632886041473,8.06225774829855,17.0,23.021728866442675,25.0,13.152946437965905,58.008620049092706,41.012193308819754,31.0,25.0,24.0,11.5,33.5,15.5,4.5,11.180339887498949,10.04987562112089,10.0,36.0,36.0,36.0,190.06577808748213,193.00259065618783,189.04232330353963,179.13681921927719
135,1,146,0,6.089416666666655,19.0,78.00640999302557,8.0,16.0312195418814,21.02379604162864,23.021728866442675,13.038404810405298,56.0,40.01249804748511,30.5,24.0,25.0,11.5,31.5,13.5,4.5,11.045361017187261,10.198039027185569,10.0,36.0,36.0,36.013886210738214,190.04210059878838,192.0,188.04254837669055,178.10109488714548
136,1,147,0,6.131124999999988,14.0,77.0,9.0,17.0,21.02379604162864,23.0,14.035668847618199,54.00925846556311,37.013511046643494,30.0,25.0,25.0,11.0,29.0,10.0,3.0,11.180339887498949,11.045361017187261,10.5,36.0,36.0,35.014282800023196,190.04210059878838,193.00259065618783,189.01058171435798,179.0446871593793
137,1,148,0,6.172833333333322,14.035668847618199,74.00675644831355,8.06225774829855,17.0,21.0,23.021728866442675,15.132745950421556,54.037024344425184,37.05401462729781,30.0,25.0,24.0,9.5,29.5,10.5,2.5,11.045361017187261,10.198039027185569,10.0,36.0,37.0,35.014282800023196,190.02368273454758,193.00259065618783,189.02380802428036,179.0446871593793
138,1,149,0,6.214541666666655,16.0,79.0,9.0,17.0,21.02379604162864,24.020824298928627,14.035668847618199,56.00892785976178,39.01281840626232,31.0,24.0,24.0,10.0,32.0,13.0,2.0,10.198039027185569,10.04987562112089,10.0,36.0,37.0,36.0,191.02355875650522,194.0,189.02380802428036,179.06981878585793
139,1,150,0,6.256249999999988,20.0,81.02468759581859,8.0,17.0,21.02379604162864,24.020824298928627,13.038404810405298,58.008620049092706,41.012193308819754,31.0,22.0,24.0,10.0,35.0,16.0,2.0,11.180339887498949,10.198039027185569,10.5,36.0,36.0,35.014282800023196,191.02355875650522,193.00259065618783,189.04232330353963,180.0999722376436
140,1,151,0,6.297958333333321,24.0,84.02380615040002,8.0,15.033296378372908,22.0,25.0,12.165525060596439,59.00847396772772,44.04543109109048,32.0,19.0,21.0,8.0,39.0,22.0,1.0,10.198039027185569,11.180339887498949,11.0,36.0,36.0,34.0147027033899,191.04188022525324,193.00259065618783,190.01052602421794,181.04419349981927
141,1,152,0,6.339666666666655,24.0,85.00588214941364,8.0,15.0,23.0,25.019992006393608,13.038404810405298,60.00833275470999,45.0111097397076,33.0,20.0,21.0,7.5,39.5,22.5,1.5,11.180339887498949,10.198039027185569,10.5,36.0,36.0,35.0,191.04188022525324,193.00259065618783,190.0026315607234,180.0444389588304
142,1,153,0,6.381374999999988,26.0,85.0,8.0,15.0,23.0,26.0,11.180339887498949,60.03332407921454,45.044422518220834,32.0,20.0,20.0,9.0,40.0,23.0,2.0,11.045361017187261,10.198039027185569,10.0,36.0,36.0,35.0,190.06577808748213,193.00259065618783,189.0026454841307,180.0444389588304
143,1,154,0,6.423083333333321,26.0,85.0,8.0,16.0,23.0,26.0,12.165525060596439,62.03224967708329,46.04345773288535,33.0,21.0,21.0,9.0,41.0,23.0,2.0,11.180339887498949,10.198039027185569,10.0,36.0,37.0,35.0,190.04210059878838,193.0,189.02380802428036,179.0446871593793
144,1,155,0,6.464791666666654,24.0,85.0,8.0,16.0,23.0,26.019223662515376,13.152946437965905,61.032778078668514,45.044422518220834,33.0,22.0,22.0,9.0,39.0,21.0,2.0,10.04987562112089,10.198039027185569,10.5,36.0,37.0,35.014282800023196,190.06577808748213,193.01036241611484,189.0,179.02513789968157
145,1,156,0,6.506499999999988,23.0,85.00588214941364,8.0,17.0,23.0,26.019223662515376,13.152946437965905,61.032778078668514,44.04543109109048,32.5,21.0,22.0,8.5,39.5,20.5,2.5,11.045361017187261,11.180339887498949,10.5,35.0,36.0,36.0,190.04210059878838,193.00259065618783,189.01058171435798,179.06981878585793
146,1,157,0,6.548208333333321,25.0,86.0,9.0,15.033296378372908,23.0,25.0,12.165525060596439,61.00819617067857,46.04345773288535,33.5,20.0,20.0,8.0,41.0,24.0,1.0,10.04987562112089,10.04987562112089,10.0,36.0,36.0,35.014282800023196,189.04232330353963,193.0,190.02368273454758,181.0994202089007
147,1,158,0,6.589916666666654,22.02271554554524,86.00581375697809,8.0,17.0,24.0,25.019992006393608,13.152946437965905,60.00833275470999,43.01162633521314,32.0,21.0,22.0,8.5,38.5,19.5,2.5,11.045361017187261,11.180339887498949,11.0,35.0,36.0,35.014282800023196,191.09421759959145,193.01036241611484,190.0026315607234,180.02499826412998
148,1,159,0,6.631624999999987,24.0,85.0,8.0,17.0,23.0,25.019992006393608,12.165525060596439,61.032778078668514,44.04543109109048,32.0,21.0,21.0,9.0,40.0,21.0,2.0,11.045361017187261,10.198039027185569,10.5,36.0,37.0,35.014282800023196,190.04210059878838,193.00259065618783,190.01052602421794,180.0444389588304
149,1,160,0,6.6733333333333205,25.0,84.0,8.0,17.0,24.0,26.019223662515376,13.341664064126334,63.071388124885914,46.09772228646444,33.5,22.0,22.0,9.0,41.0,22.0,3.0,10.04987562112089,11.045361017187261,10.5,36.0,36.0,36.0,190.06577808748213,193.00259065618783,190.01052602421794,180.06943105369106
150,1,161,0,6.715041666666654,28.0,86.0,8.0,17.0,22.0,26.0,12.36931687685298,65.06919393998976,48.093658625644196,34.0,23.0,23.0,11.0,42.0,23.0,4.0,11.180339887498949,11.180339887498949,10.5,36.0,37.0,36.013886210738214,191.04188022525324,194.0025773024678,189.02380802428036,179.06981878585793
151,1,162,0,6.756749999999987,31.0,85.00588214941364,8.0,17.0,24.0,27.0,12.36931687685298,68.06614430096654,51.088159097779204,35.5,25.0,24.0,12.5,43.5,24.5,5.5,10.04987562112089,10.198039027185569,10.0,35.0,36.0,36.013886210738214,191.09421759959145,194.0103090044444,190.0026315607234,180.0444389588304
152,1,163,0,6.79845833333332,34.0,84.02380615040002,8.0,17.029386365926403,25.0,28.0,13.341664064126334,72.11102550927978,55.08175741568164,38.0,28.0,26.0,14.0,45.0,26.0,7.0,11.045361017187261,10.198039027185569,10.0,34.0,36.0,37.013511046643494,192.09372712298546,194.02319448973105,190.0,179.0446871593793
153,1,164,0,6.840166666666653,40.01249804748511,84.00595217006948,7.0,16.0,25.0,27.0,14.317821063276353,77.10382610480494,61.1310068623117,41.0,29.0,28.0,14.5,48.5,30.5,8.5,10.04987562112089,10.198039027185569,10.0,33.0,35.0,38.0,191.12822920751398,193.04144632694815,190.0026315607234,179.0111728356641
154,1,165,0,6.881874999999987,45.0,83.05419917138447,7.0,16.0312195418814,25.019992006393608,28.0,13.601470508735444,81.15417426109393,65.12296062065974,42.5,32.0,29.0,17.5,50.5,32.5,11.5,11.045361017187261,10.04987562112089,10.0,30.0,35.0,36.013886210738214,192.12756179163884,194.02319448973105,190.0,178.02527910383964
155,1,166,0,6.92358333333332,45.0111097397076,84.02380615040002,8.0,17.029386365926403,24.0,28.0,11.40175425099138,81.15417426109393,64.1248781675256,41.5,30.0,28.0,18.0,52.0,33.0,11.0,10.04987562112089,10.198039027185569,10.0,29.0,33.0,35.0,192.12756179163884,194.06442229321684,190.02368273454758,179.0111728356641
156,1,167,0,6.965291666666653,44.01136216933077,83.00602387778854,7.0,17.0,25.019992006393608,28.0,13.341664064126334,81.09870529176159,64.1248781675256,42.0,33.0,32.0,19.5,48.5,29.5,13.5,5.0,5.0990195135927845,5.0,30.0,34.0,33.0,192.16659439142902,193.06475597581243,189.01058171435798,178.0028089666003
157,1,168,0,7.006999999999986,31.0,80.05623023850174,9.0,14.0,23.021728866442675,26.0,14.317821063276353,68.06614430096654,54.08326913195984,38.5,34.0,31.0,18.5,35.5,19.5,11.5,3.1622776601683795,4.123105625617661,3.5,31.0,35.0,35.0,193.1657319505714,193.06475597581243,189.01058171435798,179.0111728356641
158,1,169,0,7.04870833333332,16.0,77.02596964660685,8.0,14.0,22.02271554554524,24.020824298928627,16.1245154965971,54.037024344425184,40.049968789001575,32.0,33.0,31.0,16.0,22.0,6.0,9.0,3.0,4.0,3.5,34.0,36.0,35.014282800023196,193.04144632694815,194.0025773024678,189.01058171435798,179.06981878585793
159,1,170,0,7.090416666666653,13.038404810405298,78.02563681252464,7.0710678118654755,14.0,21.0,23.0,17.11724276862369,51.03920062069938,37.05401462729781,30.5,32.0,30.0,14.0,20.0,5.0,7.0,5.0,6.082762530298219,6.0,33.0,37.0,34.0147027033899,192.06509313251067,193.01036241611484,188.01063799689632,180.0444389588304
160,1,171,0,7.132124999999986,15.0,77.05841939723393,8.0,15.0,22.02271554554524,23.0,16.1245154965971,54.037024344425184,39.05124837953327,31.5,33.0,30.0,15.5,22.5,6.5,8.5,7.0,8.06225774829855,8.0,30.0,37.0,33.06055050963308,192.21082175569617,194.12624758130983,190.04210059878838,180.01111076819674
161,1,172,0,7.173833333333319,19.026297590440446,82.15229759416349,8.0,16.0312195418814,23.08679276123039,25.019992006393608,15.132745950421556,58.137767414994535,42.1070065428546,32.5,33.0,28.0,15.5,27.5,10.5,9.5,10.04987562112089,9.219544457292887,9.0,28.0,36.0,34.058772731852805,192.21082175569617,194.12624758130983,190.09471323527123,182.04395073717774
162,1,173,0,7.2155416666666525,25.019992006393608,85.21150157109074,9.0,16.0312195418814,25.079872407968907,28.0178514522438,14.317821063276353,64.19501538281614,48.16637831516918,35.5,33.0,27.0,16.0,34.0,17.0,9.0,9.055385138137417,10.198039027185569,9.5,28.0,36.0,35.05709628591621,192.37463450257678,193.25889371514057,190.16834647227702,183.09833423600554
163,1,174,0,7.257249999999986,27.018512172212592,89.20201791439474,9.0,15.033296378372908,25.079872407968907,28.071337695236398,14.317821063276353,65.19202405202648,50.15974481593781,36.5,31.0,25.0,14.0,37.0,21.0,7.0,9.055385138137417,9.055385138137417,9.0,27.0,36.0,34.058772731852805,192.37463450257678,195.20758181996928,192.12756179163884,183.04371062672436
164,1,175,0,7.298958333333319,27.018512172212592,91.19758768739445,10.0,15.033296378372908,26.019223662515376,28.0178514522438,13.341664064126334,65.19202405202648,50.15974481593781,36.5,30.0,24.0,14.0,38.0,22.0,6.0,9.055385138137417,9.219544457292887,9.0,27.0,36.0,34.058772731852805,193.3726971420733,194.25756098540927,192.12756179163884,183.06829326784035
165,1,176,0,7.340666666666652,27.018512172212592,90.19977827023745,9.055385138137417,15.0,26.076809620810597,29.068883707497267,13.341664064126334,64.19501538281614,49.25444142409901,35.5,29.0,23.0,13.0,38.0,22.0,6.0,10.04987562112089,10.198039027185569,9.5,28.0,35.0,34.058772731852805,194.31160541768986,195.1640335717624,192.12756179163884,183.06829326784035
166,1,177,0,7.3823749999999855,28.0178514522438,91.19758768739445,10.0,14.035668847618199,26.019223662515376,29.017236257093817,13.341664064126334,65.19202405202648,51.15662224971465,37.0,29.0,23.0,13.0,39.0,24.0,5.0,9.055385138137417,9.219544457292887,9.0,30.0,36.0,35.014282800023196,192.26024029944412,195.0922858546693,192.02343606966312,184.00271737123884
167,1,178,0,7.424083333333319,28.0178514522438,90.13878188659973,9.0,15.033296378372908,26.076809620810597,28.0178514522438,13.341664064126334,65.19202405202648,50.15974481593781,36.0,29.0,24.0,13.5,38.5,22.5,6.5,10.04987562112089,10.198039027185569,10.0,29.0,35.0,35.014282800023196,194.20865068271289,196.1249601657066,192.04166214652486,183.0109286354233
168,1,179,0,7.465791666666652,28.0,90.13878188659973,10.04987562112089,15.033296378372908,25.079872407968907,28.071337695236398,12.165525060596439,65.12296062065974,50.08991914547278,36.0,28.0,23.0,13.5,39.5,23.5,5.5,10.04987562112089,10.04987562112089,10.0,31.0,36.0,35.0,191.21192431435858,194.09276132818556,191.04188022525324,182.0
169,1,180,0,7.507499999999985,21.02379604162864,86.20904824900923,9.0,17.0,24.08318915758459,26.019223662515376,13.341664064126334,60.13318551349163,43.18564576337837,32.5,30.0,24.0,14.0,33.0,16.0,7.0,10.04987562112089,10.04987562112089,10.0,29.0,35.0,35.014282800023196,193.2097306038182,194.09276132818556,191.04188022525324,182.00274723201295
170,1,181,0,7.549208333333318,15.0,83.05419917138447,10.0,16.0,22.02271554554524,25.0,15.132745950421556,56.0357029044876,40.049968789001575,32.5,30.0,27.0,13.5,27.5,11.5,5.5,10.04987562112089,10.198039027185569,10.0,33.0,37.0,36.0,193.0932417253385,195.04102132628407,191.0,182.0109886792553
171,1,182,0,7.590916666666652,11.0,79.02531240052139,9.0,15.0,21.02379604162864,22.0,17.11724276862369,52.03844732503075,37.05401462729781,31.5,28.0,26.0,10.0,25.0,9.0,2.0,10.04987562112089,10.04987562112089,10.0,33.0,38.0,37.013511046643494,191.12822920751398,194.0412327316027,190.0,181.01104938649465
172,1,183,0,7.632624999999985,11.0,79.1012010022604,9.055385138137417,15.0,21.02379604162864,23.021728866442675,17.029386365926403,52.03844732503075,37.05401462729781,31.5,28.0,24.0,9.0,26.0,10.0,1.0,11.045361017187261,10.198039027185569,10.0,34.0,37.0,37.013511046643494,193.2097306038182,195.0922858546693,191.01047091717248,182.0
173,1,184,0,7.674333333333318,21.0,80.09993757800315,9.055385138137417,16.0312195418814,22.02271554554524,25.019992006393608,16.1245154965971,62.12889826803627,46.09772228646444,35.5,29.0,25.0,11.0,35.0,18.0,3.0,10.04987562112089,10.198039027185569,10.0,34.0,38.0,33.015148038438355,191.1674658512792,195.0922858546693,191.01047091717248,181.0
174,1,185,0,7.716041666666651,21.0,82.09750300709517,9.055385138137417,17.0,22.02271554554524,25.019992006393608,15.132745950421556,62.07253821135398,45.09988913511872,34.5,28.0,24.0,11.0,36.0,18.0,4.0,10.04987562112089,10.198039027185569,10.0,34.0,38.0,36.124783736376884,192.21082175569617,194.06442229321684,190.02368273454758,181.0
175,1,186,0,7.757749999999985,14.0,83.05419917138447,10.0,16.0,23.021728866442675,25.0,14.142135623730951,54.037024344425184,38.05259518088089,31.0,26.0,23.0,10.5,29.5,11.5,2.5,11.045361017187261,10.198039027185569,10.0,34.0,38.0,36.05551275463989,191.3164917094185,195.0922858546693,190.02368273454758,181.0
176,1,187,0,7.799458333333318,17.0,82.05485969764375,9.0,16.0,23.0,25.019992006393608,14.142135623730951,56.0357029044876,40.049968789001575,31.5,27.0,24.0,11.5,30.5,13.5,3.5,10.04987562112089,10.198039027185569,10.0,34.0,38.0,34.058772731852805,191.3164917094185,193.1657319505714,190.06577808748213,181.01104938649465
177,1,188,0,7.841166666666651,17.0,83.05419917138447,10.0,17.029386365926403,23.021728866442675,25.019992006393608,13.152946437965905,57.07889277132134,40.049968789001575,31.5,26.0,23.0,11.5,32.5,13.5,3.5,10.0,9.219544457292887,9.5,34.0,37.0,36.05551275463989,190.31815467789718,193.12690128513947,189.06612599828665,181.00276240985937
178,1,189,0,7.882874999999984,18.0,82.05485969764375,10.0,18.027756377319946,23.021728866442675,25.0,13.152946437965905,59.07622195096772,41.048751503547585,32.0,26.0,23.0,11.5,34.5,15.5,3.5,10.04987562112089,10.04987562112089,10.0,34.0,38.0,35.05709628591621,191.3765920900464,194.20865068271289,189.0952141118331,181.02486017119307
179,1,190,0,7.924583333333317,16.0,81.02468759581859,10.04987562112089,17.0,22.02271554554524,23.021728866442675,14.035668847618199,57.0350769263968,40.049968789001575,32.0,26.0,24.0,11.0,32.0,14.0,3.0,11.045361017187261,10.198039027185569,10.0,34.0,38.0,35.014282800023196,190.31815467789718,193.2097306038182,190.09471323527123,182.02472359545007
180,1,191,0,7.966291666666651,11.0,79.02531240052139,10.0,16.0,22.02271554554524,24.0,16.0312195418814,53.009433122794285,37.013511046643494,31.5,26.0,24.0,9.0,28.0,10.0,1.0,10.04987562112089,9.219544457292887,9.5,32.0,38.0,33.06055050963308,190.26297590440447,193.06475597581243,190.0026315607234,181.02486017119307
181,1,192,0,8.007999999999985,5.0,77.00649323271382,9.0,15.033296378372908,22.0,23.021728866442675,18.110770276274835,47.01063709417264,32.0624390837628,29.5,26.0,25.0,7.5,21.5,5.5,0.5,10.0,10.198039027185569,10.0,32.0,38.0,34.0147027033899,191.26160095534075,194.09276132818556,191.0026177831079,182.0109886792553
182,1,193,0,8.049708333333319,4.123105625617661,77.00649323271382,10.0,15.0,21.0,23.0,17.11724276862369,46.010868281309364,31.016124838541646,29.0,25.0,24.0,7.5,21.5,5.5,1.5,10.0,9.219544457292887,9.0,32.0,38.0,34.0147027033899,190.26297590440447,194.06442229321684,191.0026177831079,182.04395073717774
183,1,194,0,8.091416666666653,13.0,78.05767098754612,9.0,17.0,21.0,23.0,17.11724276862369,56.0357029044876,39.05124837953327,32.5,27.0,24.0,8.5,30.5,12.5,0.5,10.04987562112089,9.219544457292887,9.5,30.0,38.0,34.058772731852805,192.21082175569617,194.06442229321684,190.01052602421794,180.00277775634464
184,1,195,0,8.133124999999987,26.076809620810597,83.15046602394962,9.0,18.027756377319946,24.08318915758459,27.018512172212592,13.341664064126334,66.27216610312357,48.25971404805462,35.0,27.0,22.0,11.5,41.5,22.5,4.5,11.045361017187261,10.198039027185569,10.0,29.0,37.0,33.015148038438355,191.44189719076647,194.25756098540927,191.09421759959145,181.02486017119307
185,1,196,0,8.174833333333321,26.019223662515376,86.09297300012354,9.0,18.027756377319946,24.020824298928627,27.018512172212592,14.560219778561036,67.26812023536856,49.25444142409901,36.0,27.0,23.0,11.0,42.0,23.0,4.0,11.045361017187261,10.198039027185569,10.5,30.0,38.0,35.014282800023196,191.51240168720145,194.31160541768986,190.12890364171355,181.04419349981927
186,1,197,0,8.216541666666656,28.0178514522438,87.09190547921202,9.0,18.027756377319946,24.08318915758459,27.018512172212592,13.341664064126334,68.18357573492314,50.15974481593781,36.0,26.0,22.0,11.0,44.0,25.0,5.0,11.0,10.04987562112089,10.0,35.0,38.0,35.014282800023196,191.3765920900464,194.25756098540927,191.12822920751398,180.01111076819674
187,1,198,0,8.25824999999999,29.017236257093817,87.05170877128145,8.0,18.0,24.020824298928627,27.0,13.341664064126334,68.11754546370561,50.15974481593781,35.5,25.0,22.0,10.5,44.5,24.5,3.5,11.045361017187261,10.04987562112089,10.5,34.0,37.0,36.05551275463989,191.3164917094185,194.20865068271289,191.09421759959145,181.02486017119307
188,1,199,0,8.299958333333324,31.0,87.05170877128145,8.06225774829855,16.0312195418814,23.021728866442675,26.0,13.341664064126334,68.18357573492314,52.15361924162119,36.5,25.0,22.0,10.5,44.5,27.5,4.5,11.045361017187261,10.04987562112089,10.5,35.0,38.0,34.058772731852805,192.26024029944412,195.12560057562922,190.06577808748213,181.0
189,1,200,0,8.341666666666658,29.017236257093817,87.05170877128145,9.0,17.0,23.021728866442675,26.0,12.36931687685298,67.11929677819934,50.15974481593781,35.5,25.0,22.0,11.5,43.5,24.5,4.5,11.045361017187261,10.04987562112089,10.5,34.0,37.0,37.0,192.26024029944412,195.12560057562922,191.04188022525324,180.00277775634464
190,1,201,0,8.383374999999992,28.0178514522438,87.05170877128145,9.0,18.0,23.021728866442675,26.019223662515376,13.341664064126334,68.11754546370561,50.15974481593781,36.0,26.0,23.0,11.5,43.5,23.5,4.5,11.045361017187261,10.04987562112089,10.5,35.0,38.0,36.013886210738214,193.0932417253385,195.04102132628407,191.0026177831079,181.01104938649465
191,1,202,0,8.425083333333326,32.01562118716424,87.05170877128145,9.0,17.0,25.019992006393608,27.0,12.36931687685298,70.11419257183242,53.150729063673246,37.0,26.0,23.0,12.5,45.5,26.5,5.5,10.04987562112089,10.04987562112089,10.0,36.0,38.0,36.013886210738214,192.09372712298546,194.0412327316027,191.0026177831079,179.00279327429502
192,1,203,0,8.46679166666666,35.014282800023196,86.05230967266364,8.0,17.0,24.020824298928627,27.018512172212592,14.317821063276353,74.10802925459562,57.14017850864661,39.5,29.0,26.0,13.5,46.5,27.5,7.5,11.0,10.198039027185569,10.5,35.0,37.0,37.013511046643494,193.12690128513947,195.0640920313116,191.02355875650522,180.00277775634464
193,1,204,0,8.508499999999994,36.0,85.05292469985967,8.06225774829855,17.029386365926403,24.020824298928627,27.018512172212592,13.152946437965905,74.10802925459562,57.07889277132134,39.0,29.0,26.0,14.5,46.5,27.5,8.5,10.04987562112089,11.045361017187261,10.5,32.0,36.0,36.0,193.0932417253385,194.0412327316027,190.0026315607234,180.01111076819674
194,1,205,0,8.550208333333329,38.01315561749642,84.1486779456457,8.0,17.0,25.019992006393608,27.018512172212592,12.36931687685298,75.1065909225016,58.137767414994535,39.0,30.0,25.0,15.5,47.5,29.5,9.5,11.0,11.045361017187261,11.0,30.0,36.0,34.0147027033899,196.16319736382766,196.09181522949905,192.04166214652486,180.00277775634464
195,1,206,0,8.591916666666663,39.01281840626232,83.15046602394962,8.0,17.029386365926403,23.021728866442675,26.019223662515376,14.142135623730951,78.10249675906654,61.07372593840988,41.5,34.0,29.0,17.5,46.5,28.5,11.5,10.0,10.04987562112089,10.5,32.0,37.0,36.0,193.0932417253385,195.04102132628407,190.0026315607234,179.00279327429502
196,1,207,0,8.633624999999997,42.01190307520001,83.09632964216891,9.055385138137417,17.0,24.020824298928627,27.018512172212592,12.36931687685298,80.15609770940699,63.198101237299845,42.0,35.0,31.0,21.0,47.0,29.0,13.0,11.0,11.045361017187261,11.0,31.0,37.0,37.05401462729781,194.31160541768986,195.12560057562922,190.02368273454758,178.0028089666003
197,1,208,0,8.675333333333331,41.0,81.09870529176159,9.055385138137417,17.11724276862369,24.020824298928627,27.018512172212592,13.341664064126334,80.22468448052632,63.12685640834652,42.5,36.0,32.0,21.0,46.0,28.0,14.0,11.0,11.180339887498949,10.5,33.0,38.0,35.014282800023196,194.3707796969493,196.16319736382766,191.06543381784158,178.01123560045303
198,1,209,0,8.717041666666665,26.0,77.10382610480494,10.04987562112089,16.0312195418814,22.02271554554524,24.020824298928627,14.035668847618199,66.06814663663572,50.039984012787215,37.0,36.0,32.0,20.0,32.0,15.0,12.0,10.0,11.045361017187261,11.0,32.0,37.0,36.013886210738214,193.0932417253385,195.0230755577401,189.0,178.02527910383964
199,1,210,0,8.75875,19.0,74.00675644831355,9.0,15.0,21.02379604162864,23.0,14.035668847618199,57.0087712549569,42.01190307520001,32.5,33.0,32.0,18.5,24.5,8.5,10.5,11.045361017187261,10.0,10.0,33.0,37.0,36.013886210738214,195.0640920313116,196.0,189.02380802428036,179.10053042914194
200,1,211,0,8.800458333333333,20.024984394500787,74.0,9.0,17.0,21.02379604162864,23.0,14.142135623730951,60.00833275470999,43.01162633521314,33.0,33.0,33.0,19.0,27.0,9.0,11.0,10.04987562112089,11.045361017187261,11.0,34.0,37.0,36.013886210738214,193.02331465395574,194.0103090044444,188.04254837669055,179.13681921927719
201,1,212,0,8.842166666666667,23.0,76.0,9.0,16.0,22.0,24.0,13.038404810405298,61.00819617067857,45.0111097397076,33.5,32.0,32.0,19.0,29.0,12.0,11.0,10.04987562112089,10.04987562112089,10.0,34.0,36.0,36.0,194.0103090044444,196.04081207748553,190.16834647227702,179.22611416866684
202,1,213,0,8.883875000000002,25.0,76.0,9.0,15.0,22.0,24.020824298928627,14.0,63.0,48.0,35.5,33.0,33.0,19.0,30.0,13.0,11.0,10.04987562112089,11.045361017187261,11.0,36.0,35.0,38.0,193.04144632694815,195.1640335717624,188.32153355365392,178.4040358287895
203,1,214,0,8.925583333333336,13.0,74.00675644831355,11.0,17.029386365926403,19.0,21.02379604162864,17.0,58.008620049092706,41.0,34.5,33.0,34.0,16.5,24.5,5.5,6.5,11.045361017187261,11.0,11.0,36.0,34.0,35.0,192.09372712298546,194.164878389476,188.32153355365392,178.4040358287895
204,1,215,0,8.96729166666667,6.0,75.05997601918082,10.0,15.033296378372908,19.026297590440446,21.095023109728988,20.024984394500787,51.03920062069938,36.013886210738214,33.0,29.0,32.0,10.5,20.5,3.5,0.5,10.04987562112089,10.0,10.5,36.0,34.0,35.0,193.2097306038182,195.36888186197925,189.51780918953236,180.62391868188442
205,1,216,0,9.009000000000004,9.0,76.05918747922567,11.045361017187261,15.033296378372908,20.024984394500787,22.090722034374522,19.0,54.037024344425184,39.01281840626232,34.5,30.0,33.0,12.5,22.5,5.5,2.5,11.045361017187261,11.0,10.5,38.0,35.0,34.0147027033899,192.26024029944412,195.36888186197925,190.4442175546425,180.54362353736008
206,1,217,0,9.050708333333338,21.0,80.02499609497022,10.04987562112089,17.029386365926403,22.02271554554524,24.020824298928627,16.0312195418814,64.00781202322104,47.0,36.5,32.0,34.0,17.0,31.0,13.0,7.0,11.045361017187261,11.045361017187261,10.5,38.0,35.0,35.014282800023196,192.16659439142902,195.25624189766637,190.3785702225962,180.46883387443938
207,1,218,0,9.092416666666672,23.021728866442675,82.00609733428362,11.0,17.029386365926403,23.0,25.019992006393608,14.0,65.03076195155643,48.010415536631214,36.5,33.0,34.0,19.5,31.5,13.5,9.5,10.04987562112089,11.0,10.5,38.0,34.0,36.05551275463989,192.21082175569617,194.3707796969493,189.44656238633627,180.46883387443938
208,1,219,0,9.134125000000006,24.0,81.00617260431454,10.0,17.029386365926403,23.021728866442675,26.076809620810597,14.0,65.00769185258002,48.0,36.0,33.0,34.0,19.5,31.5,13.5,9.5,11.045361017187261,10.0,10.0,38.0,35.0,37.013511046643494,192.21082175569617,194.31160541768986,189.44656238633627,179.5466513193716
209,1,220,0,9.17583333333334,23.021728866442675,81.00617260431454,10.0,16.0312195418814,23.021728866442675,25.019992006393608,14.0,63.0317380372777,47.01063709417264,35.5,33.0,34.0,19.5,29.5,12.5,9.5,10.04987562112089,10.04987562112089,10.5,37.0,34.0,35.014282800023196,190.31815467789718,194.4350791395421,189.51780918953236,180.62391868188442
210,1,221,0,9.217541666666676,14.0,79.05694150420949,11.045361017187261,15.033296378372908,22.0,24.08318915758459,17.0,57.0350769263968,42.01190307520001,35.0,31.0,34.0,15.5,24.5,7.5,5.5,11.045361017187261,11.0,10.5,38.0,33.0,35.014282800023196,191.44189719076647,194.57903278616635,189.76301009416983,179.90275150758535
211,1,222,0,9.259250000000009,4.0,78.23042886243178,10.04987562112089,15.033296378372908,20.024984394500787,22.20360331117452,21.02379604162864,50.08991914547278,35.05709628591621,33.0,29.0,35.0,11.0,18.0,1.0,1.0,11.180339887498949,11.0,11.0,38.0,33.0,34.058772731852805,189.51780918953236,193.74725804511402,189.85520798756087,181.10770276274835
212,1,223,0,9.300958333333345,16.0,78.16009211867653,9.0,15.132745950421556,22.02271554554524,23.194827009486403,19.026297590440446,59.07622195096772,44.01136216933077,36.0,30.0,35.0,13.5,26.5,9.5,4.5,11.045361017187261,10.0,10.5,38.0,33.0,34.058772731852805,191.75505208468434,194.92819190666086,191.2694434560837,181.59295140505867
213,1,224,0,9.342666666666675,31.0,83.15046602394962,10.04987562112089,17.11724276862369,23.021728866442675,26.076809620810597,17.029386365926403,75.02666192761077,58.0,42.5,34.0,39.0,19.5,38.5,19.5,9.5,11.180339887498949,11.045361017187261,10.5,38.0,32.0,37.12142238654117,193.74725804511402,196.02295783912658,192.37983262286096,181.59295140505867
214,1,225,0,9.384375000000013,30.01666203960727,86.20904824900923,10.04987562112089,19.026297590440446,24.08318915758459,27.073972741361768,15.0,74.06078584514209,55.036351623268054,40.0,31.0,37.0,19.0,40.0,19.0,9.0,11.180339887498949,10.0,10.0,38.0,31.0,37.12142238654117,193.93297811357408,195.35864454894235,191.637678967368,182.01373574541017
215,1,226,0,9.426083333333343,27.073972741361768,88.36288813749809,10.0,16.0312195418814,25.079872407968907,27.16615541441225,14.035668847618199,67.11929677819934,51.088159097779204,37.5,28.0,36.0,18.0,35.0,17.0,8.0,10.198039027185569,10.04987562112089,10.0,39.0,31.0,36.124783736376884,192.04426573058618,194.48650338776724,190.77997798511248,181.02486017119307
216,1,227,0,9.46779166666668,27.073972741361768,87.36704184073076,9.055385138137417,15.033296378372908,24.08318915758459,26.1725046566048,14.0,65.12296062065974,50.08991914547278,36.5,26.0,34.0,16.0,35.0,17.0,7.0,9.219544457292887,10.04987562112089,9.5,40.0,31.0,38.118237105091836,192.37983262286096,195.73451407454945,192.0520762709948,181.33394607739612
217,1,228,0,9.509500000000012,26.019223662515376,87.46427842267951,10.04987562112089,15.132745950421556,24.186773244895647,27.16615541441225,13.038404810405298,64.19501538281614,49.09175083453431,36.0,25.0,34.0,16.5,34.5,16.5,6.5,9.486832980505138,10.0,9.5,42.0,31.0,36.22154055254967,194.61243536834948,196.01020381602586,193.3416664870767,182.64993840677855
218,1,229,0,9.551208333333348,22.02271554554524,84.5931439302264,10.04987562112089,15.297058540778355,23.194827009486403,25.317977802344327,14.035668847618199,61.29437168288782,46.09772228646444,35.0,25.0,35.0,16.0,31.0,13.0,6.0,9.486832980505138,9.055385138137417,9.5,41.0,29.0,36.22154055254967,191.9088325221119,194.17775361765828,191.68985366993215,181.8378398463862
219,1,230,0,9.592916666666682,20.09975124224178,80.75270893288967,9.055385138137417,15.132745950421556,23.194827009486403,25.317977802344327,14.142135623730951,58.42088667591412,43.289721643826724,33.0,25.0,36.0,16.5,27.5,10.5,6.5,10.198039027185569,10.04987562112089,10.0,44.0,28.0,34.36568055487916,193.6620768245554,195.1640335717624,191.41577782408638,181.4083790788066
220,1,231,0,9.634625000000016,14.142135623730951,78.91767862779544,9.055385138137417,14.142135623730951,21.213203435596427,23.194827009486403,16.1245154965971,53.46026561849464,39.319206502675,32.0,24.0,36.0,14.0,23.0,6.0,5.0,10.44030650891055,10.04987562112089,10.0,43.0,28.0,34.36568055487916,192.21342304844373,194.5507645834372,190.8219064992277,180.8258831030558
221,1,232,0,9.67633333333335,14.035668847618199,77.92945527847606,9.055385138137417,15.297058540778355,21.37755832643195,23.194827009486403,18.24828759089466,56.568542494923804,41.30375285612676,34.0,26.0,38.0,14.0,24.0,7.0,4.0,10.198039027185569,10.04987562112089,10.0,44.0,28.0,35.510561809129406,192.39802493788756,194.74342094150447,190.04473157654226,180.2692430782356
222,1,233,0,9.718041666666684,20.09975124224178,81.04936767180853,11.045361017187261,18.110770276274835,22.20360331117452,25.495097567963924,13.152946437965905,62.39390995922599,44.28317965096906,34.0,24.0,37.0,17.5,31.5,10.5,6.5,9.486832980505138,10.04987562112089,9.5,43.0,27.0,35.510561809129406,192.84449693989197,197.3119357768303,192.5876423865249,181.60396471443016
223,1,234,0,9.759750000000018,24.020824298928627,83.86298349093002,11.045361017187261,19.235384061671343,25.179356624028344,27.294688127912362,13.152946437965905,67.36467917239716,48.16637831516918,36.0,25.0,37.0,18.0,36.0,13.0,7.0,5.0,5.385164807134504,4.5,42.0,26.0,34.713109915419565,194.81529714065064,197.1319355152787,192.39802493788756,184.3529224069963
224,1,235,0,9.801458333333352,28.071337695236398,85.0,10.04987562112089,18.24828759089466,25.179356624028344,27.294688127912362,13.038404810405298,69.35416353759881,51.15662224971465,37.0,24.0,37.0,17.5,38.5,16.5,7.5,4.47213595499958,5.385164807134504,5.0,44.0,27.0,32.55764119219941,193.82982226685345,196.32880583347927,194.74342094150447,184.74306482247175
225,1,236,0,9.843166666666686,34.058772731852805,86.14522621712709,9.055385138137417,16.278820596099706,25.179356624028344,27.294688127912362,12.165525060596439,71.449282711585,55.226805085936306,38.0,22.0,36.0,17.0,42.0,23.0,8.0,7.615773105863909,8.246211251235321,8.0,43.0,26.0,34.713109915419565,194.18032856085088,196.32880583347927,193.56910910576616,183.56470248934025
226,1,237,0,9.88487500000002,44.04543109109048,85.0,8.06225774829855,16.1245154965971,25.317977802344327,27.294688127912362,12.041594578792296,80.22468448052632,64.1248781675256,42.0,24.0,37.0,18.5,49.5,28.5,9.5,10.44030650891055,10.198039027185569,10.0,43.0,27.0,33.54101966249684,194.81529714065064,197.3119357768303,194.18032856085088,182.3896926912264
227,1,238,0,9.926583333333356,45.044422518220834,83.86298349093002,8.06225774829855,16.1245154965971,25.179356624028344,28.442925306655784,10.0,79.1580697086532,63.071388124885914,40.5,23.0,35.0,19.0,50.0,29.0,11.0,10.44030650891055,10.04987562112089,10.0,44.0,29.0,34.36568055487916,195.3176899310454,197.60819821049935,193.82982226685345,181.8378398463862
228,1,239,0,9.968291666666689,38.01315561749642,82.60750571225353,8.06225774829855,16.1245154965971,23.194827009486403,26.30589287593181,14.0,76.10519036176179,60.03332407921454,41.0,27.0,37.0,18.0,44.0,25.0,10.0,10.44030650891055,10.04987562112089,10.0,43.0,28.0,36.49657518178932,194.32961688841976,196.6214637317096,193.0181338631166,180.42727066604982
229,1,240,0,10.010000000000025,24.020824298928627,78.31347265956222,8.06225774829855,14.035668847618199,24.08318915758459,26.1725046566048,13.038404810405298,59.135437767890075,45.09988913511872,33.0,26.0,33.0,16.5,29.5,12.5,8.5,9.219544457292887,10.0,10.5,41.0,30.0,34.23448553724738,193.75241933973368,196.1555505204989,190.53870997778904,177.9016582272352
230,1,241,0,10.051708333333355,17.0,80.15609770940699,8.06225774829855,14.035668847618199,23.021728866442675,25.179356624028344,14.0,53.03772242470448,39.01281840626232,30.5,26.0,31.0,14.5,24.5,8.5,6.5,10.198039027185569,10.0,10.5,37.0,31.0,34.058772731852805,193.93297811357408,196.23710148695125,190.51771571168914,179.61069010501575
231,1,242,0,10.093416666666691,17.0,81.05553651663777,8.0,14.035668847618199,23.021728866442675,25.019992006393608,14.0,53.009433122794285,39.0,30.5,26.0,29.0,13.5,25.5,9.5,5.5,10.198039027185569,10.0,10.5,39.0,34.0,35.12833614050059,192.50974001333023,195.65530915362353,190.9476368012969,180.1138528820035
232,1,243,0,10.135125000000023,19.026297590440446,83.02409288875127,9.0,16.0312195418814,24.020824298928627,26.076809620810597,13.152946437965905,57.0,41.012193308819754,31.5,25.0,27.0,13.0,31.0,13.0,5.0,10.198039027185569,10.04987562112089,10.5,38.0,34.0,34.058772731852805,193.1657319505714,196.25493624365222,192.37463450257678,181.46625030566977
233,1,244,0,10.17683333333336,25.0,87.0,9.0,16.0,25.019992006393608,27.018512172212592,13.152946437965905,63.0317380372777,47.042533945356304,34.5,24.0,24.0,11.0,39.0,21.0,3.0,10.04987562112089,10.04987562112089,10.0,36.0,35.0,35.014282800023196,195.0102561405425,196.09181522949905,192.21082175569617,182.33211456021672
234,1,245,0,10.218541666666694,26.0,89.0,8.0,15.0,24.0,27.0,13.152946437965905,62.03224967708329,47.042533945356304,34.0,22.0,22.0,9.0,40.0,23.0,2.0,10.198039027185569,10.04987562112089,10.0,37.0,35.0,35.0,194.0025773024678,195.04102132628407,192.09372712298546,183.22117781522965
235,1,246,0,10.260250000000028,26.0,90.0,8.0,15.0,24.0,27.018512172212592,13.152946437965905,62.03224967708329,47.042533945356304,34.0,22.0,22.0,9.0,40.0,23.0,3.0,11.045361017187261,10.04987562112089,10.0,36.0,36.0,36.0,194.0103090044444,196.0,194.02319448973105,185.13238506539042
236,1,247,0,10.301958333333362,25.0,90.00555538409837,8.0,15.0,25.0,27.0,13.152946437965905,61.032778078668514,46.04345773288535,33.5,21.0,20.0,7.5,40.5,23.5,1.5,9.055385138137417,10.04987562112089,9.5,37.0,37.0,35.0,192.06509313251067,196.0025510038071,193.01036241611484,183.06829326784035
237,1,248,0,10.343666666666696,25.0,88.0056816347672,9.0,15.0,24.020824298928627,27.0,12.165525060596439,61.032778078668514,46.04345773288535,33.5,21.0,20.0,8.5,40.5,23.5,1.5,10.198039027185569,10.04987562112089,10.0,37.0,37.0,32.0,193.06475597581243,196.01020381602586,193.00259065618783,183.04371062672436
238,1,249,0,10.38537500000003,24.0,88.02272433866155,7.0,15.0,23.0,26.0,14.142135623730951,60.03332407921454,45.044422518220834,33.0,23.0,21.0,8.0,38.0,22.0,2.0,10.198039027185569,10.04987562112089,10.0,36.0,37.0,34.0,192.09372712298546,195.0102561405425,192.00260414900626,183.04371062672436
239,1,250,0,10.427083333333364,20.0,78.00640999302557,8.0,17.0,22.0,24.0,13.152946437965905,58.034472514187634,41.048751503547585,31.0,26.0,25.0,12.5,32.5,14.5,6.5,10.04987562112089,10.198039027185569,10.0,35.0,36.0,34.0,193.04144632694815,194.0025773024678,190.01052602421794,179.0446871593793
240,1,251,0,10.468791666666698,22.02271554554524,78.02563681252464,8.0,17.0,23.0,25.0,12.165525060596439,59.00847396772772,42.01190307520001,31.0,26.0,24.0,13.0,34.0,16.0,7.0,10.04987562112089,10.198039027185569,10.0,35.0,36.0,36.0,192.04166214652486,194.0103090044444,187.00267377767625,177.02542190318317
241,1,252,0,10.510500000000032,24.020824298928627,75.02666192761077,8.0,16.0,23.0,25.019992006393608,11.180339887498949,59.00847396772772,43.01162633521314,31.0,27.0,25.0,15.0,33.0,15.0,8.0,11.180339887498949,10.04987562112089,10.0,35.0,37.0,36.013886210738214,191.09421759959145,194.0412327316027,187.0106948813356,177.00282483621552
242,1,253,0,10.552208333333366,26.0,77.05841939723393,9.055385138137417,17.0,24.0,26.019223662515376,11.40175425099138,63.0317380372777,46.04345773288535,33.0,28.0,25.0,15.5,36.5,18.5,7.5,11.045361017187261,11.180339887498949,11.0,34.0,36.0,36.013886210738214,191.09421759959145,193.02331465395574,187.00267377767625,176.0
243,1,254,0,10.5939166666667,34.0,77.00649323271382,8.0,16.0,23.0,26.0,12.165525060596439,70.02856560004639,54.037024344425184,37.0,29.0,28.0,16.5,41.5,23.5,9.5,11.045361017187261,10.198039027185569,10.0,35.0,37.0,36.013886210738214,191.06543381784158,193.02331465395574,188.0026595556563,177.01129907438113
244,1,255,0,10.635625000000037,33.0,81.00617260431454,8.0,17.0,24.0,27.0,11.40175425099138,69.06518659932803,52.08646657242167,35.5,26.0,25.0,14.5,43.5,24.5,7.5,11.180339887498949,10.198039027185569,10.5,36.0,37.0,36.0,192.09372712298546,193.02331465395574,189.0026454841307,178.01123560045303
245,1,256,0,10.677333333333369,29.017236257093817,82.00609733428362,8.0,18.0,24.0,27.0,12.36931687685298,67.02984409947557,49.040799340956916,34.5,26.0,25.0,13.5,41.5,21.5,6.5,10.04987562112089,10.198039027185569,10.5,36.0,37.0,37.0,192.06509313251067,194.02319448973105,190.0026315607234,180.00277775634464
246,1,257,0,10.719041666666705,27.0,82.05485969764375,8.0,17.0,24.0,27.018512172212592,11.180339887498949,63.0317380372777,46.04345773288535,32.5,25.0,22.0,12.5,39.5,21.5,5.5,11.045361017187261,10.04987562112089,10.5,36.0,37.0,36.013886210738214,194.09276132818556,196.02295783912658,191.0026177831079,181.01104938649465
247,1,258,0,10.760750000000035,28.0178514522438,81.02468759581859,7.0,16.0,24.0,27.0,13.341664064126334,64.03124237432849,48.041648597857254,34.0,26.0,24.0,12.0,39.0,21.0,6.0,11.180339887498949,10.04987562112089,10.5,35.0,37.0,34.0,194.09276132818556,196.02295783912658,191.0,182.00274723201295
248,1,259,0,10.802458333333371,24.020824298928627,80.02499609497022,8.0,16.0,24.020824298928627,25.0,13.152946437965905,61.00819617067857,45.0111097397076,33.0,26.0,24.0,12.0,36.0,19.0,6.0,11.045361017187261,11.180339887498949,10.5,36.0,37.0,34.0147027033899,194.02319448973105,195.0,192.01041638411183,181.06904760339356
249,1,260,0,10.844166666666704,16.0,76.02631123499285,9.0,16.0,22.0,24.0,15.033296378372908,56.00892785976178,40.01249804748511,32.0,28.0,26.0,12.0,29.0,12.0,4.0,11.045361017187261,11.180339887498949,10.5,36.0,37.0,32.0,192.01041638411183,194.0,190.02368273454758,181.0994202089007
250,1,261,0,10.88587500000004,8.06225774829855,77.00649323271382,10.0,16.0,21.0,23.0,17.11724276862369,51.0098029794274,35.014282800023196,31.0,27.0,26.0,9.5,24.5,7.5,0.5,11.180339887498949,11.180339887498949,10.5,35.0,36.0,33.015148038438355,191.02355875650522,194.0,189.01058171435798,181.06904760339356
251,1,262,0,10.927583333333374,4.123105625617661,76.0,11.0,17.0,21.02379604162864,23.021728866442675,17.029386365926403,49.0,32.0,30.0,26.0,26.0,9.0,23.0,5.0,1.0,11.180339887498949,11.180339887498949,10.5,36.0,37.0,34.0,193.04144632694815,194.0025773024678,189.0,181.01104938649465
252,1,263,0,10.969291666666708,6.082762530298219,76.0,10.0,17.0,20.0,21.0,18.110770276274835,51.0098029794274,34.0147027033899,31.0,27.0,27.0,9.0,24.0,6.0,0.0,11.045361017187261,11.045361017187261,11.5,37.0,38.0,34.0147027033899,192.00260414900626,194.0025773024678,189.02380802428036,179.06981878585793
253,1,264,0,11.011000000000042,7.0,75.0,10.0,17.029386365926403,19.0,22.02271554554524,19.026297590440446,53.0,36.013886210738214,32.5,28.0,28.0,9.0,25.0,7.0,0.0,12.165525060596439,11.180339887498949,11.0,36.0,37.0,34.0147027033899,193.01036241611484,194.0025773024678,189.01058171435798,179.0446871593793
254,1,265,0,11.052708333333376,14.035668847618199,74.00675644831355,9.0,17.0,20.0,22.0,18.110770276274835,58.077534382926416,41.10960958218893,34.0,30.0,29.0,11.5,28.5,10.5,2.5,11.045361017187261,11.045361017187261,11.0,36.0,36.0,36.0,193.01036241611484,195.00256408570633,189.01058171435798,178.04493814764857
255,1,266,0,11.09441666666671,16.0,74.02702209328699,10.0,17.0,21.0,23.0,17.029386365926403,60.00833275470999,43.01162633521314,35.0,32.0,30.0,14.0,29.0,11.0,4.0,11.045361017187261,10.04987562112089,10.0,36.0,36.0,37.0,192.01041638411183,195.04102132628407,190.09471323527123,179.10053042914194
256,1,267,0,11.136125000000044,18.0,73.0,10.0,17.029386365926403,20.0,22.02271554554524,17.029386365926403,62.03224967708329,45.0111097397076,36.0,33.0,33.0,16.0,29.0,10.0,6.0,11.045361017187261,11.045361017187261,11.5,37.0,36.0,36.0,192.02343606966312,196.09181522949905,191.12822920751398,180.22485955050706
257,1,268,0,11.177833333333378,19.026297590440446,72.00694410957877,9.0,17.0,20.024984394500787,22.0,17.0,62.00806399170998,45.0111097397076,35.5,33.0,32.0,15.5,29.5,10.5,6.5,11.045361017187261,11.045361017187261,11.5,35.0,35.0,35.014282800023196,193.04144632694815,195.12560057562922,190.21303845951255,179.3376703316958
258,1,269,0,11.219541666666712,17.029386365926403,71.0,11.0,17.0,19.0,22.0,17.0,62.00806399170998,45.0111097397076,36.5,35.0,35.0,18.0,27.0,8.0,8.0,11.045361017187261,11.045361017187261,11.5,35.0,34.0,35.014282800023196,192.06509313251067,195.12560057562922,189.2643653728826,177.28226081590904
259,1,270,0,11.261250000000048,12.041594578792296,70.00714249274856,11.045361017187261,17.0,20.0,22.02271554554524,18.027756377319946,58.008620049092706,41.012193308819754,35.0,34.0,33.0,15.5,24.5,6.5,5.5,11.045361017187261,11.045361017187261,11.0,35.0,35.0,36.013886210738214,192.12756179163884,194.20865068271289,188.26576959181932,178.4040358287895
260,1,271,0,11.30295833333338,9.055385138137417,70.00714249274856,11.0,18.0,19.0,21.0,20.024984394500787,58.034472514187634,40.049968789001575,35.5,34.0,33.0,13.5,24.5,6.5,3.5,12.041594578792296,11.045361017187261,11.5,36.0,36.0,35.0,192.01041638411183,195.0922858546693,189.16923639957952,179.22611416866684
261,1,272,0,11.344666666666717,10.04987562112089,72.02777242147643,11.0,17.0,20.0,22.0,19.026297590440446,57.0350769263968,40.049968789001575,35.0,34.0,32.0,14.0,24.0,6.0,4.0,11.045361017187261,11.045361017187261,11.0,35.0,37.0,35.014282800023196,192.01041638411183,194.0103090044444,189.04232330353963,180.0999722376436
262,1,273,0,11.386375000000047,14.035668847618199,75.02666192761077,11.0,18.0,21.02379604162864,23.0,16.0312195418814,59.033888572581766,41.048751503547585,34.0,35.0,33.0,18.0,25.0,6.0,8.0,11.045361017187261,11.045361017187261,11.0,34.0,37.0,35.014282800023196,191.02355875650522,194.0025773024678,190.01052602421794,180.0444389588304
263,1,274,0,11.428083333333385,17.0,75.1065909225016,11.0,18.027756377319946,22.02271554554524,24.0,14.035668847618199,60.03332407921454,42.01190307520001,33.5,36.0,32.0,20.0,26.0,8.0,10.0,10.0,11.180339887498949,10.5,33.0,38.0,36.013886210738214,191.12822920751398,194.06442229321684,189.01058171435798,180.0
264,1,275,0,11.469791666666715,20.024984394500787,76.10519036176179,9.0,17.0,23.021728866442675,24.08318915758459,14.035668847618199,60.03332407921454,43.04648650006177,33.0,36.0,32.0,20.0,26.0,9.0,12.0,11.0,11.045361017187261,10.5,30.0,38.0,35.014282800023196,193.3726971420733,194.20865068271289,189.12958520548815,177.0706073858674
265,1,276,0,11.511500000000051,19.0,76.23647421018367,10.04987562112089,18.027756377319946,22.090722034374522,24.08318915758459,14.142135623730951,61.1310068623117,43.104524124504614,33.5,36.0,30.0,19.0,28.0,10.0,11.0,11.0,11.180339887498949,11.0,30.0,39.0,34.132096331752024,192.66551326067673,193.43732835210477,188.26576959181932,178.1796845883391
266,1,277,0,11.553208333333384,20.024984394500787,79.51100552753688,10.04987562112089,17.029386365926403,23.08679276123039,25.079872407968907,14.142135623730951,61.204574992397426,44.181444068749045,34.0,36.0,27.0,17.5,29.5,12.5,9.5,11.0,10.44030650891055,10.0,26.0,40.0,33.37663853655727,193.03885619221847,193.93297811357408,188.76705220985997,179.62739212046696
267,1,278,0,11.59491666666672,20.0,80.50465825031493,10.198039027185569,17.11724276862369,23.08679276123039,26.1725046566048,15.132745950421556,62.289646009589745,45.17742799230607,35.0,37.0,28.0,17.5,29.5,12.5,9.5,11.0,11.180339887498949,10.5,29.0,41.0,35.12833614050059,193.14502323383846,193.93297811357408,190.85072700935672,181.70580618131055
268,1,279,0,11.636625000000054,23.021728866442675,83.72574275573791,10.04987562112089,19.1049731745428,24.08318915758459,26.1725046566048,15.297058540778355,67.36467917239716,48.25971404805462,36.5,37.0,26.0,16.5,35.5,16.5,8.5,10.04987562112089,10.198039027185569,10.0,27.0,41.0,35.35533905932738,192.62917743685665,193.3726971420733,188.95766721676048,179.71366113904642
269,1,280,0,11.678333333333388,20.024984394500787,83.86298349093002,10.04987562112089,19.1049731745428,24.186773244895647,26.1725046566048,15.297058540778355,64.38167441127949,45.27692569068709,35.0,37.0,25.0,16.0,33.0,14.0,8.0,9.0,9.219544457292887,9.0,26.0,40.0,34.132096331752024,192.62917743685665,193.3726971420733,189.06083676954358,180.8009955724802
270,1,281,0,11.720041666666722,22.090722034374522,84.8528137423857,10.0,16.0312195418814,23.194827009486403,26.1725046566048,14.560219778561036,62.39390995922599,46.389654018972806,35.0,35.0,23.0,15.0,33.0,18.0,8.0,8.06225774829855,8.246211251235321,8.0,26.0,40.0,35.22782990761707,193.75241933973368,194.36563482261982,189.06083676954358,180.8009955724802
271,1,282,0,11.761750000000056,22.02271554554524,82.87339742040264,10.04987562112089,15.033296378372908,24.186773244895647,26.1725046566048,15.297058540778355,62.289646009589745,47.265209192385896,36.0,36.0,24.0,15.0,32.0,17.0,8.0,8.0,7.280109889280518,7.0,27.0,40.0,34.23448553724738,191.38704240360684,193.14502323383846,187.77113729218343,180.7097119692243
272,1,283,0,11.80345833333339,21.02379604162864,80.75270893288967,10.04987562112089,16.0312195418814,23.194827009486403,25.179356624028344,15.297058540778355,62.289646009589745,46.2709412050371,35.5,37.0,26.0,16.5,30.5,14.5,9.5,9.0,9.219544457292887,9.0,24.0,40.0,34.23448553724738,193.75241933973368,192.50194804209124,187.18172987767795,176.91806012954132
273,1,284,0,11.845166666666724,17.029386365926403,75.8023746329889,10.04987562112089,17.11724276862369,22.090722034374522,23.194827009486403,15.297058540778355,59.413803110051795,42.2965719651132,33.5,38.0,27.0,17.5,26.5,10.5,9.5,9.055385138137417,10.198039027185569,9.5,24.0,40.0,33.24154027718932,192.7615106809448,192.50194804209124,187.0721785835617,177.91290003819284
274,1,285,0,11.886875000000058,14.035668847618199,72.83543093852057,10.04987562112089,17.11724276862369,20.223748416156685,22.20360331117452,17.26267650163207,58.42088667591412,41.30375285612676,34.0,39.0,28.0,16.5,24.5,7.5,8.5,10.04987562112089,9.219544457292887,9.5,27.0,42.0,35.510561809129406,190.51771571168914,191.2694434560837,185.87361297397757,176.63804799646084
275,1,286,0,11.928583333333393,10.198039027185569,69.58448102845921,10.0,17.029386365926403,19.1049731745428,22.20360331117452,20.396078054371138,57.42821606144492,40.44749683231337,35.0,38.0,29.0,13.5,23.5,6.5,5.5,10.0,9.219544457292887,9.5,26.0,41.0,33.24154027718932,191.2694434560837,192.15098230297966,185.9731163367437,177.81451009408653
276,1,287,0,11.970291666666729,11.045361017187261,70.45565981523414,9.055385138137417,17.029386365926403,19.1049731745428,21.213203435596427,19.4164878389476,56.43580423808985,39.45883931389772,33.5,36.0,28.0,13.0,24.0,7.0,6.0,10.0,9.219544457292887,9.5,29.0,41.0,35.35533905932738,191.2694434560837,192.04426573058618,187.8643127366132,177.63445611704955
277,1,288,0,12.01200000000006,17.029386365926403,73.55270219373317,9.055385138137417,18.110770276274835,20.223748416156685,23.194827009486403,19.4164878389476,63.50590523722971,45.39823785126467,36.5,37.0,28.0,13.5,30.5,12.5,6.5,10.0,10.198039027185569,10.5,31.0,41.0,36.22154055254967,190.85072700935672,192.75113488641253,186.60385848100785,177.47675904185314
278,1,289,0,12.053708333333397,20.09975124224178,74.54528824815154,10.0,18.027756377319946,21.095023109728988,23.08679276123039,16.278820596099706,64.28063471995279,46.2709412050371,36.0,37.0,28.0,16.5,31.5,13.5,8.5,11.0,10.198039027185569,10.0,31.0,41.0,33.13608305156178,190.67249408344142,192.50974001333023,187.3846311734236,178.22738285684386
279,1,290,0,12.095416666666727,17.029386365926403,74.43117626371358,10.04987562112089,16.0312195418814,21.095023109728988,23.08679276123039,17.26267650163207,60.29925372672534,44.28317965096906,35.5,36.0,28.0,15.0,28.0,11.0,7.0,10.04987562112089,9.219544457292887,10.0,30.0,39.0,35.12833614050059,189.59430371189953,191.44189719076647,186.26862323000083,177.18069872308325
280,1,291,0,12.137125000000063,13.038404810405298,73.24616030891995,9.0,15.033296378372908,20.024984394500787,22.02271554554524,17.26267650163207,54.230987451824994,39.20459156782532,32.5,33.0,27.0,13.0,24.0,8.0,5.0,10.0,10.198039027185569,10.0,31.0,40.0,34.132096331752024,191.51240168720145,192.31484602078956,187.17104476921637,178.07021087200408
281,1,292,0,12.178833333333396,10.04987562112089,73.33484846919642,10.0,15.033296378372908,21.095023109728988,21.095023109728988,16.278820596099706,51.24451190127583,36.22154055254967,31.0,33.0,26.0,13.5,21.5,5.5,5.5,11.0,10.198039027185569,10.0,32.0,41.0,35.12833614050059,190.51509126575775,191.3164917094185,186.17196351760379,176.0454486773231
282,1,293,0,12.220541666666731,10.198039027185569,73.24616030891995,11.0,16.0312195418814,21.095023109728988,22.090722034374522,16.278820596099706,53.33854141237835,37.33630940518894,32.0,33.0,27.0,14.0,23.0,6.0,5.0,11.0,11.180339887498949,11.0,31.0,40.0,35.22782990761707,189.67603960437387,192.43960091415696,186.21761463406193,177.1016657177453
283,1,294,0,12.262250000000066,12.165525060596439,73.24616030891995,9.0,16.0312195418814,21.095023109728988,22.02271554554524,17.26267650163207,54.3323108288245,38.3275357934736,32.0,32.0,26.0,12.0,25.0,8.0,5.0,11.045361017187261,11.180339887498949,11.0,31.0,40.0,35.22782990761707,191.84629264074925,192.5850461484484,187.32325002519042,178.1796845883391
284,1,295,0,12.3039583333334,18.027756377319946,78.23042886243178,9.0,16.1245154965971,22.02271554554524,24.0,15.524174696260024,58.42088667591412,42.2965719651132,33.0,31.0,25.0,13.0,30.0,13.0,5.0,11.045361017187261,10.198039027185569,10.5,30.0,39.0,36.05551275463989,193.6620768245554,193.31321734428818,189.0952141118331,180.00277775634464
285,1,296,0,12.345666666666734,24.08318915758459,80.15609770940699,9.0,16.0312195418814,22.02271554554524,24.0,16.278820596099706,65.27633568147036,49.25444142409901,37.0,31.0,26.0,12.5,36.5,19.5,5.5,11.045361017187261,11.045361017187261,11.0,33.0,39.0,36.05551275463989,193.31321734428818,194.09276132818556,190.01052602421794,180.02499826412998
286,1,297,0,12.387375000000068,23.0,80.09993757800315,9.055385138137417,17.029386365926403,23.021728866442675,26.0,15.297058540778355,64.19501538281614,47.16990566028302,35.5,30.0,26.0,13.0,36.0,18.0,6.0,11.0,11.045361017187261,11.0,34.0,39.0,36.05551275463989,193.2097306038182,194.0412327316027,190.0,180.06943105369106
287,1,298,0,12.429083333333402,21.02379604162864,82.05485969764375,10.0,17.0,22.02271554554524,26.0,14.317821063276353,62.12889826803627,45.17742799230607,34.5,29.0,26.0,13.5,34.5,16.5,5.5,11.045361017187261,11.045361017187261,11.0,33.0,37.0,36.013886210738214,194.12624758130983,195.0230755577401,190.0026315607234,180.06943105369106
288,1,299,0,12.470791666666736,19.026297590440446,79.05694150420949,9.0,17.0,22.0,25.0,15.297058540778355,60.13318551349163,43.18564576337837,33.5,29.0,26.0,12.5,32.5,13.5,4.5,11.045361017187261,10.04987562112089,10.5,34.0,37.0,35.014282800023196,193.02331465395574,194.0,190.02368273454758,179.17868176767013
289,1,300,0,12.51250000000007,21.0,76.00657866263946,8.0,16.0,22.02271554554524,24.0,16.1245154965971,61.032778078668514,45.044422518220834,34.5,31.0,30.0,14.5,30.5,12.5,7.5,11.045361017187261,11.180339887498949,10.5,35.0,36.0,35.014282800023196,193.01036241611484,195.00256408570633,190.06577808748213,180.13605968822566
290,1,301,0,12.554208333333404,19.0,75.0066663703967,9.0,16.0,22.02271554554524,25.019992006393608,15.132745950421556,59.033888572581766,43.04648650006177,33.5,30.0,29.0,14.5,29.5,11.5,6.5,11.045361017187261,10.04987562112089,10.5,35.0,37.0,36.013886210738214,192.01041638411183,195.0102561405425,189.0952141118331,179.17868176767013
291,1,302,0,12.59591666666674,14.0,74.00675644831355,10.0,18.0,21.0,23.021728866442675,16.1245154965971,58.034472514187634,40.049968789001575,33.0,31.0,30.0,14.5,27.5,8.5,5.5,11.045361017187261,11.045361017187261,11.0,36.0,37.0,34.0147027033899,192.02343606966312,194.0025773024678,190.04210059878838,180.13605968822566
292,1,303,0,12.637625000000073,11.0,75.0,10.0,17.0,20.0,22.02271554554524,16.1245154965971,54.037024344425184,37.05401462729781,31.5,29.0,29.0,13.0,25.0,7.0,4.0,11.045361017187261,11.045361017187261,11.0,36.0,37.0,35.0,192.0,194.0412327316027,188.17013578142522,178.33956375409244
293,1,304,0,12.679333333333409,9.0,75.0066663703967,10.0,16.0,21.02379604162864,23.021728866442675,16.1245154965971,51.03920062069938,35.05709628591621,30.5,28.0,29.0,12.5,22.5,5.5,2.5,11.045361017187261,11.045361017187261,11.0,37.0,37.0,33.015148038438355,193.01036241611484,194.0103090044444,188.09572031282372,177.22866585290316
294,1,305,0,12.72104166666674,12.0,77.0,10.0,16.0,21.0,23.021728866442675,16.1245154965971,54.037024344425184,38.05259518088089,32.0,28.0,28.0,12.0,26.0,8.0,3.0,10.198039027185569,10.04987562112089,10.5,37.0,37.0,33.015148038438355,192.00260414900626,195.04102132628407,190.16834647227702,179.3376703316958
295,1,306,0,12.762750000000077,23.0,80.0,8.0,15.0,22.0,24.020824298928627,15.132745950421556,61.032778078668514,46.04345773288535,34.5,26.0,26.0,11.0,35.0,18.0,4.0,11.045361017187261,11.180339887498949,11.0,33.0,35.0,31.0,193.00259065618783,195.0230755577401,190.12890364171355,180.27756377319946
296,1,307,0,12.80445833333341,23.0,82.00609733428362,8.0,15.0,23.0,25.019992006393608,14.142135623730951,60.03332407921454,45.044422518220834,33.5,24.0,25.0,10.5,35.5,18.5,3.5,10.04987562112089,10.04987562112089,10.0,35.0,36.0,32.0,193.00259065618783,195.0230755577401,190.12890364171355,180.27756377319946
297,1,308,0,12.846166666666743,20.0,83.0,9.0,16.0,23.0,26.019223662515376,13.152946437965905,58.034472514187634,42.04759208325728,32.0,23.0,23.0,10.0,35.0,17.0,3.0,11.045361017187261,11.045361017187261,11.0,36.0,36.0,33.0,193.01036241611484,195.0102561405425,190.06577808748213,181.13530854032848
298,1,309,0,12.887875000000076,21.0,84.0,8.0,15.0,24.0,26.019223662515376,13.152946437965905,57.0350769263968,42.04759208325728,31.5,22.0,22.0,9.0,35.0,18.0,2.0,10.04987562112089,10.198039027185569,10.0,35.0,35.0,35.014282800023196,193.00259065618783,195.0102561405425,191.09421759959145,181.22361876973983
299,1,310,0,12.929583333333412,20.0,85.00588214941364,9.0,16.0,24.0,26.019223662515376,14.142135623730951,59.033888572581766,43.04648650006177,33.0,24.0,23.0,9.5,35.5,17.5,2.5,11.045361017187261,10.04987562112089,10.5,35.0,35.0,36.013886210738214,193.00259065618783,194.02319448973105,190.12890364171355,180.22485955050706
300,1,311,0,12.971291666666746,23.0,85.00588214941364,8.0,16.0,25.0,27.0,14.142135623730951,61.032778078668514,45.044422518220834,33.5,24.0,23.0,9.5,37.5,19.5,2.5,11.045361017187261,10.04987562112089,10.0,35.0,35.0,34.0,193.01036241611484,195.00256408570633,190.06577808748213,180.17769007288334
301,1,312,0,13.01300000000008,19.0,83.00602387778854,9.0,17.0,23.0,26.0,14.035668847618199,59.00847396772772,42.01190307520001,32.5,24.0,23.0,9.5,35.5,16.5,2.5,11.045361017187261,10.04987562112089,10.5,33.0,35.0,34.0,194.0025773024678,195.00256408570633,190.06577808748213,180.17769007288334
302,1,313,0,13.054708333333414,25.0,81.02468759581859,9.0,17.0,23.021728866442675,26.0,13.152946437965905,64.03124237432849,47.042533945356304,34.5,27.0,25.0,13.0,38.0,19.0,6.0,11.045361017187261,11.045361017187261,11.0,35.0,36.0,34.0147027033899,192.01041638411183,194.0103090044444,189.06612599828665,179.17868176767013
303,1,314,0,13.096416666666748,23.021728866442675,75.02666192761077,8.0,17.0,22.0,24.0,14.142135623730951,62.00806399170998,45.0111097397076,33.5,30.0,28.0,15.0,33.0,15.0,8.0,11.045361017187261,11.045361017187261,10.5,36.0,37.0,34.0147027033899,193.04144632694815,195.00256408570633,190.06577808748213,181.1767093199344
304,1,315,0,13.138125000000082,17.0,72.00694410957877,9.055385138137417,16.0,20.024984394500787,23.021728866442675,16.0312195418814,58.0,42.0,33.5,31.0,30.0,14.5,27.5,9.5,5.5,10.04987562112089,10.04987562112089,10.0,36.0,37.0,35.014282800023196,192.00260414900626,195.04102132628407,190.12890364171355,179.3376703316958
305,1,316,0,13.179833333333416,13.0,71.0,9.055385138137417,18.0,20.024984394500787,22.02271554554524,17.029386365926403,57.0,39.0,32.5,31.0,31.0,14.0,26.0,6.0,5.0,7.0710678118654755,7.0,7.5,35.0,36.0,32.0,192.0,195.0640920313116,190.21303845951255,180.3995565404749
306,1,317,0,13.22154166666675,9.0,71.00704190430693,10.0,18.0,20.024984394500787,22.0,20.09975124224178,57.0350769263968,39.05124837953327,34.5,33.0,32.0,12.5,24.5,5.5,4.5,4.0,4.0,4.0,35.0,37.0,33.0,193.00259065618783,195.0230755577401,190.06577808748213,180.13605968822566
307,1,318,0,13.263250000000085,9.0,71.00704190430693,10.0,17.0,20.0,22.0,20.024984394500787,56.00892785976178,39.01281840626232,34.5,33.0,32.0,12.5,23.5,5.5,3.5,4.0,4.123105625617661,4.5,35.0,38.0,33.015148038438355,191.0026177831079,194.02319448973105,189.0952141118331,179.13681921927719
308,1,319,0,13.30495833333342,11.0,72.00694410957877,10.0,16.0,19.0,21.0,20.09975124224178,57.0350769263968,41.048751503547585,35.5,33.0,32.0,12.5,24.5,7.5,3.5,8.0,8.0,8.0,34.0,36.0,36.05551275463989,194.0412327316027,194.0,188.01063799689632,179.0446871593793
309,1,320,0,13.346666666666753,10.0,72.06247289678588,11.0,17.029386365926403,19.026297590440446,22.0,20.09975124224178,58.077534382926416,41.048751503547585,36.0,35.0,32.0,13.5,24.5,5.5,4.5,9.0,9.055385138137417,9.0,33.0,37.0,33.06055050963308,192.06509313251067,194.0025773024678,190.0026315607234,179.0111728356641
310,1,321,0,13.388375000000089,11.0,73.10950690573696,10.04987562112089,17.029386365926403,20.024984394500787,22.02271554554524,19.1049731745428,57.14017850864661,40.11234224026316,34.5,34.0,30.0,13.0,25.0,7.0,5.0,10.0,10.04987562112089,10.0,33.0,38.0,34.058772731852805,193.1657319505714,194.06442229321684,189.02380802428036,180.0
311,1,322,0,13.43008333333342,11.045361017187261,73.17103251970687,11.045361017187261,18.027756377319946,21.02379604162864,22.02271554554524,19.1049731745428,59.21148537234985,41.19465984809196,35.5,36.0,31.0,14.5,25.5,7.5,5.5,10.04987562112089,10.198039027185569,10.0,32.0,38.0,34.058772731852805,192.21082175569617,194.09276132818556,190.04210059878838,181.02486017119307
312,1,323,0,13.471791666666755,11.045361017187261,74.10802925459562,10.04987562112089,17.0,20.09975124224178,22.02271554554524,19.1049731745428,57.14017850864661,40.19950248448356,34.5,33.0,29.0,12.0,26.0,8.0,4.0,10.0,10.44030650891055,10.0,32.0,40.0,35.22782990761707,192.50974001333023,195.36888186197925,190.26297590440447,181.22361876973983
313,1,324,0,13.51350000000009,9.055385138137417,74.24284477308234,10.0,17.029386365926403,20.024984394500787,21.02379604162864,19.235384061671343,55.226805085936306,38.2099463490856,33.5,33.0,27.0,11.0,25.0,7.0,2.0,10.0,10.44030650891055,10.0,31.0,40.0,35.22782990761707,192.84190415985836,194.65867563507155,189.44656238633627,180.46883387443938
314,1,325,0,13.555208333333423,9.055385138137417,75.23961722390672,10.04987562112089,17.029386365926403,20.09975124224178,21.095023109728988,20.223748416156685,56.32051136131489,39.319206502675,34.5,33.0,27.0,10.0,26.0,9.0,2.0,10.0,9.486832980505138,9.5,32.0,41.0,35.12833614050059,190.9476368012969,193.74725804511402,189.51780918953236,181.39735389470266
315,1,326,0,13.596916666666758,9.0,76.23647421018367,10.04987562112089,17.11724276862369,19.026297590440446,22.090722034374522,20.396078054371138,56.43580423808985,39.319206502675,34.5,32.0,26.0,9.0,27.0,10.0,1.0,11.0,10.44030650891055,10.0,32.0,42.0,33.24154027718932,191.15700353374447,193.93297811357408,189.67603960437387,181.54062906137568
316,1,327,0,13.638625000000092,15.033296378372908,79.51100552753688,9.055385138137417,18.110770276274835,21.095023109728988,24.08318915758459,17.26267650163207,59.413803110051795,41.30375285612676,33.5,31.0,22.0,9.5,32.5,14.5,2.5,11.0,10.198039027185569,10.5,32.0,42.0,33.24154027718932,193.3726971420733,195.92345444075858,191.66898549321954,182.3951753747889
317,1,328,0,13.680333333333426,17.029386365926403,80.39900496896712,10.04987562112089,18.027756377319946,22.090722034374522,25.019992006393608,14.560219778561036,59.413803110051795,41.43669871020132,32.5,30.0,22.0,12.0,33.0,14.0,4.0,10.0,10.198039027185569,10.0,31.0,41.0,37.12142238654117,195.13328778042973,196.65197685250968,192.31484602078956,182.13456563760764
318,1,329,0,13.72204166666676,18.027756377319946,83.2946576918352,9.055385138137417,18.027756377319946,23.08679276123039,25.019992006393608,14.560219778561036,59.413803110051795,41.43669871020132,32.0,27.0,20.0,9.5,35.5,16.5,2.5,10.04987562112089,10.198039027185569,10.5,32.0,40.0,36.124783736376884,194.1391253714717,194.74342094150447,191.3164917094185,182.0988742414406
319,1,330,0,13.763750000000094,16.0312195418814,84.38009243891595,10.04987562112089,18.027756377319946,24.08318915758459,25.079872407968907,14.560219778561036,58.42088667591412,40.44749683231337,32.0,27.0,19.0,9.0,35.0,16.0,2.0,10.0,9.486832980505138,9.5,31.0,40.0,36.05551275463989,193.03885619221847,195.65530915362353,192.26024029944412,183.04371062672436
320,1,331,0,13.805458333333428,17.029386365926403,85.28774824088158,9.055385138137417,17.029386365926403,24.08318915758459,25.019992006393608,13.601470508735444,56.43580423808985,39.45883931389772,30.5,25.0,18.0,8.5,34.5,16.5,1.5,11.0,10.198039027185569,10.5,30.0,39.0,36.124783736376884,193.03885619221847,195.57607215607945,192.26024029944412,182.04395073717774
321,1,332,0,13.847166666666762,16.1245154965971,85.21150157109074,9.0,17.029386365926403,23.08679276123039,26.0,14.560219778561036,56.43580423808985,39.45883931389772,31.0,24.0,18.0,7.0,35.0,17.0,1.0,10.04987562112089,10.198039027185569,10.5,31.0,39.0,36.05551275463989,192.75113488641253,195.36888186197925,190.12890364171355,180.01111076819674
322,1,333,0,13.888875000000096,16.0,83.09632964216891,9.055385138137417,17.029386365926403,24.020824298928627,25.019992006393608,13.341664064126334,55.226805085936306,38.2099463490856,30.0,23.0,19.0,8.0,34.0,16.0,1.0,11.045361017187261,10.198039027185569,10.0,32.0,38.0,36.05551275463989,192.5850461484484,195.25624189766637,190.04210059878838,181.00276240985937
323,1,334,0,13.93058333333343,16.0312195418814,80.09993757800315,9.0,17.029386365926403,23.021728866442675,25.019992006393608,13.341664064126334,55.226805085936306,38.2099463490856,30.0,25.0,21.0,10.0,32.0,14.0,3.0,11.045361017187261,10.198039027185569,10.5,32.0,37.0,35.014282800023196,192.50974001333023,194.20865068271289,189.04232330353963,179.00279327429502
324,1,335,0,13.972291666666765,16.0312195418814,75.1065909225016,8.0,17.0,21.02379604162864,23.021728866442675,15.297058540778355,56.142675390472796,39.20459156782532,31.0,28.0,24.0,11.0,30.0,12.0,4.0,12.041594578792296,11.180339887498949,11.0,33.0,38.0,35.014282800023196,191.51240168720145,193.2097306038182,189.04232330353963,179.0
325,1,336,0,14.0140000000001,14.0,71.11258679024411,8.0,18.027756377319946,20.024984394500787,22.02271554554524,15.297058540778355,55.14526271584895,37.12142238654117,30.0,28.0,24.0,11.0,29.0,11.0,4.0,11.180339887498949,10.198039027185569,10.0,33.0,39.0,35.014282800023196,191.44189719076647,193.2097306038182,188.06647760831805,178.0
326,1,337,0,14.055708333333431,16.0312195418814,71.11258679024411,8.0,17.029386365926403,19.026297590440446,21.02379604162864,15.132745950421556,56.142675390472796,39.11521443121589,31.0,29.0,25.0,12.0,29.0,11.0,5.0,12.165525060596439,10.198039027185569,10.5,33.0,39.0,34.0147027033899,191.44189719076647,193.1657319505714,187.04277585621958,177.0
327,1,338,0,14.097416666666769,14.0,70.11419257183242,9.0,18.027756377319946,19.026297590440446,22.02271554554524,15.297058540778355,56.142675390472796,38.118237105091836,31.0,29.0,25.0,12.0,29.0,11.0,5.0,12.041594578792296,11.180339887498949,11.0,33.0,38.0,33.06055050963308,192.37463450257678,193.2097306038182,187.04277585621958,176.0
328,1,339,0,14.1391250000001,15.0,71.11258679024411,8.06225774829855,18.027756377319946,20.024984394500787,22.02271554554524,16.1245154965971,57.14017850864661,39.11521443121589,31.5,30.0,26.0,12.0,29.0,10.0,6.0,11.180339887498949,11.40175425099138,11.0,33.0,38.0,33.06055050963308,191.51240168720145,194.25756098540927,188.09572031282372,178.02527910383964
329,1,340,0,14.180833333333435,17.029386365926403,72.06247289678588,8.0,17.0,19.026297590440446,21.02379604162864,16.278820596099706,58.137767414994535,41.19465984809196,32.5,30.0,27.0,12.5,29.5,11.5,6.5,12.041594578792296,11.180339887498949,11.0,33.0,38.0,33.06055050963308,192.37463450257678,194.164878389476,188.04254837669055,178.0
330,1,341,0,14.22254166666677,17.029386365926403,71.11258679024411,9.0,18.0,20.0,23.021728866442675,14.317821063276353,58.137767414994535,40.19950248448356,31.5,31.0,27.0,15.0,29.0,10.0,7.0,12.041594578792296,11.045361017187261,11.0,32.0,38.0,33.015148038438355,191.51240168720145,193.2097306038182,188.09572031282372,178.01123560045303
331,1,342,0,14.264250000000104,16.0,70.11419257183242,8.0,18.027756377319946,20.0,22.02271554554524,16.278820596099706,58.137767414994535,40.11234224026316,32.0,31.0,27.0,13.0,29.0,11.0,6.0,12.041594578792296,11.180339887498949,11.0,32.0,38.0,34.058772731852805,192.43960091415696,193.1657319505714,188.06647760831805,178.0028089666003
332,1,343,0,14.305958333333438,9.0,65.12296062065974,8.0,18.027756377319946,17.029386365926403,19.026297590440446,20.223748416156685,55.14526271584895,37.12142238654117,32.5,31.0,27.0,9.0,26.0,7.0,3.0,11.045361017187261,11.180339887498949,11.0,32.0,38.0,35.05709628591621,192.37463450257678,193.1657319505714,188.0239346466295,178.0
333,1,344,0,14.347666666666772,7.0710678118654755,64.07027391856539,8.0,17.0,16.0312195418814,19.026297590440446,21.095023109728988,53.08483775994799,36.124783736376884,32.5,29.0,26.0,6.5,25.5,7.5,0.5,12.041594578792296,11.180339887498949,11.5,33.0,38.0,35.05709628591621,190.4442175546425,193.2097306038182,187.04277585621958,177.0
334,1,345,0,14.389375000000106,11.045361017187261,65.12296062065974,8.0,18.0,17.029386365926403,19.026297590440446,22.20360331117452,59.135437767890075,41.19465984809196,35.5,31.0,27.0,7.0,30.0,11.0,1.0,12.041594578792296,11.180339887498949,11.5,32.0,38.0,35.05709628591621,190.4442175546425,192.16659439142902,187.0240626229684,176.00284088616297
335,1,346,0,14.43108333333344,24.020824298928627,70.34912934784623,8.06225774829855,17.11724276862369,20.09975124224178,23.08679276123039,20.396078054371138,69.46221994724903,52.3450093132096,40.0,36.0,29.0,12.5,36.5,18.5,6.5,11.045361017187261,10.198039027185569,10.0,31.0,39.0,33.13608305156178,191.66898549321954,193.3726971420733,189.16923639957952,179.0446871593793
336,1,347,0,14.472791666666774,28.0178514522438,78.5175139698144,9.055385138137417,18.110770276274835,21.095023109728988,25.079872407968907,16.492422502470642,71.449282711585,53.33854141237835,39.0,35.0,26.0,14.5,40.5,22.5,7.5,11.0,10.198039027185569,10.0,30.0,40.0,33.13608305156178,192.04426573058618,193.6620768245554,190.3785702225962,178.1796845883391
337,1,348,0,14.514500000000108,26.019223662515376,80.50465825031493,9.055385138137417,17.029386365926403,23.194827009486403,25.079872407968907,15.524174696260024,67.36467917239716,50.35871324805669,37.0,34.0,25.0,14.5,37.5,19.5,7.5,9.055385138137417,10.44030650891055,9.5,30.0,41.0,33.24154027718932,191.38704240360684,193.03885619221847,188.67962264113208,179.3376703316958
338,1,349,0,14.556208333333442,21.095023109728988,76.6550715869472,9.055385138137417,17.029386365926403,21.213203435596427,24.08318915758459,16.492422502470642,63.50590523722971,46.52956049652737,35.5,35.0,25.0,14.0,33.0,16.0,8.0,10.0,10.198039027185569,10.0,29.0,41.0,33.24154027718932,192.89893727027115,194.36563482261982,188.85973631242842,179.5466513193716
339,1,350,0,14.597916666666777,18.110770276274835,74.67261881037788,9.0,17.11724276862369,21.213203435596427,23.08679276123039,15.811388300841896,59.682493245507096,42.579337712087536,33.0,34.0,24.0,14.0,30.0,12.0,8.0,10.04987562112089,10.44030650891055,10.0,26.0,42.0,36.22154055254967,193.18902660347973,193.62076334938874,187.18172987767795,177.81451009408653
340,1,351,0,14.63962500000011,13.038404810405298,72.69112738154499,9.055385138137417,17.029386365926403,19.1049731745428,21.095023109728988,16.492422502470642,55.44366510251645,38.47076812334269,31.5,33.0,23.0,12.0,27.0,10.0,5.0,10.0,10.44030650891055,10.0,28.0,42.0,34.36568055487916,193.3416664870767,193.75241933973368,188.28967045486058,177.91290003819284
341,1,352,0,14.681333333333445,10.04987562112089,71.84705978674423,8.06225774829855,16.1245154965971,18.110770276274835,20.223748416156685,21.37755832643195,55.57877292636101,39.45883931389772,34.0,34.0,23.0,7.5,26.5,10.5,2.5,10.0,9.486832980505138,10.0,28.0,43.0,33.37663853655727,192.5123372669918,193.04144632694815,187.5419952970534,178.24140933015536
342,1,353,0,14.72304166666678,7.0710678118654755,70.8590149522275,8.06225774829855,15.132745950421556,18.24828759089466,20.223748416156685,22.561028345356956,52.773099207835045,37.656340767525464,33.5,33.0,22.0,5.5,24.5,9.5,0.5,11.0,11.40175425099138,11.0,27.0,43.0,34.52535300326414,192.35384061671346,192.89893727027115,186.4242473499625,177.02259742756007
343,1,354,0,14.764750000000111,8.246211251235321,68.8839603971781,8.06225774829855,15.033296378372908,18.24828759089466,20.223748416156685,22.561028345356956,53.75872022286245,38.8329756778952,34.0,34.0,23.0,6.5,24.5,9.5,1.5,10.0,10.44030650891055,10.0,27.0,43.0,35.510561809129406,191.52545522723605,192.20041623263984,186.5502613238588,176.2554963681984
344,1,355,0,14.806458333333447,11.180339887498949,68.8839603971781,8.06225774829855,17.029386365926403,18.24828759089466,20.223748416156685,19.4164878389476,55.57877292636101,38.63935817272331,32.5,34.0,23.0,9.5,26.5,10.5,4.5,5.0,5.385164807134504,5.0,27.0,43.0,33.54101966249684,193.18902660347973,191.9088325221119,185.55861607589122,176.2554963681984
345,1,356,0,14.84816666666678,14.035668847618199,69.87131027825369,8.06225774829855,17.11724276862369,19.235384061671343,21.213203435596427,18.681541692269406,57.706152185014034,40.607881008493905,33.0,35.0,24.0,11.5,27.5,9.5,6.5,5.0,5.385164807134504,5.0,28.0,43.0,33.37663853655727,193.18902660347973,191.7706964058899,185.43192821086663,175.1456536714514
346,1,357,0,14.889875000000115,19.1049731745428,67.60177512462228,7.0,16.0312195418814,19.235384061671343,22.090722034374522,17.72004514666935,59.53990258641679,43.56604182158393,33.5,35.0,26.0,13.5,28.5,12.5,8.5,6.0,6.324555320336759,6.0,27.0,42.0,35.35533905932738,193.3416664870767,193.04144632694815,185.55861607589122,176.2554963681984
347,1,358,0,14.93158333333345,27.073972741361768,70.8590149522275,8.06225774829855,18.110770276274835,21.213203435596427,24.186773244895647,15.811388300841896,68.73136110975832,50.635955604688654,36.5,37.0,26.0,16.5,36.5,18.5,10.5,10.04987562112089,9.486832980505138,9.5,28.0,42.0,35.35533905932738,192.5123372669918,192.89893727027115,186.30351580150065,174.92855684535903
348,1,359,0,14.973291666666784,37.05401462729781,76.79192665899195,7.0710678118654755,18.24828759089466,22.20360331117452,25.179356624028344,15.811388300841896,77.78174593052023,59.53990258641679,40.5,36.0,25.0,15.5,46.5,28.5,10.5,11.0,11.40175425099138,11.0,29.0,42.0,35.35533905932738,191.36614120580475,193.62076334938874,189.16923639957952,177.63445611704955
349,1,360,0,15.015000000000118,39.05124837953327,82.60750571225353,7.0710678118654755,17.11724276862369,24.186773244895647,27.16615541441225,14.866068747318506,77.64663547121665,60.530983801686226,40.5,33.0,23.0,14.0,49.0,32.0,9.0,10.0,10.44030650891055,10.5,28.0,41.0,34.132096331752024,191.21192431435858,193.75241933973368,189.16923639957952,178.63090438107287
350,1,361,0,15.056708333333452,31.016124838541646,82.73451516749222,8.246211251235321,17.11724276862369,23.194827009486403,26.30589287593181,13.92838827718412,69.72087205421343,52.61178575186362,36.5,31.0,20.0,12.5,43.5,26.5,7.5,11.0,10.44030650891055,10.0,28.0,40.0,34.23448553724738,190.77997798511248,191.38704240360684,187.8643127366132,177.63445611704955
351,1,362,0,15.098416666666786,23.021728866442675,80.62257748298549,8.0,16.1245154965971,23.194827009486403,25.179356624028344,15.811388300841896,62.51399843235114,46.389654018972806,34.5,32.0,22.0,12.0,35.0,19.0,7.0,11.0,10.44030650891055,10.5,29.0,41.0,36.22154055254967,191.7706964058899,192.26284092356485,186.86893802876924,177.47675904185314
352,1,363,0,15.14012500000012,21.02379604162864,77.64663547121665,8.0,17.029386365926403,23.08679276123039,25.179356624028344,13.92838827718412,59.413803110051795,42.42640687119285,31.5,32.0,22.0,14.0,32.0,15.0,8.0,11.045361017187261,10.44030650891055,10.5,28.0,40.0,36.22154055254967,191.637678967368,192.26284092356485,185.87361297397757,175.4821928287882
353,1,364,0,15.181833333333454,20.0,75.66372975210778,9.055385138137417,17.11724276862369,23.194827009486403,24.186773244895647,13.601470508735444,59.413803110051795,42.2965719651132,32.0,33.0,23.0,15.0,31.0,14.0,9.0,11.0,10.198039027185569,10.5,28.0,40.0,35.22782990761707,190.51771571168914,192.15098230297966,185.77943912069495,175.4821928287882
354,1,365,0,15.223541666666788,20.024984394500787,76.6550715869472,8.06225774829855,16.0312195418814,22.090722034374522,24.186773244895647,14.560219778561036,58.42088667591412,42.42640687119285,32.0,32.0,22.0,13.0,31.0,15.0,7.0,11.045361017187261,10.198039027185569,10.5,29.0,41.0,36.22154055254967,190.2761151589973,190.9476368012969,185.60711193270586,175.34537347760278
355,1,366,0,15.265250000000124,18.0,75.4254598925323,9.055385138137417,17.11724276862369,22.090722034374522,25.179356624028344,14.560219778561036,58.42088667591412,41.30375285612676,32.0,31.0,23.0,13.0,31.0,14.0,6.0,11.0,11.180339887498949,11.0,29.0,40.0,36.22154055254967,190.51771571168914,192.04426573058618,185.6906028855526,175.4821928287882
356,1,367,0,15.306958333333457,16.0312195418814,75.53806987208503,9.055385138137417,17.029386365926403,21.213203435596427,24.08318915758459,15.297058540778355,57.3149195236284,40.311288741492746,32.0,32.0,23.0,12.5,29.5,12.5,6.5,11.0,11.40175425099138,11.0,29.0,40.0,37.21558813185679,190.16308790088576,190.85072700935672,185.52897347853784,175.34537347760278
357,1,368,0,15.34866666666679,13.0,73.33484846919642,8.06225774829855,16.0312195418814,20.09975124224178,22.20360331117452,17.46424919657298,54.3323108288245,38.3275357934736,31.5,30.0,23.0,9.5,27.5,10.5,3.5,11.0,11.180339887498949,11.0,30.0,40.0,37.21558813185679,190.05525512334563,191.84629264074925,186.45374761586316,176.28386199536246
358,1,369,0,15.390375000000123,8.06225774829855,72.3394774656273,9.0,16.0312195418814,19.1049731745428,20.09975124224178,18.439088914585774,51.35172830587107,35.35533905932738,31.0,29.0,22.0,7.5,25.5,9.5,0.5,11.0,10.44030650891055,10.5,30.0,41.0,35.12833614050059,190.05525512334563,192.75113488641253,186.3866948041088,177.18069872308325
359,1,370,0,15.43208333333346,8.0,73.24616030891995,8.0,14.035668847618199,19.026297590440446,20.09975124224178,20.396078054371138,50.24937810560445,36.22154055254967,32.0,29.0,23.0,6.0,24.0,9.0,0.0,12.041594578792296,11.40175425099138,11.5,30.0,40.0,36.22154055254967,191.15700353374447,192.75113488641253,187.45132701584163,177.22866585290316
360,1,371,0,15.473791666666791,6.0,74.24284477308234,9.055385138137417,15.033296378372908,19.1049731745428,20.09975124224178,20.223748416156685,50.24937810560445,35.22782990761707,32.0,29.0,23.0,6.0,24.0,9.0,0.0,11.0,11.40175425099138,11.0,31.0,41.0,34.23448553724738,189.952625672824,191.58809983921236,187.32325002519042,177.1016657177453
361,1,372,0,15.515500000000127,6.0,73.24616030891995,9.055385138137417,16.0312195418814,18.027756377319946,20.09975124224178,20.223748416156685,51.24451190127583,35.22782990761707,32.0,29.0,23.0,6.0,25.0,8.0,1.0,11.045361017187261,10.44030650891055,10.5,31.0,40.0,35.12833614050059,189.76301009416983,191.51240168720145,186.26862323000083,177.1383639983163
362,1,373,0,15.55720833333346,7.0710678118654755,73.24616030891995,8.0,16.0,19.1049731745428,21.095023109728988,20.223748416156685,51.15662224971465,35.22782990761707,31.5,29.0,23.0,6.0,25.0,9.0,0.0,12.0,11.180339887498949,11.5,30.0,40.0,36.22154055254967,189.952625672824,191.66898549321954,185.3887806745597,175.13994404475525
363,1,374,0,15.598916666666796,6.082762530298219,71.17583859709698,10.0,16.0312195418814,19.026297590440446,20.024984394500787,20.396078054371138,52.3450093132096,36.345563690772494,33.0,32.0,27.0,9.5,22.5,5.5,1.5,11.045361017187261,12.165525060596439,12.0,29.0,38.0,35.12833614050059,189.67603960437387,192.43960091415696,186.21761463406193,176.07100840286
364,1,375,0,15.64062500000013,7.0710678118654755,71.11258679024411,10.0,17.029386365926403,18.027756377319946,20.024984394500787,19.235384061671343,53.23532661682466,36.22154055254967,32.5,31.0,27.0,10.0,24.0,6.0,2.0,11.0,11.180339887498949,11.5,32.0,40.0,36.22154055254967,190.67249408344142,192.43960091415696,187.21645226849054,178.10109488714548
