,video_id,frame_seq,gap,time_seconds,m1,m3,m4,m5,m6,m7,m8,m9,m10,m11,m12,m13,m14,m15,m16,m17,e1,e2,e3,b1,b2,b3,m_0_16,m_1_15,m_2_14,m_3_13
0,1,11,1,0.4587916666666662,15.839837385104127,150.53055086895077,14.000570534874212,23.842112498177617,37.671682484146956,41.57957313589856,39.649062056017705,93.2484244606639,69.41233804535656,61.46925795783534,49.3616768449283,49.82735304157859,9.953828703399381,43.59893391138121,17.23001927605992,0.5238857212316361,21.77977640451823,21.86959029650189,21.828571717981276,54.25127690975614,54.71695310640638,59.39939019414071,399.99999999999966,398.02023973545107,386.1011130994925,360.35630051111957
1,1,12,0,0.5004999999999996,13.928796908597612,151.27929270029335,12.103651989678772,25.944184659459886,37.859062151397886,41.83374075880359,41.97547038251293,93.86000516282786,67.91700540995224,60.83758946570924,49.74782548593066,50.164125280792064,8.07159046703373,43.7577339932036,15.275889694773241,0.4625553276238179,21.978370055791892,21.97837005579187,21.936686412554707,54.43119817812084,52.91632948015308,63.67450015358944,400.00000000000034,400.00000000000006,390.01138949986984,364.14398440163353
2,1,13,0,0.542208333333333,11.940150737891946,155.22195959259562,12.104850252426951,23.88030147578389,39.850222032379214,43.78055270560391,38.01937659123736,85.77908592194765,61.97898023036944,55.815839155346566,36.597156437732,39.28846209657206,0.06900783740616134,47.718919566357386,21.472938739549022,8.234935263801276,21.980545916608627,21.98054591660857,21.921489682689185,59.289233638122994,58.00108733987486,65.67082905840563,400.0000000000001,398.0249243501473,388.0548989814887,366.164622628687
3,1,14,0,0.5839166666666663,13.930348258706342,161.19402985074603,9.950248756218945,21.89054726368159,41.83840008284312,43.78109452736318,38.279371267007704,83.79503789622802,61.97974727322361,54.75996286895588,29.447643093063107,30.379384925304635,7.931308559635568,53.70168819529886,27.704940777204115,14.016387933162946,19.999752479842563,19.99975247984257,19.91166804456725,62.21964901967914,61.11536240368923,61.69154228855726,399.99999999999983,398.01492534204016,392.0600040252362,370.19739696543274
4,1,15,0,0.6256249999999997,19.999750004687428,178.04271262765013,7.999900001874903,21.999725005156126,44.04488053352489,48.041048088509335,34.234057614201724,84.09413299642183,62.12812167136906,51.97564458001375,18.445182575229182,21.42795373516401,14.03959528727944,64.03815400266205,36.164671783960785,19.913711671212354,20.39582310817579,18.110543895890988,18.98802406985334,59.48399956881525,60.59253904204775,59.99925001406229,400.0,398.01512483699673,394.0407571521538,374.12898937062164
5,1,16,0,0.667333333333333,24.082888123364505,186.09442286550248,7.999900001874944,21.999725005156236,46.04288220045478,52.037796856635445,30.26511358928764,84.02275587251584,62.03147428850079,49.98152299854917,12.465552058521894,17.408592300506484,15.039341977624076,69.04915869061824,41.18632036108704,18.91423099490396,20.09950000006211,18.110543895891066,18.988092515761252,59.486932567330996,62.589116443335,65.9991750154685,400.0000000000001,399.9999999999998,394.0762839819976,376.18673832080754
6,1,17,0,0.7090416666666663,32.223150022990694,189.11332663403286,8.040099491821856,22.110273602509732,46.40502768684068,52.41503594515269,28.21204349227826,90.45111928299443,68.34084568048469,52.24574898454773,13.047080863144856,18.927455336675052,12.12827235165571,74.45794474979596,46.595076638889736,15.89538724876104,18.531513676477104,18.201549361847118,18.066072357153985,61.27304260992776,65.4880766563839,68.37039847999834,399.9999999999997,400.04039995970294,394.09304461221654,378.3174389876706
7,1,18,0,0.7507499999999997,46.69509351594205,196.97333713806222,14.21155020050413,24.447103692946307,52.824786179711374,54.85356315404712,22.424528939778217,107.6017372323881,83.26383486301005,59.87910716790816,28.927326554441947,31.875115184295964,8.080611244093689,77.1987991176336,46.89507320294854,3.951413163364464,18.384437210791173,18.384437210791226,18.26596650989245,66.48008909974061,67.5926785826037,73.11616454273549,400.0,402.0658693105709,396.0805448792467,378.06299694144224
8,1,19,0,0.792458333333333,46.93816459471134,196.01145611544032,12.244738589924623,26.60864308883827,51.060543606715854,55.13910310624012,20.509683306980392,106.1210677793473,79.61696050681404,56.121718537154834,22.448687414861865,28.571056709824234,5.101974412468621,80.6111957170042,47.958559477205085,5.101974412468621,16.45337309541846,16.32631811989961,16.32631811989961,69.38685200957326,69.38685200957326,73.46843153954819,399.9999999999999,402.118449873753,398.2103285417734,380.03100200557054
9,1,20,0,0.8341666666666664,44.89737482972401,195.95832927990287,14.285528354912055,28.643849328972266,53.06053388967367,57.178544480677786,20.509683306980424,108.16185754433472,79.61696050681418,57.15267662080157,26.025391359923674,31.207539771679535,8.197425031870239,79.5436851344275,46.74252007683219,2.1554068615266715,18.480137307930313,16.453373095418378,16.33752541316801,69.89021397801542,68.77811575690845,73.46843153954823,399.99999999999983,402.08219802524934,396.1025207767127,379.9378376743426
10,1,21,0,0.8758749999999997,45.35841443249485,197.97057499880137,16.493968884543623,28.864445547951448,51.54365276419887,57.72889109590244,24.8267107878612,115.47618917194494,86.61787776285134,63.924597089581084,32.48345410249988,37.70646364789479,10.342933376078008,80.37249557025461,47.23616527458023,2.176253977247825,19.00835992603192,16.622328554950855,17.536025469297385,70.62516854584442,71.56439394655138,74.22285998044629,399.99999999999983,404.1074971934962,398.00245114299787,379.5013227712419
11,1,22,0,0.9175833333333332,47.422680412371186,195.88714023115242,16.494845360824772,28.939523397150836,51.587612384316635,55.67010309278358,23.052247190719445,115.48232548404486,86.69606615104597,62.90842076962747,34.54979451231861,37.69379163905796,13.418944258328906,79.35175356835202,46.214479504278415,1.1505206876836382,19.00937001503681,16.494845360824716,17.53120136975224,72.6878466149376,71.54871722119134,80.41237113402062,399.99999999999983,404.14475013613577,398.0236006741199,379.65588459949015
12,1,23,0,0.9592916666666664,44.89795918367351,193.888291861447,16.32653061224494,28.571428571428566,53.06122448979592,55.13982075961755,24.827602164482496,114.35857735609719,85.81141241481082,63.28735615768858,36.22679414236791,39.362913813508726,13.282389195419569,76.5120960944472,43.70966791652336,1.1529851732134375,18.480377832933538,16.453587241425627,16.3377999044352,65.84698324222256,66.74631167732889,71.42857142857157,400.0000000000001,400.02082411433844,396.10767617997027,377.8211940110008
13,1,24,0,1.0009999999999997,44.897959183673464,191.83673469387776,16.3265306122449,30.61224489795918,51.02040816326519,55.10204081632664,22.54155309630057,114.30393440767715,83.69835369146891,61.234882688933,36.235268482471724,37.301011673132734,14.308169219298861,77.52714827382408,42.68641609402573,0.12471462869439165,18.48037783293345,18.480377832933414,18.378401192142178,65.84932395062447,66.73366404500257,77.55102040816325,400.0,400.0052061302186,393.92513194684807,375.6488209104285
14,1,25,0,1.042708333333333,45.3602221288019,195.87368646528074,16.49462622865518,28.865595900146612,51.586927048675655,55.70753244187738,25.08322359373468,115.5359968586867,86.69491440353652,63.97651923462547,37.65750004358188,40.92160816779756,14.482332361651174,76.22551445865543,42.79417546011052,1.6664130949942546,20.721117751857857,18.670649151262044,18.588236791585587,67.54985865481933,66.20985637224652,72.16398975036635,400.00000000000006,404.1393811184847,396.00524034907744,375.3943290775503
15,1,26,0,1.084416666666666,45.59340695411938,196.88062093824294,16.579420710588867,29.01398624353051,51.81068972059026,55.9939100346599,25.212169768105074,116.1299366583833,87.14058987694352,64.30512226560268,37.85954056121568,41.1223071351335,14.556518241181038,76.6177729682297,43.0170014087596,0.3949664800005621,21.13469743183922,18.7666299876992,18.683631749592905,65.81629836299629,66.560438107925,72.53496560882645,400.00000000000017,406.20109418009656,400.0644191543794,381.52935995963304
16,1,27,0,1.1261249999999994,45.5958549222798,194.818652849741,16.580310880828996,29.0155440414508,51.813471502590694,55.99691641909344,24.95667270216025,116.08067950209704,87.07130171025912,64.26776584916433,38.3626291310311,40.52714722125745,14.552930138542365,76.63315110928659,43.17522786355539,0.25329467013295925,18.76763759199469,18.76763759199466,18.686238619346796,67.3533554671464,67.1461143734013,70.46632124352362,399.99999999999983,404.192902710342,400.13420927629534,379.5519810261042
17,1,28,0,1.1678333333333326,45.595854922279884,196.8911917098446,16.58031088082886,29.0155440414508,51.81347150259085,55.95854922279801,24.956672702160326,116.08067950209706,87.07130171025916,64.27432060841784,35.74633091333283,39.02739510344554,12.485312681323421,78.6937342860183,45.08872947570626,2.469432522032207,20.828757763981155,18.767637591994706,18.702065883642263,69.97301104387668,66.5537967826013,70.4663212435233,399.99999999999994,406.23876438554584,400.13420927629517,381.5498447574979
18,1,29,0,1.2095416666666658,45.59524289327382,196.8885488573193,16.580088324826836,29.015154568447105,51.81277601508402,55.95779809629081,25.21318500282302,116.13461293752029,87.14409882333705,64.30799491426569,35.78038814778688,39.06140829647393,12.48514509210895,78.69267798719363,45.08812425379915,2.4693993750644267,18.767385675705384,18.767385675705338,18.70181484751606,67.89984855072316,68.62512668885392,70.46537538051413,399.9999999999999,406.233311479628,400.0429507141794,379.4733192202054
19,1,30,0,1.251249999999999,45.64232111220966,196.89945650802184,18.652599365430323,29.015154568447166,53.885287055687364,55.95779809629074,23.171377854539603,116.07912136171342,87.07013296011014,64.29053853433197,35.78883865342743,41.12396303362482,15.59321760907494,77.62262510244364,44.02050051901119,0.6411308268047833,20.828478181463616,18.767385675705352,18.70155724260195,65.81894863037581,66.56311834005999,68.39286433991094,400.00000000000006,404.1449670135903,398.008465054493,377.4019273468283
20,1,31,0,1.2929583333333323,43.750000000000036,197.9166666666666,18.749999999999986,31.250000000000007,52.083333333333236,56.25000000000017,25.344843876242603,118.82307692999336,87.59915017345268,65.6853221164904,40.133315204367136,43.43146827047008,16.71642843503696,77.02055344367557,41.122761124198064,1.7185113344430647,19.207384286026848,18.86538570445296,18.782113776438337,68.25440976798103,68.98347518259317,68.75000000000009,399.99999999999994,406.27136695946376,400.13561069273055,379.37265466966784
21,1,32,0,1.3346666666666656,46.12087025245081,201.04712041884812,18.848167539267042,31.413612565445106,52.35602094240824,56.54450261780112,25.477539393919198,121.4840210452204,90.0767043669385,67.05856314003972,38.223323145810696,41.55513823842364,14.692379054231196,81.59476336180455,45.54637506811628,2.475723714649803,18.848167539267042,18.964157357355845,18.880285524807164,74.88485796695886,71.48363005991638,71.20418848167552,400.00000000000006,408.39844217914674,404.324096284424,383.52634731957147
22,1,33,0,1.3763749999999988,48.16687910763094,196.85594070075265,18.84790921602955,31.41318202671584,52.35530337785951,58.6753245111213,27.54506004289777,125.72251579794597,94.33257625687794,70.21560812260236,42.48832390574637,45.732761312034086,16.820452085080206,81.5941492389801,47.64260744481339,1.71425948062722,18.96389744442189,18.96389744442185,18.87986448126992,72.74672950339408,69.39874622243764,71.23400317374723,399.9999999999998,406.28255163029525,404.26973947792766,381.29041471292487
23,1,34,0,1.418083333333332,50.00000000000001,197.92763127522727,18.750000000000046,33.333333333333414,52.08333333333334,58.37052385884149,27.401971745762307,129.23385349392365,95.92387027684453,70.87504718716832,44.84072488489903,44.94430972164537,17.764799502012693,84.31230239844149,48.598552573533425,2.8831112894422404,18.865385704452912,18.74999999999993,19.801967958025784,71.86485784941192,69.63202914621127,68.74999999999983,399.99999999999983,406.27136695946376,400.13561069273067,377.36522612568444
24,1,35,0,1.4597916666666653,54.44727689567212,196.85898589132645,18.84713431004038,33.5060165511827,50.25902482677405,58.63552896457018,27.543927565456514,134.08949167419038,100.60526706661958,73.35348370214524,46.67426025401551,47.824722670924984,19.960522933378684,86.82539860415466,48.687569483607035,2.795623673089949,18.963117769735444,18.84713431004038,18.861831325230128,72.77825249369045,69.43040686048403,69.10615913681443,400.00000000000006,406.2604506830916,404.21514847247545,379.1814066191382
25,1,36,0,1.5014999999999985,58.98168283302947,195.77862752329096,19.062912624079157,31.57719798762765,52.628663312712604,56.87792721287225,27.688879586153917,136.89928302870518,105.3414988313001,75.86135867338282,49.03297278820878,52.242027305663555,23.205259817079877,86.24765340191982,50.01639272097725,8.02263629363722,21.156460815944467,19.0629126240791,20.03071126217816,73.1526406129505,69.84006820783588,71.57498210528942,399.99999999999994,410.503573839159,404.21006225652786,383.2812258858396
26,1,37,0,1.5432083333333315,58.663265707411604,196.82662018947576,18.844035641584583,31.47644141828468,54.438325186799766,58.62588866270753,29.610545304634194,138.25302807744941,106.80339393494845,77.52022990416708,50.30763881317898,52.53893326442653,22.025406567727032,86.82495779622502,50.59517675792745,6.774393978272201,18.960000032370747,18.96000003237076,18.885492211074563,71.24040119086209,70.87235262158413,73.31226589423959,400.00000000000017,406.19905347188535,402.0115462067696,379.0265463420914
27,1,38,0,1.584916666666665,64.95167451210803,194.79875096647993,16.753008275591295,33.50601655118282,52.35315086122309,56.54140293012106,27.543927565456695,142.5390848452113,109.07562569176181,76.55007414106933,49.87422642783349,51.00669166094269,23.11258589390775,92.07857468597388,55.690979670621005,7.715634340728002,21.355979027155488,18.963117769735415,18.897298637335098,69.61801422931086,66.10622810239687,73.3243211890859,400.0,406.2604506830913,402.07765203042516,381.1827125946015
28,1,39,0,1.6266249999999982,64.94099576903506,192.67343150961028,16.75025390363064,31.47644141828476,52.34454344884608,56.53210692475371,27.934532571382693,140.4239331592664,108.9571506806222,76.55400874589373,49.41861363620478,51.58024680595963,23.088081940786196,89.9147414227831,53.37394241490529,7.611708289243211,18.84403564158457,18.960000032370722,19.94911462513153,70.06910923662912,67.56253460361552,73.31226589423986,400.00000000000017,408.33575408238795,402.0060936871374,381.0912842035478
29,1,40,0,1.6683333333333314,65.25502411887311,195.86690074964682,18.945007002253536,33.745729608400666,54.77048605328354,58.940021784788435,25.608439717676635,143.27928671091195,109.54097210656742,76.9373012223474,51.23023105221512,52.402652763529204,26.413971496071554,91.46038781298546,52.471618746547506,10.643750045849629,19.061592761123947,16.97105883283208,17.95989141105821,68.98897167946967,67.33378808702639,71.60097565503244,400.0000000000002,408.37557616116436,404.1656311170924,381.09816817460126
30,1,41,0,1.710041666666665,67.0034380999865,192.7227931689545,18.835522177581485,33.485372760144834,54.453962704306704,58.59940233025362,27.526957148094134,146.63298354811303,113.1874016856817,79.68122053549746,54.66099384951781,54.799610063844625,27.36515097834058,91.90255009864006,55.06529114130433,11.52824849150852,21.032739460395312,18.951434177325503,18.90956190440852,71.2487341639532,68.46485852622408,73.24925291281674,400.00000000000006,406.1449699981574,401.8462729032876,380.89611514664705
31,1,42,0,1.751749999999998,73.26410410705115,194.87481554514142,16.739249985609415,33.478499971218724,52.35198760412113,58.58737494963279,27.521307309055135,150.78396855006213,117.34276922385544,80.71802218981463,54.046783274284394,53.261655894952696,26.27867522586439,97.12487521967114,58.05324210705021,10.402937776144086,18.83165623381046,17.254423946071544,17.97133479308343,69.56459500695644,70.03798063272995,69.081102040915,400.00000000000006,408.21231789815806,403.92112845629686,378.7486507297517
32,1,43,0,1.7934583333333312,79.49981685319565,190.41864475866268,16.73101126423794,31.44028138064823,56.505878937030005,60.649915832862774,21.834610725334972,148.85546966370197,117.41546679530725,77.66596802759591,45.41319270988697,49.589646006096814,26.274939693188685,101.3363612970495,64.11544236049735,12.139251613709007,18.82238767226782,19.281537770763812,17.979401964727913,72.10118822357998,71.18328640023714,71.22971377784408,399.99999999999983,408.16145550791,403.8306502943584,380.6822126056607
33,1,44,0,1.8351666666666644,79.08687840666636,189.50953046254025,18.724620308354,33.35316655573264,52.05442782641926,58.29151447768123,29.42290221151221,160.4155409037588,127.06470322368884,87.53611518887897,57.096044028963775,60.33790872327347,29.39021462190044,101.69187312453028,64.61232462804833,13.203964920418116,18.72462030835406,16.773635018330573,16.803473050754747,72.41702735296127,68.28682251110041,75.01397626151625,399.99999999999983,406.0413807197902,397.5141891433366,374.5155222688385
34,1,45,0,1.8768749999999976,88.29825645651674,191.54716852895132,16.813950331831677,33.69351614198523,52.71146612453302,58.99875971947193,28.040759614775215,166.36998155561943,132.6764785318251,88.54461951828648,58.31863770812902,58.376608520960076,30.718733719222314,108.01701554826718,70.71859457271034,16.620232038688414,19.03209949353108,19.377120323379494,18.069502359467037,72.37076273839784,71.96496704857992,73.59105148803671,400.00000000000006,405.9848778535995,401.5210856758904,378.31972059836164
35,1,46,0,1.9185833333333309,85.77193352762113,186.23821404562216,16.731011264238077,31.440281380648265,50.23658524020693,58.595873530904406,27.90244146757215,161.37513543758104,129.93491209465145,87.04936801706071,56.50114948677856,59.52986175131923,30.54821853028227,103.34175123321131,66.26613558107385,16.7623558089241,16.731011264237964,16.861215650246663,17.91117770237065,71.74914916343221,69.86925879233797,75.28955068907094,400.00000000000006,406.07184593171564,401.63140157206215,378.5391298533849
36,1,47,0,1.960291666666664,82.05954172704466,191.45557514085698,16.827195794472093,33.654391588944186,54.72882137366303,58.93273401591758,26.017614616333994,157.97916386353128,124.38544871401268,83.30495963942087,55.63618151018261,58.748775479889446,31.728932993781882,100.76879407093065,61.809684309877866,15.970708172978675,19.047092339223788,19.04709233922379,19.03735979626913,72.97941728234946,73.74895158482298,73.61898160081498,399.9999999999999,406.1522231376983,403.8746088841934,380.7385461236739
37,1,48,0,2.0019999999999976,73.65870984705182,191.52420863000464,16.96730011983053,33.672553072938015,52.61336417646564,58.926967877641545,27.68083043736992,151.6579651990112,118.02292897867719,81.18861467525937,54.01787686721184,58.224660602698464,28.638489276198243,95.53097350970734,56.69912364367576,13.013292544390424,18.940811103527622,16.96730011983053,17.948173464865135,72.46300555357675,72.18563519739087,71.55417527999337,400.00000000000017,408.3285196147777,401.97161152323713,381.0137633856203
38,1,49,0,2.043708333333331,67.39290750803586,185.25202831208424,18.945007002253412,35.7850132264788,52.62501945070409,56.83502100676035,25.60843971767669,147.48531386014508,111.74362478618953,77.98185652165569,55.01744859579446,56.98318341321465,30.653900005769515,91.45292159397604,50.82002660330306,15.367421013831631,19.061592761123915,16.97105883283205,17.934439422462617,73.58786104742245,73.40285071166517,73.70509253614705,400.00000000000006,406.27060349272716,404.24784823225707,383.3934023729863
39,1,50,0,2.085416666666664,58.668892223828045,175.89453478264116,14.657877898553545,31.409738354043206,50.255581366468995,54.44354648034147,29.39044574184532,134.0148836439171,102.60514528987389,73.29648397551182,57.725608433996854,59.66907581213536,29.360239319736365,75.30936090286968,39.43619221472852,16.542609230584276,19.30556527646907,18.96181852559908,18.867829129428628,65.92750350006975,69.94168909658231,73.28938949276692,400.00000000000006,404.27423137249605,398.30278463605464,381.8002674583874
40,1,51,0,2.1271249999999973,35.781545134338316,174.81221036748303,14.73357740825686,29.542230491863304,50.55895345977224,52.66199842573855,31.642033698860875,111.55422894823107,82.11405427184812,64.18384166754743,53.05618880250813,58.41586449771046,24.17604787835944,55.81653680003717,22.278308630058063,11.685473189540062,19.405267418627275,21.152945772448362,21.030401306175122,62.613893743952815,61.65927339480726,73.69794943267718,399.99999999999994,404.318256886727,398.2573625075246,379.57020538094935
41,1,52,0,2.1688333333333305,31.79470068004284,169.40752551426596,16.91961623308808,27.49437637876828,46.57698693013617,48.82745919660718,31.794700680042975,107.86255348593686,80.36817710716858,64.453091029186,54.93358090048025,58.769111680492756,25.19666455182903,50.970969281371026,17.779764669997803,11.032927394313106,19.4988942576613,19.151705172511896,18.96970343608598,63.055201799121164,66.6019124902773,71.93946450299283,400.00000000000006,406.62118534348707,400.82107510281344,382.1923720138956
42,1,53,0,2.210541666666664,37.869044958929386,166.53558336994743,14.876365826398409,31.62758757963967,46.4752525497187,50.66707627572058,31.627587579639684,115.73009490774032,84.15343324206533,65.18388449221038,55.11847239716781,60.1856490340557,26.180412623920574,58.06570778801074,20.97535362956637,12.150882751720815,21.143288429326365,19.051043717585863,19.906765359202154,64.25317857931259,60.56482551708814,69.55397075645821,400.00000000000034,404.5988639017146,398.4256272405921,379.8341442657948
43,1,54,0,2.252249999999997,33.839232466176206,167.56240518378715,14.804664203952184,33.90526029962706,46.72081739168008,48.827459196606895,31.72428043704018,114.22699078387424,80.36817710716858,63.38735400019425,56.25917902654601,61.59950555403498,27.235665290193424,55.26077015401552,16.13707363741196,13.466910373667702,19.49889425766119,21.149520291360158,21.082680378086536,65.82532915404784,68.49549241779226,69.82545433612106,399.9999999999999,406.62118534348707,400.6703915318246,381.8411029479082
44,1,55,0,2.29395833333333,27.411333704685266,162.37192147652235,18.92117992419491,33.70328770624522,44.199447510359185,48.76372168411872,33.63765319856877,113.60491779877441,79.91708410278565,66.19582122564441,56.21309207565116,60.86022461099287,24.939611273000196,55.05991474280711,18.295932907659903,9.173783856804107,21.128389427000997,21.023533249105427,20.94651961300292,69.05294715478033,72.87392279495015,67.40657541249068,400.00000000000017,406.67361042286063,398.76605251812003,379.915663802126
45,1,56,0,2.3356666666666634,27.702125221539603,162.15733274900134,19.12190414542796,34.0608270460188,44.819667761091665,46.935185471622596,33.99449625853868,114.81008886869526,80.76487977588926,66.87078306537808,55.46534656737049,60.675308464388536,24.136416399017776,56.710204719755325,17.68159634961478,6.3165024769158435,19.588360597429656,19.121904145428015,20.14825972563665,77.26189069847959,76.96220262475737,74.63563071855855,400.0000000000001,406.8979764137075,403.37700984982587,386.67572083050135
46,1,57,0,2.3773749999999967,29.490018401141096,162.45006363879907,18.909691336534227,33.68282369835465,44.32226397133658,48.73411326152166,35.78004887002798,117.82901721694628,84.14806087087213,69.3997143172769,57.0967511730945,62.07065522952223,23.803683698618556,58.242812015589266,21.75223479055262,6.18872854947233,21.426863360223262,21.010768151704603,20.90988007131881,78.59685257829824,76.14428237535924,73.80733262032051,400.00000000000017,406.73070237368796,400.7993337676233,382.17079868655975
47,1,58,0,2.41908333333333,31.850077112669037,166.10967945504078,19.227647662306214,36.159151262412536,44.79187418256021,49.250468591143935,36.09675406102476,123.22682831799615,87.08276796303969,71.14275584459494,57.246567127467074,61.02862261336577,23.09346001238157,64.06572777628458,24.927183884332635,5.157348389861795,19.576213460563846,21.233384741779204,21.145128398433712,77.7613529449178,76.38606004095459,74.58934766097988,399.9999999999999,408.9232380383327,405.04594580690195,386.2200347456798
48,1,59,0,2.460791666666663,37.831388246621025,164.42031816635134,19.03209949353091,35.97605871619274,44.3363338519778,50.61669329096631,33.62790066366317,126.26215987681432,90.39941861144644,71.47626557619878,56.30003393483935,60.84257946014418,24.9840003891768,67.69081097177809,26.63583512565151,7.123537301046326,21.433665210647252,21.01743791478954,20.992066442696853,79.52895991651206,75.05524083856028,74.03987279561085,400.00000000000006,406.7023582488611,400.5738408887457,383.9926745295765
49,1,60,0,2.5024999999999964,35.7296444551421,166.51594926442453,19.032099493530957,35.97605871619262,48.52252335107709,50.61669329096629,33.62790066366316,124.16308270947852,88.29825645651685,70.42629326818872,56.42407904814593,60.81851365921375,25.034436544153778,65.54166581992831,26.695325216053675,7.28368886322653,19.377120323379444,21.01743791478951,20.93988460995695,77.4043324799893,75.08600870879604,75.92503993644966,400.0000000000002,406.4198656598911,402.6690993583126,381.7197234466137
50,1,61,0,2.5442083333333296,37.69200703241301,163.41527365532127,18.816987327301934,35.60463860437407,46.18675961908629,50.35256279769822,31.43126082660194,123.51516886624871,87.9121119304683,69.06631093459305,56.12964417177989,58.51618668766912,25.896281049817503,66.19213352963993,27.548502791586998,8.238161184656178,21.321819015320287,20.907763697002192,20.83061508460071,77.00041742371525,74.69419124249532,73.2965485048988,400.00000000000006,406.5202689057463,398.65354498146394,380.09601368417447
51,1,62,0,2.585916666666663,33.60564097024216,164.31148158118424,19.019501362469537,33.6712130149747,44.15738385041066,50.58318801551346,33.60564097024216,119.79376986866451,86.14006523364777,69.32298388938887,54.57365668395914,58.21801259019594,22.840255726822875,63.375120004681776,26.771117600531056,7.208490141581365,21.41947738425726,21.003525606401393,20.97223681890921,76.97842334022562,75.74071756074898,73.63226195273195,399.9999999999999,406.5904997158443,398.76287224753867,377.8592047951626
52,1,63,0,2.627624999999996,25.345789273112924,158.91729026223376,21.226835809493497,36.1541690125207,44.55583420421962,48.76274869318107,35.906534803576534,118.44995460880679,82.40088952294514,69.72666024155262,58.18434390257562,63.926675108180575,25.18323564867717,57.3887196993893,18.126394889981952,5.004360930185953,21.53977901516877,21.121491060927344,22.15640444090343,78.3286262644067,76.8180933569081,78.26360387219414,400.00000000000006,406.6092752832997,398.7041605848158,377.6732865717862
53,1,64,0,2.6693333333333293,23.22554679576152,158.861931884457,17.022758601145267,29.635098511833526,44.54031330842565,46.64264530559328,40.172378639714395,109.97606061851326,80.34475727942878,68.73253124189273,57.858671517673656,64.43167627634341,20.976811482915423,48.810646448640455,13.754621069068207,4.909466517278133,19.466269202587306,21.114133450692265,21.057959689812492,68.32679020740699,69.868606138453,65.48785989642977,400.00000000000006,406.62663649860656,398.9677402146178,377.96657924171495
54,1,65,0,2.7110416666666626,14.789786802043722,156.86226368158788,21.233645403347946,31.762749766867422,42.30932141556027,46.91236560134628,38.08952476282098,105.83131787045039,74.06956856677446,66.6564042914099,57.38326815720552,64.95785955395661,23.091027106459592,44.62122931904287,9.341996055992922,4.774287910679618,21.233645403347886,21.128266860062535,21.082612720957343,68.90582840317222,71.36183228030075,67.7423769146238,400.0000000000002,404.7924500615182,399.23480182106016,378.6913993462785
55,1,66,0,2.752749999999996,19.23388147337384,163.8945168709722,21.34620599456333,31.931125654496242,42.692411989126654,44.80639619200836,40.4123675745657,112.89357740607032,80.9641603608368,71.27288603862121,61.64328620064987,67.81684631247094,24.330750459391652,48.03260554290637,12.456744188244443,3.6175908318800793,21.34620599456333,23.36429571792133,23.32682573092734,80.3255176418428,75.24819717604606,70.12506199463819,400.0000000000002,409.05581536926013,401.1431571283824,382.566665602663
56,1,67,0,2.794458333333329,50.48158738341607,168.3245347177403,21.03399474309008,31.621027699401022,46.274788434798054,50.5253892028354,37.91957328702552,140.99053884185136,109.39699578944467,84.15902341346771,72.83626408349153,74.31413427716313,35.684881061039505,67.40224906368371,32.024310273637525,17.131926014331384,23.23280655710484,21.03399474309008,21.01417733078415,78.41806612266657,75.48506219984142,71.5465077850875,399.99999999999994,406.61491973895806,400.88939944218095,382.3908510525562
57,1,68,0,2.8361666666666623,50.2445670479176,173.81290007255842,23.028759896962164,37.74153391765736,50.2445670479176,54.47185949358407,29.30933077795195,140.28170544942748,102.58265772283171,77.4592177200368,65.34441760697825,68.58189487987306,37.65426305206029,73.31227244998627,31.57970322200015,16.856617532192217,21.349835652446043,21.039652061193443,20.929203783607647,81.1542889537647,78.0769695671616,77.46037419887291,400.00000000000006,406.5803987713823,400.52559562776037,379.90388251739256
58,1,69,0,2.8778749999999955,59.25179540643539,175.6392506690767,21.266899077242158,36.036489887536256,50.787253205516244,57.174834121936485,29.70137781969831,146.02868647632022,110.03904861195153,80.4119633589703,69.38291975753259,70.33746680541515,40.2232325297482,76.13950277718288,37.92311916135634,21.040287037362305,21.26689907724208,23.373481113592707,23.288647854964893,76.68577970217598,75.57022471850604,71.94860870781469,400.00000000000006,406.4963649410994,400.3077461549825,381.49176160929426
59,1,70,0,2.9195833333333288,67.71633760735483,173.53601790468602,21.16135550229842,36.03648988753624,48.717098882032026,52.9456945511961,29.701377819698287,154.47789516677824,118.52248337430031,84.64542200919345,74.06474425804436,71.94860870781451,43.380778779711704,81.47121868384886,41.26464322948186,22.219423277413284,21.26689907724212,21.266899077242005,21.161355502298306,78.2970153585041,78.29701535850398,76.18087980827409,400.0,406.4963649410993,398.1935138186499,377.39069087251596
60,1,71,0,2.961291666666662,52.907090752794325,165.08368851202786,21.162836301117775,36.03901159705874,46.55823986245901,52.94939950865818,33.860538081788505,143.9228469154246,107.9304651357006,81.47205430368228,73.20979004990602,77.12988463637225,41.31132126888156,68.70572857076536,28.24433931399369,22.011504558521096,21.268387261637557,21.26838726163758,21.18469994810107,77.19926684144235,77.07206613214709,71.95364342380047,399.99999999999994,404.40956451503297,396.1070180760111,375.30486790985935
61,1,72,0,3.0029999999999952,23.279119931229634,160.8932379243985,21.26838726163753,31.81471903216919,44.49231540570729,44.49231540570752,38.151845708965375,114.29890956514708,82.53506157435935,70.89135906453112,64.77737255061561,70.74837528263402,29.649117014161334,46.486887170351565,10.30627099913545,8.258743242370656,19.16376333219774,21.162836301117764,21.173038423307275,79.32740219645376,77.085416496309,71.98475851430288,399.99999999999983,406.5248101575327,400.4308386513672,383.888250592952
62,1,73,0,3.0447083333333285,19.26650433465093,166.00964475063887,21.276294758031568,29.78681266124424,42.552589516063136,46.85617873193051,42.552589516063136,112.78443240767326,83.00482237531955,73.36275731038313,64.22998418160887,72.09110535574371,25.618006649828203,44.53093935701156,10.03448996933696,6.011445603750417,19.266504334650953,19.1486652822284,20.230826551082657,80.83082242581139,76.29911727836895,74.49742015943664,400.00000000000006,408.6433534216078,402.5776333629852,385.811448637968
63,1,74,0,3.0864166666666617,33.928506966944695,171.48082030861076,23.280423280423385,38.15398175094159,46.56084656084654,50.83772338397593,36.04102934587601,131.23399786605285,93.21784357902756,76.25334281135883,67.26621918716808,68.5925631317051,31.900858666020554,63.28718735355676,22.34203506573624,9.924711584984152,19.164836271190282,19.16483627119029,19.10621320104667,79.23761668656715,76.7450047907991,76.30796350188339,400.0000000000001,408.4875395050049,402.31685340798117,385.55712027262234
64,1,75,0,3.128124999999995,50.558953459772006,183.12941535056785,23.15276449868941,31.571951589122115,50.55895345977213,56.82951286041953,27.684279212918376,132.752454169175,101.22737745817327,75.91893581123736,59.861494406303336,64.79602299925534,34.82482884042372,70.41814983876634,35.71466186538237,14.92492664589588,21.047967726081357,19.059745413475245,20.0616900172476,75.15044365331858,73.69435324884103,73.69794943267736,399.99999999999966,406.23122991815245,404.2086706923069,387.42556868429733
65,1,76,0,3.169833333333328,54.15491557277274,191.7269388712423,20.828813681835694,29.16033915457004,54.19495618125437,56.276355599542505,27.396027072355604,131.2876327620733,102.14616722810811,75.09796391594148,53.928796614217845,57.15217954029049,28.29032887244375,75.72663789088472,43.18418686064342,10.310253189068362,18.861292985952833,20.93269868379498,20.95770423742448,75.46373786499936,73.7034507351583,70.84859050519384,400.00000000000017,404.08435364290233,402.0176877428834,383.34072110835007
66,1,77,0,3.2115416666666614,54.46365460839774,194.94951293638613,20.932082876423703,29.30491602699329,52.37205462452904,58.647198861769745,27.5318564908665,132.02155233612004,102.75925970172162,75.52239868987192,54.171453675231305,53.38602534902316,26.392701843902614,78.2425217901955,45.427788337885886,8.316299924555778,21.036482939905298,18.954807218942758,20.01687190174323,75.86313597844747,74.14212391072704,73.38180448635643,399.9999999999999,406.13095870075307,403.9891995149782,385.1730765182024
67,1,78,0,3.253249999999994,58.34204348444076,193.8345060048835,18.740851426632734,29.15243555253976,54.180267210614154,58.30487110507953,25.332477520846226,131.3346126799972,102.22457874036459,73.0496902443565,49.73009191939843,51.02849773892058,25.21550062780034,80.95502833135868,46.23129039688058,7.23315454326746,18.74085142663272,18.856180831641254,18.821139224578246,73.49206744835283,73.65293188616988,74.99232119678905,400.0000000000003,406.0998315325086,401.8871472600132,385.251123534094
68,1,79,0,3.294958333333328,63.15012912749297,195.83762379278613,18.934522479464693,31.557537465774605,52.637955675676416,58.94495979431253,28.068670903963035,141.20798151696417,109.72265287954643,78.10965638023072,52.394614048216454,53.60027577845153,25.37056755194692,88.20276743619877,53.13523482536084,9.318042800816897,16.96166673004415,19.051043717585916,19.066679076717776,73.99318275842796,74.57878988454212,73.66430275326364,399.9999999999998,410.3828261670265,406.04576570827885,389.23237225118885
69,1,80,0,3.336666666666661,62.80705120181696,192.68323729815137,16.739249985609415,27.20128122661518,56.533703686236905,60.679781197833776,27.521307309055135,134.06104147116648,106.8971833052885,75.49346131999755,52.06087284421028,53.261655894952696,25.28572001082739,81.39923565129345,48.59707558245316,11.291979073328434,18.947544442906675,16.86951848714811,17.867420875230664,67.47477065902967,69.83015279702465,67.08764787143477,400.00000000000006,403.9699017112238,399.73722385141883,380.82368549804175
70,1,81,0,3.3783749999999944,58.25437429265714,189.61228588619224,18.724620308354027,31.276974074220632,54.13334264430456,58.25437429265713,25.734529110309662,133.41266622293088,102.13604384988646,73.05072415552797,51.40944712445287,51.409447124452754,26.13846223689984,81.99943786458016,47.1633737829128,10.112959625280837,18.724620308354027,19.181385486533237,18.924703226541396,67.57191984386344,73.0050674529308,68.78291727533792,400.0,403.962625006742,399.6535671104969,380.82488681307143
71,1,82,0,3.420083333333328,52.339815304112356,190.65183188195533,21.023533249105427,35.624109588332,54.430127735629966,60.665672612180884,27.514908361765304,136.3764823470919,100.7601978545692,74.5520196458483,55.89546661650752,55.83839548457331,28.484201948436635,80.47600314063436,41.16540746425051,10.175782823895474,18.94313897129152,19.286547092399218,20.01484596937837,67.91464700188271,71.46447140819964,73.3366319315549,399.9999999999999,406.1773429365475,399.69355363784484,380.7811134125623
72,1,83,0,3.461791666666661,54.43012773563007,186.4744348176042,18.827277707228497,33.53602470006104,52.465080298521045,58.611096672363495,27.51490836176535,134.14409880024473,100.60807410018367,73.39933835847546,55.50699476018826,56.29864061352703,28.504987284350364,78.24099850498203,40.97627775651347,12.247564470132488,20.919197452476254,21.023533249105473,21.070400139951516,72.75110660900225,72.91173040533204,75.3381596673442,399.99999999999994,406.09653038616983,399.605954370202,380.7523810701751
73,1,84,0,3.503499999999994,48.41251483681626,185.4853042654579,18.926147382721492,33.712135974934704,50.51351788177563,56.81737149257221,28.05625560093487,128.7074229781047,95.00385117274115,70.79268885440331,57.08362847307433,57.68293165914349,29.66550771041659,71.31707914221374,33.56097841986525,11.087108942276927,18.926147382721478,19.387828577808598,19.177701954208715,65.62369887455799,67.87108582231679,67.58804258692838,400.00000000000017,406.05679461124663,399.6018028490615,382.75186633538164
74,1,85,0,3.545208333333328,47.85180745468258,177.28366809148747,18.83984982861503,33.35316655573269,49.97564605456918,56.21237574681365,27.364880887447686,127.18387695157463,93.83092222266224,69.97023512535566,56.20290413147234,57.24579787493656,29.439076649744607,70.45200669162978,32.96451093471592,10.780347282983143,18.83984982861509,21.21715651931401,20.982568686437105,67.61805630178145,72.80985341598364,71.01228268224668,400.00000000000017,401.883887484416,397.514189143337,380.785102997845
75,1,86,0,3.5869166666666605,44.21105138090442,179.1917152708292,18.92614738272141,31.613598100579864,52.614672914168686,54.71596242452907,27.418530119701728,122.13155281737099,90.52268308983321,68.40435539312398,57.447962537851254,56.55356312109416,29.58398070811495,65.11915753542053,29.618380685682496,13.106391453246374,21.133936353705916,19.387828577808687,19.160787505139638,65.08475755785292,70.76075385650296,69.52320572213593,400.00000000000006,406.05679461124635,399.60180284906136,380.6490887322079
76,1,87,0,3.6286249999999938,38.11079669833541,175.78063735081835,19.026059766179667,35.93811289167286,48.66808770374701,52.89242925144274,29.89656862205837,122.77629336021315,86.9059876527826,67.8434381364824,56.37572347229752,56.35266120047413,26.567737140554982,66.40781171547587,29.0123379538353,10.274242097323963,21.24550380112435,21.558722225451834,21.355663708466977,69.01384843151982,73.71855188349315,72.15547830587984,399.99999999999994,404.04634576736294,401.711327188565,382.6585604407071
77,1,88,0,3.670333333333327,42.35957951354126,173.5736360818008,16.922691645212637,31.73004683477346,48.69870234331239,50.812125334324904,31.80047987778697,122.7624353937701,91.0578021812939,69.87776351101297,57.24108965613334,59.37686551893,26.51347563009267,64.44072119362488,29.395624778275078,10.48367399318954,21.25886827612105,21.572283730363093,20.27838803063821,70.25095015370596,73.00678997666921,67.82284625099125,399.99999999999994,406.2327289424664,399.82097400429143,380.76056201728267
78,1,89,0,3.71204166666666,35.76520912787771,170.42368846131012,18.93452247946465,33.661373296826106,48.38822411418755,52.595895776290995,33.9233334600883,122.09500271152902,88.46123083419957,70.59501827142219,55.35963362372968,60.70034516626811,24.21696836009005,64.05982500754203,27.226143465778364,6.391625749295713,21.143288429326375,21.454999911855907,21.20205055381848,69.38330844833018,72.98972441468925,69.45845141074072,399.99999999999994,404.0241298785709,401.854672821593,380.8000970771875
79,1,90,0,3.7537499999999935,35.97078094031597,169.28748728381802,19.04335461546145,33.920910961595624,46.55042239334999,50.782278974563646,31.809377108076202,120.60791256458863,86.77886008196747,68.800098322753,54.479195798504634,62.11088061078476,26.50401382096038,62.24880262546435,25.53855971820201,6.712204714414838,21.264816143809526,21.264816143809465,21.251483761906115,68.66217630807324,70.43217549646329,69.85768575310405,399.9999999999999,406.26374198906416,397.81702787267017,380.9611219594214
80,1,91,0,3.795458333333327,31.64203369886076,166.29226600101754,21.047967726081488,33.67674836173008,46.30552899737902,50.55895345977208,33.742459152724365,119.97341603866357,86.29666767693351,70.51338617255465,56.751902742104335,63.34831628727886,26.328788546687747,59.87951261266119,23.542372480191602,6.767010447204825,21.152945772448366,21.464799631352015,21.15401585176636,69.88786419844325,72.73114589894942,71.59403647132011,399.9999999999998,404.1264615451854,395.7241840718635,378.9569540465884
81,1,92,0,3.83716666666666,29.54877652130151,164.2240210379488,18.947368421052676,35.78947368421049,46.31578947368454,50.526315789473564,35.851339717739755,120.00000000000004,84.21052631578954,69.48161208604768,57.66968083078393,62.45165396850814,24.241629375209527,59.92338587416123,21.656160645243745,7.0242380539775695,21.157632886570354,21.15763288657035,21.101314479742314,71.00886905706733,73.99474223636395,71.60990042818908,399.99999999999994,404.23245554549834,395.8790492140853,377.0537482718778
82,1,93,0,3.878874999999993,31.578947368421055,168.43421001237587,18.947368421052722,35.851339717739805,46.31578947368426,50.57015641879717,33.749935877645,120.00000000000006,84.23683799470555,68.44619312624002,57.642492623644216,62.47827220616466,26.346464996061627,59.92384275610402,21.692738291941964,9.131089682288689,21.157632886570312,21.157632886570344,21.101066437139423,68.89563616979189,71.86537374870449,69.50557481776485,400.00000000000006,404.23245554549857,397.9838385337675,379.2338098699489
83,1,94,0,3.9205833333333264,37.89421199515821,166.32680971087476,18.947105997579104,33.68374399569631,46.31514799408245,50.56945601566956,31.57850999596525,122.10357198439887,88.41982798870256,69.46861834234164,58.07356829804439,61.98632644578504,28.453302670850235,62.06641213886769,23.922740605045647,11.337845977809593,21.46925849061481,21.15733985065146,21.085418907268718,70.49829153911554,72.4889930528783,69.47272199112345,399.99999999999983,404.210410291383,397.9783264067543,379.0882885664501
84,1,95,0,3.96229166666666,51.063107419275624,172.3379875400556,21.276294758031653,38.297330564456864,48.93547794347269,55.3183663708823,29.86270275280456,140.43966288316503,102.14837524129432,76.60504269827675,63.3909315947908,64.32247467519323,34.058825093971905,76.57629136863477,33.886317116119585,14.77243317008515,21.382411599652283,23.787620694140564,23.42083312641347,70.70526985572826,73.86791611635374,70.21177270150389,400.00000000000006,408.59350096517744,400.27151627981556,379.20183316147507
85,1,96,0,4.003999999999993,59.29621012547421,173.54254442303028,19.164568019547094,38.15344770681241,50.79293983113061,57.14205731002205,29.70470346944788,146.02970201450117,107.95574389716226,78.31035812169216,63.04409957032294,63.98215367389139,33.87290488617782,82.51444206146596,42.166675923826915,16.804896074905628,21.582849279306686,21.26928032224764,21.17485543543239,70.3540577676439,71.34931029216182,71.95666476076882,400.0,406.3655635978568,398.0187200588337,377.00548967080533
86,1,97,0,4.045708333333327,55.01952430597578,171.4200416360446,21.16135550229842,38.14917616092948,50.83132024478769,57.13565985620562,29.701377819698383,143.89721741562914,105.82793675128185,78.29701535850404,65.6002020571251,63.48406650689526,34.91623657879245,79.3550831336189,39.14850767925191,15.871016626723872,21.580432928058737,21.26689907724212,21.16135550229842,74.06474425804436,71.94860870781451,71.97972162114225,400.0,404.3203569220211,398.1935138186499,377.2660797556931
87,1,98,0,4.08741666666666,50.7822789745636,171.39019153915243,21.26481614380958,40.202637521529425,48.71232740718567,55.01413555577721,31.80937710807626,143.8831237612636,103.68048623973418,78.28477217334637,66.45913967849754,64.60638100909182,33.81856410760918,78.34195608289588,36.27747221824029,15.027931429624005,21.26481614380947,19.160545596125488,20.077270642850124,73.02385249478687,73.14965709579587,76.20280068799583,400.0000000000001,406.52814340023815,398.35686803219517,377.49014656856804
88,1,99,0,4.129124999999993,46.33217806177584,159.9053635861052,21.038358310516234,33.661373296826156,44.1805524520845,50.53587085148172,37.92743982007532,138.85316484940768,105.1917915525815,82.03308493249881,70.23150965899151,70.5782748482228,32.56125126882466,68.4398895146295,32.93113413733829,13.859048729613392,21.14328842932645,21.143288429326343,21.013970467420393,74.7163394397171,74.87816319469175,77.8703507729537,400.00000000000006,404.38001392551206,396.1975900487692,377.5784591596537
89,1,100,0,4.170833333333326,14.807355189560935,158.70663312132078,21.258868276121067,31.80047987778697,44.47240220304041,48.69870234331232,42.30672911303142,110.07882472214156,78.29602926862714,70.8742209647952,65.97682954046388,69.34522317269182,25.354922033715525,42.35783733086578,6.501114672439826,6.43213732843526,21.25886827612099,21.258868276120957,21.14730404943066,71.4375359408333,72.541173444908,69.83814623444206,399.9999999999999,404.4775542574519,396.52262569687383,380.15485898603794
90,1,101,0,4.21254166666666,17.13823017625608,155.30969891056085,19.13162248116612,31.886037468610198,40.44488252384751,44.69103655438608,42.567826847425835,110.5382632245155,78.6522257559053,70.14928243094255,63.77207493722051,70.14928243094255,24.445962059267913,43.57758454043392,7.440075409342285,5.314339578101794,21.3633807073289,21.3633807073289,22.320226228027195,74.40075409342393,72.27501826218321,72.30627232559527,399.99999999999983,408.8105590659269,400.74490061982965,382.02376884671713
91,1,102,0,4.254249999999993,23.146356493114705,153.62205029535738,21.147091257993385,35.77164185299546,40.03540607022026,44.23857072891565,40.03540607022032,119.94021091886715,84.16856906587168,72.59431872304367,67.72267729645,68.99204865408353,28.389318876804737,51.581076654109665,13.808701931013616,7.450409364849293,21.4588588049031,21.04214226646795,21.036113624927452,77.36303814766706,74.26394231056173,75.75171215928455,399.9999999999999,406.5546638631482,398.7860702995463,380.2519468188859
92,1,103,0,4.295958333333326,27.206865367617638,152.83434042964112,18.83552217758147,33.55071013497588,37.7291338952275,43.9993529554495,39.763880152671945,119.30999725437859,85.80626769787105,72.19842756472258,67.75286820870758,70.25024355564972,29.24010302044735,50.30592654882014,14.938004390042693,10.613845224504075,21.34282114048835,18.83552217758147,19.88072643086565,80.62128839920103,76.58617730622507,73.24925291281674,400.0,404.3562406347504,396.3424346268037,375.60426723155234
93,1,104,0,4.337666666666659,16.739249985609476,152.87458565208047,23.016468730212807,35.632394435096096,37.721390084952525,41.90040246718417,39.81074395837236,115.1584060147225,79.53896432789288,71.16671852689922,63.977227066166506,67.7222354797957,26.064796212141914,49.286160110232004,11.905427981599246,3.363572371500368,21.028422543277966,20.924062482011674,20.903850975458397,80.10156884707027,75.09666562762129,73.26410410705142,400.0000000000001,402.2865280832148,394.31172293941273,375.5271753960538
94,1,105,0,4.3793749999999925,14.798046484806468,152.34054624810616,23.254073047552986,36.00023586438698,40.221719453871245,44.44444444444445,42.280132813732834,116.28958189193128,80.33225234609229,72.90660627779619,65.28182606777989,67.50928994935771,24.130858717092792,49.88947950149225,10.252045301107955,3.512539197872684,23.34996653911521,21.24550380112442,22.13185266952297,75.79088643214692,72.82093459004312,69.7942421965113,400.00000000000006,406.6812548381128,396.58899803356235,379.9158730700528
95,1,106,0,4.421083333333326,23.23364016702002,158.63631887863423,21.22683580949374,33.860326024961005,42.295752888365975,46.65889879784724,40.1308330157619,118.35575979899131,84.51236198353291,72.8918608759675,66.53263264325437,68.05469633630628,27.201123120526404,51.058318430559666,13.906127377428902,7.022248402034961,21.22683580949368,21.121491060927344,21.101337562765252,72.27496384885927,72.5978258443551,71.93720638019852,399.99999999999983,406.9382916084358,398.8999232292047,382.52647249684736
96,1,107,0,4.462791666666659,48.290137746445126,170.27250650424,23.190521955616774,33.85456845327668,46.238259445441805,52.656977967134395,31.563476212815804,136.53671532160618,102.87898911199173,78.65627335573959,64.27674130818673,65.11574155731466,33.326954340357815,71.82774355033769,32.907454215793905,13.284170611191598,21.41150910288755,20.9957120636717,22.023756539607064,75.9761336710256,74.4379665476244,73.60486994075127,399.99999999999983,404.8853093550574,399.49825264723586,380.9955290068495
97,1,108,0,4.504499999999992,54.56705655787398,182.89105968018993,21.092005054511613,31.55087437422935,50.413295311015304,54.92909776377616,29.457120609060553,136.43378453909943,104.9366472266808,77.55515068839327,62.80058480172943,64.11210176943291,34.21654088954938,72.89458146387574,36.324336016215625,16.511061825552588,21.402960475993943,20.987329445336147,20.960851537403528,77.42634098620829,72.97655127435712,75.81627374168635,400.00000000000017,406.81327486408713,401.67029104930236,383.19553264913895
98,1,109,0,4.546208333333325,54.28312097008143,184.02381164937322,18.90594488016129,31.386701764857712,52.23704818282834,56.71783464048349,27.141560485040657,131.59844080123176,100.23673824610884,73.09348110150302,55.89225791185788,58.0717044467857,29.8677914921019,74.60503273056577,38.18718417919183,12.221305031879979,19.248678733241267,18.790311105028156,18.77136209115224,77.4992439893141,72.179519651372,75.42176944537592,400.0,407.18229003232716,401.6529894796451,381.2016034239691
99,1,110,0,4.587916666666659,50.41329531101516,184.9863743796424,20.987329445336183,31.55087437422905,50.41329531101516,56.82103853170098,29.382261223470692,132.28678517004744,100.76104076747663,75.47649136254722,57.51871541156993,56.66441912977041,27.764629158484126,75.1371133875856,38.847075444294205,10.456352435450185,19.349361686112946,21.09200505451169,21.076542513985146,76.54728738699453,72.14707640128745,73.72499634471923,400.0000000000002,407.01353019847477,403.7538925894616,383.47704698053093
100,1,111,0,4.629624999999992,56.347144386498,184.23005651049678,18.897966439035994,31.581000778984905,50.25996062036137,56.69389931710844,27.21025475635251,133.6288021967825,102.25963240512583,73.89144657238751,53.919999646889664,55.187474298930056,27.646064084640898,78.96134518054873,43.1580933123638,10.575855009455722,19.240555656030327,18.782381462165958,18.733042792999697,75.12985070488554,75.07170966580111,75.38994093054194,399.99999999999994,407.0104562547094,403.80906793292405,381.32066498785304
101,1,112,0,4.671333333333325,55.78094357530737,180.37321967237824,14.451817425710502,28.9772748047872,55.895444435260394,60.19132300171754,14.451817425710502,113.62504363381052,84.67153284671534,56.66115612207625,35.3893850169909,36.764739953967364,21.67628726301973,77.41861382635955,42.46841778084013,11.759862591374372,19.034167606431065,18.58090811877054,18.515282428876276,63.01205980164406,59.60256647048385,70.46726064903469,400.00000000000017,404.6982854198281,399.4775212026177,383.6500794362437
102,1,113,0,4.713041666666658,60.29250521056134,173.2580405748987,14.544718619463673,27.091418459143874,50.04045853662674,58.5118564467594,16.622535565101348,118.50844933341534,91.44755411603215,61.1915972633027,41.17802050180501,44.37743070289548,26.205241107492952,75.6234691775744,44.411956712259894,13.637773698892943,18.815432689297417,16.622535565101387,17.60826477578587,65.73752182960044,63.205614476219466,71.13299417448027,399.9999999999998,404.8278534557885,399.0328296475559,382.7359118210851
103,1,114,0,4.754749999999992,58.19320245798751,164.72622734053806,14.53903122800972,27.08082495741667,50.02089131888431,54.36040893108694,20.77004461144258,120.53785831212159,93.48827573042637,64.27208027172173,47.08195945030741,48.78246265404084,27.225403333242866,72.49117908976689,39.071085514352035,16.744750934722447,19.149034967515096,16.61603568915404,17.60078656109158,63.76308611550229,63.23095586127283,68.82379232294039,399.99999999999983,404.86672419291847,399.3307783105128,381.2873349789671
104,1,115,0,4.796458333333325,48.084048163197785,163.39501394840448,16.70910067342044,33.678269092846286,46.13951230261409,52.590550590356095,27.23250232473412,125.59643131980056,91.99494278815466,67.93005771212302,59.730305452298694,60.49414969950885,32.88002282309242,65.48228410174511,29.489017301386866,17.869326025644,21.300007597089426,18.9134177387168,19.940964211259598,66.74378444941038,69.13947777020587,71.28957922526644,400.0000000000002,404.85641483667155,397.4178454923804,379.28186332633595
105,1,116,0,4.838166666666658,43.855524666633485,160.95986219203166,18.88948434931104,33.44103713064436,48.158924649421095,52.316477996924675,27.11792958499754,123.23267900107913,89.79473767617091,67.8440977578706,63.81587251404778,62.648438512251346,36.18467467944697,59.97258731011368,21.94429160802747,19.112397247233844,21.273054172636616,20.859945834613512,20.80575448746356,74.98162742232,72.91261072606659,73.2775189150939,399.99999999999983,404.97316396281315,397.4189230280122,378.80191302571194
106,1,117,0,4.879874999999991,39.85657619892832,161.78972152238555,18.85333623555771,33.77787914364501,46.275978911145174,52.53769636136903,29.62515977811755,121.94991105732527,88.20639469169616,68.28174118418326,62.11733716180743,63.09856252117436,33.05575078290951,59.32950275842927,23.070339772880743,15.901622735623505,21.363006524763236,18.85333623555769,18.72986053615176,75.48508970471255,73.47646367494963,75.87743144523417,400.00000000000017,406.9175034135917,397.292059792261,376.833895590645
107,1,118,0,4.9215833333333245,41.752142548825844,161.03185815162053,18.88050066225572,33.61965514088265,48.136020651621635,50.21350963019678,29.190035016660612,123.29753565501922,89.75203202007239,68.84042574354328,62.10766811756014,62.130765056242694,33.017073846802646,61.172242100914104,25.21030857207768,16.087017792443476,21.76806518426923,18.76502251071042,18.70852033292067,70.60734155276361,71.57741297743354,69.08881604214736,399.99999999999983,407.08305613278577,397.22991377988626,376.8378863057153
108,1,119,0,4.963291666666658,29.402131563898717,161.96592618900777,18.969357861308477,31.700305285619013,46.275978911145174,50.66681871546773,35.85745926028136,115.89838073160477,84.21052631578958,69.48928802572141,62.56240458084642,64.67411779184681,27.788753518384055,52.224292102817,18.18161869031644,10.779019631974506,19.313241288001727,18.853336235557663,19.84082192753101,74.9542161706728,74.00278494373856,69.41396836671765,400.00000000000006,407.41327129416743,397.57361777085583,378.9068358845286
109,1,120,0,5.004999999999991,14.864856381909641,156.70971248463948,21.022081498024825,33.89708788856275,42.253860870443056,46.67659583573225,35.799314804585904,105.44622434407736,71.5986296091717,64.14715814451563,56.70263593473953,61.92645831996106,23.530213166911835,46.128422780513574,9.906852585188972,4.4298934324014,21.438400754953253,21.1269304352217,21.125413875036998,74.30714749727025,73.13351339310151,69.65894384352504,399.99999999999994,407.3079149799363,397.81199674404894,379.8254419938957
110,1,121,0,5.046708333333324,12.84626878487273,159.7952582925991,21.22446879035558,31.959051658519865,44.80045238729654,46.89209133305666,33.85655023659385,99.8200371022635,67.87757266222347,61.4708489614826,53.56554560358984,59.78058938973618,22.833025348916976,43.13937401841929,6.8713988775803045,3.7813023409171365,22.04902508389484,21.22446879035558,21.125340420760836,69.8989130116679,72.03642339793129,69.98054374767074,399.99999999999983,407.385884973668,401.73570396092555,382.9616230337441
111,1,122,0,5.0884166666666575,39.656950314151345,163.65586291765402,18.874347822618457,31.884011464695433,46.044200767735255,50.41304858567957,33.414240149752885,123.60931851512949,91.92313571563918,72.04804611568068,58.6037828098473,59.49171891302683,25.67046041884339,64.55750821962783,29.085599277226038,9.300561490995506,21.760971335610776,18.758907303472906,19.682583620479022,79.52720021553881,75.58840673220396,75.7558955741855,400.00000000000006,406.790230418226,400.9275406217695,382.4093786138472
112,1,123,0,5.130124999999991,58.89721901726667,175.40388183576513,21.085910902418018,33.83127412953829,48.66568245791708,55.193092362727924,27.275645198568387,140.9653771328685,107.18942318454138,77.60293364451172,57.74943102563839,58.740397593534,31.147104366786607,82.60902337543234,43.07287444249528,12.933822274085287,21.90508431548829,20.98126553736034,20.84446918676889,81.9085125257132,74.32249259216769,82.06867005321253,399.99999999999994,408.88174864858337,402.9495609243108,380.46156735872154
113,1,124,0,5.171833333333324,65.07575511773572,181.90890319551406,18.999344012632697,31.750416109520764,48.66568245791709,55.19309236272802,25.264789335087954,140.96537713286855,109.28399860588186,76.66022470132577,52.18063256824962,53.55800092356344,27.62135796833718,87.9523685729888,52.96038242229099,11.627948553330498,21.39677647897438,20.981265537360255,19.91492510430902,81.3899482685394,77.01879580208919,78.64476921491071,399.99999999999983,406.8039606361505,402.9495609243108,382.87216754667713
114,1,125,0,5.213541666666657,59.00702089074942,184.68517290276125,16.979525078549983,29.78405726833405,51.242429678886886,55.401549013338695,27.45954401039629,133.09841714027678,103.389725368283,73.79821891239146,50.88207852757921,51.26617947561158,23.64480247740312,81.89258153783771,46.87161274665311,7.953149041611027,19.416829778041624,18.954457979118736,19.85462988726033,81.04530003482535,78.0289778841007,76.5456066337925,400.00000000000006,408.94823015839705,403.0268313457252,382.2409836020849
115,1,126,0,5.25524999999999,58.63165025110651,185.23300522083846,16.839364110985294,29.538198667141288,52.59126754684121,59.07639733428282,27.152658756042424,131.9997289943249,102.53627370359771,73.05021051580866,48.82158707789699,48.57110318897128,21.757941442598167,83.1606511233582,48.74188765869337,8.061026970884086,21.300297975844064,20.990834098535828,19.81669130342351,78.36730033982383,75.2817942535109,73.84549666785323,400.0,406.7539733699222,401.13265310582636,382.23159533801334
116,1,127,0,5.296958333333324,56.43264931600521,184.9855485685051,17.22358154884837,29.53819866714134,52.59126754684137,54.9442255794755,27.152658756042367,129.9177151768111,100.45159238397778,72.16927886161932,48.24059246099182,47.158560480558435,20.738946291641355,82.1217188483148,47.51923780736968,6.875411542337702,19.25654957961812,20.886660581571164,20.73894629164147,78.76291124238583,76.59884728151889,71.77843054044583,399.9999999999997,406.75397336992216,402.90146293099235,382.54533247613966
117,1,128,0,5.338666666666657,56.43264931600506,187.06100679706802,17.223581548848408,29.538198667141383,52.59126754684136,58.81737022921501,27.232873580005958,130.1022693948514,100.60347953124831,72.4219738480108,46.0468087165865,45.488181921064665,18.554389994118424,84.312744209833,51.67297858577081,4.588720106072287,21.806313841918218,18.79799452341396,18.674095736016056,79.16539730823882,75.89344036303947,75.9137452455036,399.9999999999999,406.7539733699222,400.8334647494919,382.23159533801345
118,1,129,0,5.38037499999999,54.66386311846677,181.45769906984964,17.324489344118778,32.1376350437754,50.81406267478753,57.07345539166882,27.31173803482224,130.86449954582528,98.94338332323319,71.59118582793121,51.12269542254535,49.18147178577237,22.98637165190621,80.7092274394796,45.26476762451853,8.655573627493709,21.934070490355012,21.1138130958924,21.005181646140784,80.52652403837163,77.36347140668857,78.4399616662762,399.9999999999999,406.77842820775595,403.18182772403884,382.3931899552319
119,1,130,0,5.422083333333323,50.729905012930196,176.55648043658786,17.026791615106546,30.238000723586115,48.757311125357674,53.176625161886086,27.53598416610094,125.24555648318601,95.24706827068789,69.86788493969993,51.079357408983356,54.17954962166732,25.102472110395183,72.61604067402061,38.84325078199822,10.668976497496601,22.049025083894815,19.12419083527031,18.907765692742885,81.2750024402165,77.42531320908148,74.3981323365652,399.99999999999994,408.91031927174987,405.29486931151126,382.3088603113914
120,1,131,0,5.463791666666657,38.24838167054073,169.79575032284419,19.12419083527048,31.95905165851972,46.89209133305631,50.861614204770994,29.566790104396958,118.73763391341647,86.81994269930635,67.68321613420983,56.13981047808829,57.41987130332143,27.338441910339384,61.957229764193016,27.95561409393406,10.35477774697631,21.537377099517414,21.119135788855004,20.93242322691742,76.15218998686919,76.26648113197933,72.08403771885517,399.9999999999999,406.8161755184419,401.1134949025478,384.08967629420533
121,1,132,0,5.50549999999999,29.884694209690085,164.8306009888811,21.398158010373855,32.220586720241656,44.91544520071651,49.70658816416644,27.761323309308356,111.22885615785147,79.03879527898539,64.09713622951097,53.39994078718098,57.12818584751062,27.502977021969173,55.952354713098885,19.300837889244235,8.001387475630281,21.713626986692784,21.291963022311833,21.222318035721685,75.539980683907,75.25319260234318,68.43304487539868,399.99999999999983,409.1271609895944,403.537470394242,385.12564640972886
122,1,133,0,5.547208333333323,23.426320407621375,168.20909968652757,19.205741969893595,34.19879765388882,46.85264081524253,51.60419610604152,33.93471032216108,110.61362257604414,76.47083630285579,64.75963427797637,55.906631096525416,60.106347975771655,24.139972621907305,52.5972541956794,15.706941128380663,6.433966259005274,15.440526262889712,14.846435765945523,13.691077026342555,72.4031189982046,71.1600028019476,70.27896122286425,399.9999999999999,406.8905229465242,400.9827955649911,380.14189188539405
123,1,134,0,5.588916666666656,21.33928756702892,166.10967945504078,19.110046267601284,31.920776593918877,46.90608001795754,49.250468591143715,36.09675406102476,108.37349836921699,76.46967019592644,65.7848439062384,57.24656712746696,61.02862261336577,23.09346001238157,49.224025187681946,14.325967749616439,5.271956131858815,7.655805743814055,8.493353896711689,8.480972907772866,69.28038003714482,65.67023616424154,66.13100095754281,400.0000000000001,408.9232380383325,400.81634461434953,382.21272149484724
124,1,135,0,5.6306249999999896,18.83165623381062,161.2375182232783,18.831656233810506,33.543823935717135,43.99032219841086,48.3069494245241,39.81074395837245,110.89753115466188,77.44730178185993,67.9194919649641,60.645086147534016,62.47091000639648,21.8752187647259,49.29724418928731,14.31769469070025,5.720144367955186,12.727610324719885,12.554437489207043,12.549650067877678,68.63017656825537,68.01771666623188,66.98968581206424,400.00000000000006,404.6142397315863,394.46158909702626,380.2023641882048
125,1,136,0,5.672333333333323,16.84000622422536,162.4264213492441,16.84000622422536,31.645100572802953,42.30999200309153,46.500987069562115,42.15260773042601,107.35503967943647,75.80925849342182,67.34744237037557,55.13399584055992,64.76827705205267,17.86332212623131,47.40228276747109,11.733467333804924,1.1392277302904859,17.358281099635008,16.84000622422536,17.88645365375004,68.95508353291751,72.19349738552017,69.46502567492928,400.00000000000017,404.3574450482149,396.41697464989903,380.04446801416725
126,1,137,0,5.714041666666656,23.036333486258297,163.46932182088554,16.884078012906787,31.482911706359797,44.02828879654844,46.26265815782594,42.09314296428331,113.08745529617708,81.70111773140857,70.16650271108722,54.048176189262904,61.22332047693328,15.729243737485035,55.450018574015076,19.73450769391991,0.9555415438924229,23.13132907891298,21.046571482141676,22.006064537783686,67.52875030549217,68.47857004373259,73.29742472900381,400.00000000000006,406.3635042990775,398.25285889688024,379.7517503834612
127,1,138,0,5.755749999999989,43.973633695660325,169.62551243759808,16.751860455489545,33.503720910979204,46.067616252596615,52.34956392340516,35.65923800557712,129.84380438802455,96.34595561055106,74.3608742718227,55.2457860344133,55.96296332380473,19.976857722242812,74.23941682765155,36.13648148482139,4.939269396292843,21.044264250005572,21.04426425000554,20.98900309033553,66.39673614688701,73.63791329461372,64.94722439566185,399.9999999999998,404.1440582775556,395.9011699479148,377.3877122250391
128,1,139,0,5.7974583333333225,42.15552646162031,176.84483892089722,18.94631879257659,35.7874910526446,48.46411269554273,54.77427847170771,29.77126777056233,126.32633362019453,90.54577603712566,69.51226156357973,47.100638885225294,52.10400345545065,20.06521722473144,76.72400773721495,36.31752558732569,2.8467419106455054,21.46836649646619,21.468366496466246,22.170080940481625,70.97876497209393,73.98078371422929,69.46983557278084,399.99999999999994,406.29873448503275,402.28132956220617,381.5022726617615
129,1,140,0,5.839166666666656,40.04150096222623,183.10660196088193,18.940811103527594,33.67255307293792,50.508829609407066,54.7178987435242,29.762613272172942,122.08114608068553,88.41550224967499,68.44011145096397,42.83649175197604,47.958371872387715,15.868578928363604,76.68367922941445,38.39097729080595,0.7226128838052546,21.462125648924843,21.462125648924786,22.163982372074997,68.7927465382611,73.98399749551817,69.4815202834512,399.9999999999999,404.070636875256,399.95016990658286,381.2926475097346
130,1,141,0,5.880874999999989,41.87965113872408,182.18851643849766,16.75186045548947,37.74980739480352,50.255581366468526,56.57629320298162,27.54204041341689,123.562715199846,85.95536963243735,64.95535028625545,43.07854391892761,47.16328234629998,17.854998083794385,78.43956383431839,36.28780930647531,2.9233912274331715,23.1287933050534,21.044264250005696,22.008387577173323,74.29189526310677,74.1889186640974,73.31929742688004,399.99999999999994,404.13863348868716,400.03836483597587,377.3877122250391
131,1,142,0,5.922583333333322,42.15552646162034,183.14774832824014,18.946318792576477,37.89263758515318,50.52351678020424,54.73380984522119,28.086157842488955,126.37894402031803,88.51634267440123,67.44190381038288,44.961269206922,47.96328794905719,18.995532385579736,79.89855629211661,37.387210426477395,3.8474148246905315,23.25210344563642,23.252103445636426,22.135574977928286,77.29335611934403,74.01528967678263,73.68012863779778,400.00000000000034,406.29873448503275,400.17722641543025,379.3997381545831
132,1,143,0,5.964291666666656,42.10001556056329,181.03006691042245,18.9450070022535,35.78501322647887,48.415017894647825,54.73002022873214,27.686962485280976,124.26638137531265,88.51021404946745,67.4197056726374,47.07025599642054,50.02144094103221,21.11584266570901,75.70132543968691,35.29983232198151,5.971002097237374,21.1549960015457,21.15499600154572,21.09868461370536,77.2455501200069,73.98552023933132,75.80925849342178,400.00000000000034,406.2706034927273,400.0886107506789,379.18654579464317
133,1,144,0,6.005999999999989,48.41501789464783,172.66139764741436,16.84000622422542,33.680012448450604,48.415017894647605,52.62501945070399,25.347565957057427,124.21288361232158,90.53950689988041,66.32640548239658,49.67511559072716,47.33130573921767,23.22192187830376,75.70733374729684,37.54646849505252,8.214712198008442,23.534624161804583,21.466880086587125,22.146727553217943,76.77683921351945,76.71995062489077,75.78002800901375,400.00000000000034,406.2651501594363,397.9843423251649,379.1865457946433
134,1,145,0,6.047708333333322,42.09069134117248,166.27155010314416,16.96730011983051,35.77708763999674,48.45002419287986,52.61336417646569,27.680830437369853,122.08114608068564,86.31157848930157,65.25959194128461,51.786791501951825,51.4894291832569,24.23502897363869,70.44055849393146,32.30955962743246,9.252542916316088,23.529411764705955,21.150310639288595,21.078413590569085,76.765226272328,74.59219394340334,75.7632444141105,399.99999999999994,406.18062356781314,397.84610402937113,376.9996282799006
135,1,146,0,6.089416666666655,39.99113867955445,164.18763999606713,16.838374180864996,33.74245915272437,44.25081805639146,48.45606061794816,27.443192364899563,117.86861926605542,84.21817675433589,64.21538646036026,49.68857121193537,53.577639861119906,24.249486871386353,66.22855140817342,28.11567864616427,9.26513413482212,23.24824022126746,21.46479963135195,21.092478203224914,76.77479050978587,74.60148744112388,75.80191146543825,399.99999999999983,404.12098034076155,395.79134893626684,374.86660971643886
136,1,147,0,6.131124999999988,29.467154816513755,162.06935149082622,18.943170953473278,35.7815451343383,44.250818056391516,48.41032576998704,29.542230491863343,113.67851290927577,77.90591859387072,63.162966803169866,51.82048159013664,53.57248030910057,23.2082947187439,60.97865671199395,20.739569251112925,6.1206189013157655,23.532343311869823,23.248240221267327,22.12182798068511,76.76939841278624,74.5850883216105,73.69794943267739,399.99999999999994,406.2312299181529,397.8288623811665,376.85267968569445
137,1,148,0,6.172833333333322,29.54509384438195,155.78427990304124,16.971058832832096,35.785013226478746,44.205016338591314,48.46075717541537,31.854441999339837,113.74797828734182,77.99872961952886,63.193105529094964,51.48559471200224,51.92026536275898,20.06348214282434,62.02063864218519,21.65346162848698,4.987273782366856,23.250493534781057,21.466880086587267,21.115842665708897,77.31418232802116,76.12455738910796,73.70509253614696,400.0000000000001,406.27060349272705,397.895262956957,376.889205772303
138,1,149,0,6.214541666666655,33.50372091097933,165.42462199795997,18.845843012425757,35.597703467915416,44.02346219175481,50.29918708518591,29.390445741845372,117.2817179710393,81.69216123963295,64.93915387107518,49.006341096683855,51.73275021403458,21.0232601770399,66.91206173447449,26.752170474257696,3.8940484650770486,21.354515837881188,21.04426425000561,20.988748669225288,76.89163941085326,75.70674430921986,75.38337204970348,399.99999999999994,406.2326160456234,395.81255684850066,374.9690770113135
139,1,150,0,6.256249999999988,41.87965113872397,169.66428250684942,16.75186045548968,35.597703467915515,44.02346219175478,50.29918708518595,27.30219224326176,121.46903853473985,85.87881741036419,64.93230258818096,45.22738036297221,51.24864321409848,20.995192836164506,73.2285162533608,33.19617282397326,3.995311628660943,23.41143670504086,21.35451583788123,22.030804773905174,76.39760196447992,74.20187829320469,73.3192974268798,400.00000000000006,404.1440582775558,395.8513275203063,377.12620037032053
140,1,151,0,6.297958333333321,50.25076171089222,175.92751087108107,16.75025390363059,31.476441418284704,46.06319823498469,52.3445434488461,25.471954204496654,123.55086517815278,92.22151925882953,67.06093156554039,38.46513810551755,45.55082144074447,16.81699518847688,81.54287201854459,45.573826906118484,1.7829235664938778,21.352467878061663,23.4091914805621,23.097487235609606,76.84975708222555,73.60598646447562,71.21936334228702,399.9999999999999,404.1052996937063,397.8405694085101,379.0670261125029
141,1,152,0,6.339666666666655,50.25076171089214,177.98376366309847,16.750253903630675,31.406726069307517,48.156979972938416,52.38640234673797,27.299573884076143,125.64435124686891,94.24343957803596,69.11355279867655,40.98075585579522,45.019339556826935,15.759629031646455,82.64223615978142,46.77549422568927,2.9231108657608047,23.409191480562203,21.352467878061592,22.02915840321981,76.40130865577919,74.22756672037974,73.28236082838444,399.99999999999983,404.1052996937062,397.8240401250143,376.97375831214407
142,1,153,0,6.381374999999988,54.71789874352425,178.88543819998304,16.83627653646903,31.56801850587941,48.40429504234832,54.71789874352425,23.529411764705902,126.34220570014,94.79754424278973,67.42067836838783,40.34263115394708,44.23052644656093,19.050686933808265,84.04714823738993,47.72963220991369,3.7735454310663954,23.245344066312384,21.462125648924967,21.131854413972178,77.75790585227895,73.41261111347524,73.65870984705181,399.99999999999983,406.18062356781314,397.7626006868797,378.90974539553525
143,1,154,0,6.423083333333321,54.724716087811416,178.9077256716913,16.838374180865053,33.67674836173022,48.41032576998714,54.72471608781142,25.605957884626772,130.5652789179469,96.91212123589607,69.51768878271434,42.890972842247265,45.80755899552014,19.026435552820885,86.19941782015906,47.906357266600594,3.883062741318213,23.532343311869756,21.46479963135189,21.096639842006653,77.30668945086643,76.1514925823152,73.66788704128471,400.0,406.22577711336976,397.85670107560475,376.85267968569434
144,1,155,0,6.464791666666654,50.50882960940683,178.88543819998307,16.83627653646917,33.67255307293812,48.40429504234847,54.75835560579332,27.68083043736985,128.4455911901759,94.79754424278967,69.50930233635142,44.98269491146516,47.91484910431359,19.024506321835133,81.97958163887802,43.68909747344378,3.8807923140642515,21.150310639288637,21.46212564892492,22.16363610476708,77.27088696447993,76.09802528734065,73.68876849341497,400.0,406.1969795052266,397.7570331740801,376.7645910823173
145,1,156,0,6.506499999999988,48.410325769987026,178.92010640079297,16.83837418086517,35.78154513433835,48.41032576998714,54.76517799063157,27.6842792129182,128.46159432329,92.70668120866117,68.4654302489846,42.890972842247265,47.91207606297962,17.974177019091144,83.04264221896972,42.64506459795177,4.935321275047954,23.248240221267373,23.53234331186981,22.148898375736565,75.16785960513306,74.01266273658177,75.77268381389274,400.0000000000002,406.23122991815274,397.82886238116646,376.9055766519968
146,1,157,0,6.548208333333321,52.89820726517043,181.96983299218653,19.04335461546147,31.809377108076227,48.666350683956665,52.89820726517043,25.741378645802172,129.08896823642934,97.42465481437141,70.95851291711631,40.52485211155579,44.458415634799394,17.014949193565258,86.5955713997779,50.08432625525256,1.703781874893366,21.26481614380945,21.264816143809437,21.222947381221047,78.16814024678217,73.82292472692018,74.08771155187675,400.0,408.3741600871159,402.0764861833233,383.1933866325048
147,1,158,0,6.589916666666654,46.09813069632591,180.0280821415332,16.74566630113896,35.58454088992036,50.236998903416996,52.37205462452909,27.531856490866513,125.60993944976036,90.0322927098452,67.0348856509055,42.18243141954554,48.166477067424125,17.878608972537222,80.43394438419921,40.12930422655893,4.779318121415258,23.120241221178485,23.402780111171396,23.110406916098555,75.2360824272987,73.03024329433777,73.29218694286249,400.00000000000017,404.01089021026996,397.71508305676656,376.82981834928114
148,1,159,0,6.631624999999987,50.515122542595215,178.9077256716914,16.838374180865035,35.78154513433821,48.410325769986954,52.66199842573849,25.605957884626726,128.46159432328983,92.70668120866115,67.44229443303459,42.035485762018766,46.84309648560816,19.0777305537257,84.02006741049388,43.42120885293582,3.670752187775861,23.24824022126733,21.464799631351923,22.205505530366793,78.2339665043387,74.90823108613807,73.69794943267729,400.00000000000006,406.23122991815285,399.9335419373475,378.9569540465883
149,1,160,0,6.6733333333333205,52.613364176465616,176.78090363292463,16.83627653646903,35.777087639996694,50.508829609407194,54.75835560579324,28.077993205037664,132.7359165011933,97.01425001453309,70.62247449171684,44.59644600351294,48.43860135150783,19.027816961498843,86.1740556621728,45.648464729749776,5.854712911230308,21.1503106392886,23.24534406631234,22.138133195590058,77.80364579689791,73.36687116885628,75.76324441411046,400.00000000000006,406.18062356781314,399.8837201229591,378.96234212307263
150,1,161,0,6.715041666666654,58.62588866270747,180.06522946403,16.750253903630817,35.594289545215275,46.063198234984384,54.43832518679985,25.898649787718973,136.24068997492725,100.69762414176002,71.30828228048165,46.41636753420005,50.32990440473054,23.117171281738933,87.82704837353504,47.508517358533936,7.963592469103105,23.409191480562285,23.40919148056223,22.070527700085336,77.45162504236106,75.03979418029007,75.40521726079137,399.9999999999997,406.19905347188495,395.77459727973076,374.9331163925329
151,1,162,0,6.756749999999987,64.88945691691362,177.9350170135036,16.745666301138982,35.58454088992037,50.236998903416826,56.51662376634407,25.89155659910336,142.47661735864494,106.9381580238636,74.45142686432825,50.218660885319764,52.933183095337085,26.296933909542417,90.87994148953715,50.44487106948793,10.914641386111157,21.036482939905305,21.346619809405144,21.037547127633957,75.83696424235796,72.33070638775229,75.38456508652648,400.00000000000006,406.10398669616103,397.71508305676656,376.8705117725451
152,1,163,0,6.79845833333332,70.79877205616818,174.96418526275951,16.65853460145125,35.460577752283406,52.05792062953546,58.30487110507932,27.781571556648572,150.15800169905944,114.69767022723514,79.29025114150897,55.81706147483169,57.386489853708326,29.341487083346692,93.5174605761083,53.08762081591567,13.886029352235028,22.999941086291887,21.23554825016522,20.948457057180008,73.83136982367694,71.30663721417966,77.073856811464,399.99999999999994,404.0177623614126,395.6401967844686,372.82776453131805
153,1,164,0,6.840166666666653,83.73958826153775,175.8106639053546,14.649850582563351,33.4853727601448,52.320894937726024,56.50656653274435,29.964848463553874,161.36564739704855,127.9371594992173,85.99941335498659,58.204493903176626,61.842274772125165,30.534623168736744,101.31219720021681,62.774456119793285,17.09757008405802,21.032739460395256,21.34282114048842,21.019552583393363,72.16447798776676,69.59529524907168,79.5277603053439,399.99999999999983,404.00404927595895,397.64430895120466,374.64099066455753
154,1,165,0,6.881874999999987,93.68775532331424,172.91469978983255,14.573650828071095,33.37619942164703,52.09037531747295,58.29460331228462,28.317583134659504,168.95894270308818,135.58275556795988,88.73757000353612,63.772626954750535,64.17270617027577,36.607248220575116,104.94077823231521,66.37314185566572,23.084570735816214,22.995890676353632,20.923339738251375,20.924142971978938,65.93305471858764,68.49356169795038,74.97911465674059,400.00000000000006,403.94661272003844,395.57052247621556,370.63975088989486
155,1,166,0,6.92358333333332,93.71088524721277,174.93337315449492,16.655600946366913,35.454332959046646,49.96680283910096,58.29460331228464,23.737883611631922,168.95894270308835,133.50479768658826,86.61631702944885,59.707165906111754,62.23096461729938,37.84561220514979,107.94355298524965,67.30129896500034,22.248081431504374,20.923339738251453,21.231808559034995,20.923655531264046,63.913497091424404,64.43644637392254,72.86825414035557,399.99999999999994,404.0324469503827,395.61982874820876,372.6923324614937
156,1,167,0,6.965291666666653,91.61084903171653,172.77929942123333,14.570690649263511,35.38596300535414,52.07979479602935,58.28276259705382,27.77103711782561,168.80916383743482,133.47768038581765,87.61913653552949,66.14146518420182,69.84892035794303,40.74132950328942,100.79280562466909,60.28972951028777,27.35265125830597,10.407636178045317,10.613747992445438,10.471526995425393,65.54873724106471,67.03636815717385,68.69039877509913,400.0000000000002,401.86954779987195,393.43067365674915,370.5176948788964
157,1,168,0,7.006999999999986,64.19358068734978,165.77729275291378,18.63684600600482,28.99064934267422,47.672490630654025,53.83977735068049,29.648780699756998,140.94869439551275,111.9935064792942,79.92083541357749,67.1369305998362,68.24559288587375,38.454580014155454,73.25743218924924,38.96890787881193,22.876160469113415,6.548320197865255,8.537964956792033,7.332029448381775,68.24559288587363,67.46838633483702,72.47662335668532,400.0000000000002,399.7909029231235,391.395678323986,370.6892957213976
158,1,169,0,7.04870833333332,33.15350211974953,159.60504049715928,16.57675105987482,29.009314354780894,45.6331341576172,49.77340308204126,33.41150991852291,111.96978757174124,82.98729532137924,66.41695329614663,65.55704044256788,67.51447364874059,33.248077897909184,45.43394820454466,11.354244060082237,17.882792961594532,6.216281647453089,8.288375529937415,7.286629969798753,74.04302255025294,70.34313435130218,72.55288118950497,400.00000000000006,401.9915536146407,391.64767009512923,371.04947604375695
159,1,170,0,7.090416666666653,27.154137376560715,162.49831875215912,14.72639863191989,29.1567817382433,43.73517260736523,47.90042714139956,35.648836526091955,106.2956308994391,77.16970121527147,63.59595804035234,63.39698972611143,66.33035115891937,29.310875092165475,41.43088783392216,9.220760162818578,13.836825053206098,10.413136335086868,12.668127104390726,12.57479746002133,72.93609919171541,72.25392211431819,70.83994732956968,400.0000000000001,401.9686435847082,391.55608118167106,374.9654578505072
160,1,171,0,7.132124999999986,31.215724199057554,160.36229114129,16.64838623949733,31.215724199057327,45.83033430560227,47.864110438554555,33.55589523901342,112.45365656488852,81.26753326962665,65.68477710806883,64.2559739718838,67.74477841686576,32.512444054714706,46.421756512997035,11.797667662635604,16.583297444074333,14.56733795956011,16.777947619506765,16.80708588709132,67.99725768591048,70.29252376813514,68.80060177184772,400.00000000000006,403.9860936197403,395.4867865667536,374.61181243373386
161,1,172,0,7.173833333333319,39.594643874158685,170.96289760122,16.648386239497356,33.36174185292722,48.04473036502421,52.0678113289473,31.49197493085076,120.98750087836106,87.62671353931039,67.82982060136487,63.45995999744173,64.3042672681737,32.460191692326816,57.10483635152764,20.16068847815177,18.357978359561912,20.914276374916067,19.186317134653528,18.9626849183295,64.57809665327602,67.49894342769971,70.8779504103929,400.0000000000003,403.9860936197406,395.5962760034093,378.84225055456915
162,1,173,0,7.2155416666666525,52.023474032504986,177.17824762380377,18.71348584655414,33.33333333333336,52.147981926656506,58.256851844713346,29.770704646790787,133.47916797618404,100.15120432007684,74.14599850389948,62.77946620350258,62.99717196328845,33.406375929240994,70.58822806108378,33.24596115887255,16.952403768585896,18.828646846403526,21.204539888649332,20.00028440558748,65.07110578019547,66.76691906694828,72.89338612975318,399.9999999999998,401.83861913988864,395.4125177968403,380.71200958368115
163,1,174,0,7.257249999999986,56.178949458850305,185.47563330278862,18.71348584655408,31.258375444859496,52.14798192665655,58.36806451707212,29.770704646790758,135.55222437842406,104.29596385331344,76.22819206221959,58.04824667499565,59.80245193165763,29.422806350375595,76.62687507509736,41.22382353155592,12.837593014662616,18.82864684640354,18.828646846403448,18.897574810403853,63.629808855283784,66.34085334285226,70.81759571872556,399.99999999999983,405.89047994756186,399.4862675911994,380.59843201266216
164,1,175,0,7.298958333333319,55.88899068281971,188.64625468897586,20.685443493923827,31.09704027622414,53.821918082672724,57.956168303653946,27.597823811339897,134.8525929782716,103.75765670597202,75.8265351765424,55.96937578424877,57.075084430088395,29.2556828819296,78.3286284524371,43.24232729888968,10.675218008543538,18.73146575906588,19.071036591104985,18.865441328499287,62.52383425185434,66.57049991446291,70.45208188171354,399.9999999999997,401.8303801031139,397.4243823066299,378.68488359209846
165,1,176,0,7.340666666666652,55.61893663352528,185.68068145254654,18.640955837243055,30.878238009008587,53.680395599132815,59.839727318419605,27.464471893888724,132.14859759883788,101.392691019607,73.53122445785004,54.25615929207197,54.18806957114509,27.111057215804294,77.91733731423687,43.146186494134554,10.826265627407793,20.688163425993647,20.993165087106348,19.785738072731192,63.77737193504396,64.67388659391725,70.11165938059237,400.00000000000017,401.7547652951354,395.50403873951586,376.8550887618247
166,1,177,0,7.3823749999999855,58.29151447768125,189.73780027603163,20.80513367594895,29.201396660604836,54.13334264430471,60.370747923542766,27.75751043137527,135.63287750080895,106.43203643153373,77.2772179197841,55.23286872980236,54.132069825592225,27.31002642249223,80.93141634406925,47.90744921776468,9.0730796280003,18.839849828615023,19.181385486533305,18.940550217801615,68.04526009942361,68.2722289456525,72.84768342219625,399.99999999999994,405.8921086352838,399.5073256344377,382.8201131646475
167,1,178,0,7.424083333333319,57.706701228294456,185.65348468202546,18.536764388943112,30.963185883894383,53.70885288403247,57.706701228294335,27.479031479237616,134.27213221008063,103.31104127361654,74.4487044504159,54.71868420985538,55.74658685625218,28.13026908972529,79.02287122688142,44.371130902794334,11.9807764007802,20.69913072521128,21.00429407513176,20.809318019277157,65.3974505918664,65.42029287289739,72.116834501317,400.00000000000006,403.94690859806127,395.5367826745713,376.9367183018355
168,1,179,0,7.465791666666652,58.57375286693335,188.56309764114621,21.023533249105466,31.448449530077838,52.465080298521244,58.72298560017881,25.449302085566433,136.2320071913413,104.78409089827124,75.54997949731853,53.44753118342237,54.30333067931417,28.566587172864615,82.3564381546438,47.18878420346789,10.229656640892017,21.023533249105494,21.023533249105355,21.06978358885334,70.5064678015301,68.77204748985633,73.21719108366678,400.0,406.0264798320648,399.6442814124377,380.72939363506646
169,1,180,0,7.507499999999985,43.52533586362382,178.47765323120933,18.632601933397915,35.194914763085045,49.8591640955552,53.867315235522014,27.621101737331827,124.49307874000694,89.40677186064035,67.60003875854648,57.221988558999215,55.62360899031228,29.181844125459293,68.0681356322334,31.30540555242942,13.20946543550724,20.806147992056182,20.806147992056164,20.79035138985182,65.70481726996024,65.41939234698032,72.48968815513943,400.00000000000006,401.82812888689966,395.5119229827812,376.79830443988226
170,1,181,0,7.549208333333318,31.073070949497918,172.04993490041082,20.715380632998677,33.14460901279773,45.62089350982246,51.78845158249638,31.348059238545094,116.08009147040868,82.9650347803883,67.45227748035643,57.31098942631172,61.42400207441449,28.101819933603565,56.67821824968041,22.226087579171008,10.19213573788113,20.818699880581327,21.12562601583243,20.926646770017612,74.07942560703856,69.92121501774784,74.57537027879509,400.00000000000006,404.03489958227794,395.66377009027417,377.0426909879178
171,1,182,0,7.590916666666652,23.021193772599545,165.3870027011469,18.8355221775814,31.39253696263574,43.999352955449375,46.042387545199105,35.823578420828554,108.90792540861335,77.54796825343276,66.05432982042907,54.537980020237455,59.33078043017906,21.18145204867608,51.959862264178696,17.274524700287657,3.327702654296104,21.032739460395284,21.032739460395298,21.011091844531222,74.18619023160988,73.39117594560071,77.46320090991226,399.99999999999994,406.09643805348276,397.6388015267196,378.82640390073465
172,1,183,0,7.632624999999985,22.7731801408197,163.76235452542423,18.747265181391235,31.054336555663244,43.52533586362367,47.66163442078254,35.25575303626023,107.73463047104391,76.71252273163833,65.34305139624064,53.905461833227605,54.60966297812013,19.00207282911697,53.46249659692421,19.138369824902725,1.2153148790887371,22.867090560435663,21.112889077200613,20.898872687134144,75.62211649507566,70.57912765100639,76.62866860994836,399.9999999999997,403.89743362297065,395.4468966345068,376.79261687538076
173,1,184,0,7.674333333333318,43.94053121222451,167.60160986873717,18.947544442906775,33.543823935717235,46.08046760985584,52.35198760412133,33.73903697429632,129.99889492989377,96.45516214004044,74.49980004771169,56.9886725704057,56.89681091806585,23.29841157472356,73.04149631681469,36.273869967743735,5.339458542260445,21.02842254327782,21.33844057988237,21.105214625106896,75.70548423467369,74.24718050377663,69.08110204091462,399.9999999999998,408.21231789815835,399.6715028189392,378.7255309244113
174,1,185,0,7.716041666666651,43.70201387868036,170.84886742005128,18.844693665889462,35.377820758931804,45.830334305602506,52.067811328947215,31.491974930850734,129.1759488760719,93.85504670999543,72.04140664209956,53.66923037955519,55.598961590325985,23.224882689629908,74.53303017600672,35.7681355596402,7.185410920105369,20.914276374916057,21.222611576256636,21.022718837338573,76.24708554557378,72.56924488504592,75.17741905768935,399.99999999999983,403.85743221029804,395.4484581020552,376.6697386686265
175,1,186,0,7.757749999999985,29.270869175803217,173.6477570319061,20.907763697002114,33.45242191520337,48.13328670360377,52.26940924250569,29.568042979192313,112.97933358823956,79.55946680995426,64.94809415117413,49.64684039463657,53.74154210413269,22.225950137832,61.25605701421853,22.316691449953737,4.032317057412229,23.09337980954309,21.321819015320166,21.120040396347576,76.69909407094661,73.06944158607462,75.38401406482616,399.99999999999994,407.8943411757427,397.29702554480366,378.4305229157397
176,1,187,0,7.799458333333318,35.54319828490374,171.55836167490025,18.816987327302108,33.452421915203495,48.08785650310523,52.31120805705639,29.568042979192207,117.15812349224463,83.73552835127582,65.99197242348475,51.29685279103876,56.19522600185394,24.265089516539206,63.361364588046854,26.39678896939381,5.941545283489063,21.012042467065903,21.32181901532019,21.13557329851801,77.05866745532683,72.4777813970644,71.2092772087481,400.0,403.8663477981014,397.3850375139935,378.45362471192215
177,1,188,0,7.841166666666651,35.729644455142115,174.5586474647129,21.01743791478944,35.79140706728193,48.38577571415748,52.585612862290596,27.64412351564994,119.965208506617,84.1747732512096,66.3377039293307,49.80856409225066,53.8685517846518,24.314563163430194,68.12387169903229,26.639416450978274,6.033277799881034,21.01743791478954,19.37712032337951,20.180860610692207,77.07172166915655,71.39000704934381,75.77945008065417,399.99999999999994,405.90326574360887,397.3685564958748,380.42143213546063
178,1,189,0,7.882874999999984,37.622155987667874,171.50448506060837,20.90119777092651,37.68017014084472,48.11817080661682,52.25299442731646,27.491233477032935,123.476379855633,85.79680734252672,67.01419684818222,49.57858388101067,53.65950315537805,24.24478726204336,71.8516910442022,30.698600608866286,6.041136116830671,21.005443793026213,21.005443793026064,21.052270357797852,76.73503826577684,72.84899435001682,73.27353027463508,399.99999999999994,405.91934167441724,395.2316467687128,378.36364038924336
179,1,190,0,7.924583333333317,33.62790066366316,170.29313411103277,21.12226369182652,35.729644455141994,46.286105669356644,48.38577571415772,29.499379859736,119.87311882657856,84.17477325120971,67.38672309566346,49.933312317436275,55.84184189213181,23.39029222228305,66.95010430751415,27.813183842496528,5.109006858733778,23.214518942516797,21.43366521064731,21.229879777024962,76.9469734439711,73.4880453820092,73.59105148803685,399.99999999999994,406.0773517498944,399.53038333520163,382.5693327124085
180,1,191,0,7.966291666666651,23.125886574015986,166.1391282773308,21.02353324910541,33.6376531985688,46.299529250736185,50.456479797853085,33.703287706245376,111.44455797732988,77.8154780155242,66.23215833496556,49.94779363686803,55.60846795546831,19.074997728910603,58.57493355529584,19.426662866939864,0.9131949552050855,21.12838942700098,19.382739943950295,20.186713326551626,72.89677990245593,73.38457348101258,69.50495828730025,400.00000000000006,405.89033164879265,399.4526642034406,380.5782166723743
181,1,192,0,8.007999999999985,10.456882040148765,161.04956321200052,18.822387672267777,31.44028138064825,46.01028097665457,48.14710062333598,37.87643768704768,98.31693734520104,67.05462868367259,61.83118594696771,50.47993681088917,57.036939279207445,15.943396412691754,44.50677702810617,9.970236629908868,0.08982195162070639,20.913764080297643,21.32793822962248,21.108158630887715,71.99229422407052,73.74382228067617,71.13754676001572,400.00000000000006,405.9210220111166,399.45836870351553,380.6534877259643
182,1,193,0,8.049708333333319,8.668224820974606,161.89485708749763,21.023533249105398,31.53529987365821,44.14941982312175,48.354126472942504,35.986492247917084,96.73110191323195,65.20685318014861,61.0447875926659,47.71238941555373,56.036678632735516,15.9379683792381,44.76843347289196,9.847025049592958,4.297498904805252,21.023533249105398,19.382739943950188,19.152632914328706,73.49738284438502,72.95596565952769,71.51092332431568,400.00000000000006,407.9919834549889,401.5549885629351,382.72070511215753
183,1,194,0,8.091416666666653,27.05362763918302,162.44178194453372,18.72943451943445,35.377820758931804,43.702013878680475,47.864110438554924,35.621808620911175,116.61300314445374,81.26753326962654,67.76194389821376,51.71679644865765,55.22436670823515,17.906770499946674,63.10788627223724,24.34299165587072,0.03972976022180319,20.914276374916167,19.186317134653695,19.984069391541198,68.06275493989278,72.44437992434894,70.87795041039296,399.99999999999983,403.8574322102978,395.4210783526541,374.59447103375226
184,1,195,0,8.133124999999987,54.48506309948609,173.7351483538479,18.804661115600602,37.66731659445638,50.31957896569816,56.45266280513165,27.876163493786823,138.46951388511414,100.83417424549488,73.49765671307864,51.82468946517497,51.745342827761306,24.297073899519432,86.61818997115813,45.244586176781695,8.076354165340604,23.078252314185693,21.307851994432635,21.106205552090046,66.09574896575577,70.93589384800191,68.98207450491317,400.0000000000001,405.88306705263585,399.27355590123824,378.2345721131399
185,1,196,0,8.174833333333321,54.34472845265179,179.81701914164228,18.797738257598123,37.65344952806734,50.170796433668144,56.43187999144217,30.41102226338806,140.4987241405662,102.87467754604548,75.58865155514638,52.252557786443504,53.60537481651329,23.27972639245013,87.48216794450957,46.39035065614121,7.3277589128779255,23.069756151307114,21.300007597089458,22.124195179265598,67.64085150348683,73.50305863378912,73.13214703915072,399.99999999999966,405.8465221172681,397.1103739845579,378.1357069408385
186,1,197,0,8.216541666666656,58.560665431978975,182.0325140667854,18.811077993833855,37.680170140844616,50.336749953731,56.47192663876009,27.885675919756903,142.5118401164578,104.83987465371251,75.54767802084086,49.479653302716315,52.04484270205069,23.263417641518913,91.73687334108445,50.34041685671525,9.240382258491081,22.991317548019186,21.005443793026114,21.051654337204013,78.66580824625396,73.01099072594354,73.18404496104365,399.99999999999994,406.0215700653866,399.4808918273233,376.2447827130251
187,1,198,0,8.25824999999999,60.668551880340225,182.00565564102055,16.726210957601786,37.633974654603975,50.222171824920565,56.45096198190567,27.894435957753856,142.4185544174961,104.87280917135587,74.50934059261692,47.90490735564697,51.45968846684332,22.203275670726953,92.7346469246238,49.51302262023569,6.234973218844516,23.09337980954308,21.012042467065744,22.034000379717327,76.17388095420881,71.49059790295007,75.38401406482598,400.00000000000006,406.0468576387805,399.5352745435774,378.48249997421675
188,1,199,0,8.299958333333324,64.49591439544176,181.11224377062865,16.77363501833056,33.35316655573274,47.89701465177924,54.093347557467254,27.757510431375316,141.85684076692647,108.50630200064717,76.27845518320919,47.758713058758985,51.34908439509104,22.208366096117857,92.2770595340985,55.49268905054373,8.388823594008954,22.980021246169503,20.908900572408164,21.92610419860756,78.01718847187323,73.18486478649533,70.85973195249643,400.00000000000006,405.9614203575787,395.43439203333133,376.5729195346759
189,1,200,0,8.341666666666658,60.37074792354299,181.11224377062854,18.724620308354,35.368727249113135,47.89701465177927,54.093347557467354,25.73452911030981,139.64259417061263,104.35801960470737,74.10481512162073,48.529616732085856,50.15630779573098,24.129250777405787,90.2813540323159,49.614077441182644,8.494942221259066,22.980021246169684,20.908900572408136,21.915143496332973,74.91816065344324,72.20700888070121,76.97899460101131,400.0000000000002,405.96142035757873,397.46518557910207,374.4981853262876
190,1,201,0,8.383374999999992,58.0400457352043,180.33092819500413,18.643842569698787,37.28768513939758,47.69038762980544,53.89981219441323,27.63776493659768,141.10808820662515,103.90782063162317,74.82086689292225,50.37063802011426,52.03307263820068,24.0261384090104,89.89021470652858,47.322841220289206,8.453536578364492,22.88088576999195,20.818699880581267,21.866104313401593,76.59639230135474,73.93875872822332,74.60413609289452,399.99999999999994,404.0348995822776,395.66919292762344,374.97127868197504
191,1,202,0,8.425083333333326,66.66666666666667,181.26923783523176,18.74085142663282,35.39938602808394,52.099550320817904,56.22255427989834,25.756836648671324,145.99996287633635,110.67665739994567,77.28957879054644,50.65203525185029,52.28013638494531,26.230518255422453,94.52031578247045,53.81778745509098,10.492207302168936,20.92702509684062,20.927025096840538,20.939189572863143,79.0533550180661,74.3499517446802,74.99232119678919,399.9999999999998,404.0553236959588,397.7279646634605,372.740528189535
192,1,203,0,8.46679166666666,72.52077792793206,178.2295663629229,16.569416164739316,35.210009350071054,49.75137930362889,55.9601215416833,29.654741971211994,153.49084723350862,118.34742467965715,82.02879206444061,57.091044028856345,57.6904547526143,28.177958834765377,96.08101516385705,55.72823285502977,14.809968731336653,22.782947226516562,21.121944088211308,21.88980105345712,76.00075591797065,72.38167230282909,76.66153353125141,400.00000000000006,404.012264957976,395.643605288258,372.817616931744
193,1,204,0,8.508499999999994,74.57537027879515,176.19037091073648,16.7012738017346,35.27702205165626,49.76005184706911,55.969876378469095,27.246829190790816,153.51760339703466,118.24109898680364,80.96914180460578,57.08443920737693,57.641748934645534,30.293764460818466,96.13592795384614,55.77078056452933,16.838715331046274,20.818699880581303,22.88088576999193,21.85450287646438,69.90256293455633,70.30064131117695,74.57537027879515,399.99999999999983,401.9637994531421,393.59768340517854,372.89986777320735
194,1,205,0,8.550208333333329,77.51332793988398,171.58912390599625,16.312947805723795,34.66501408716287,51.018727962490544,55.09394735670204,25.22250257556999,153.15123719807633,118.54979567276379,79.78280003862619,57.43139658172959,55.80213710423379,31.872388528513056,96.53362404163067,58.55151247250819,18.3291691218285,22.430303232870187,22.522799721093925,22.50414653291176,65.67952268655245,67.91975446810932,69.36000872845132,400.0000000000002,399.85444337105474,391.5957013900856,367.0469898030669
195,1,206,0,8.591916666666663,80.81653828517797,172.24935534973372,16.572304506398865,35.277022051656154,47.690387629805244,53.89981219441329,29.295972240907577,161.79229487516045,126.51654794896022,86.11994327699165,66.64179311187445,64.83572050266753,36.56725491679015,96.05334262762949,57.47425999425468,22.918832794049422,20.715380632998645,20.818699880581274,21.827187641016224,70.93978868821483,71.09982043839778,74.57537027879526,400.00000000000006,404.03489958227783,393.5976834051785,370.81109970469873
196,1,207,0,8.633624999999997,86.48356949116194,171.05788295772882,18.640955837243105,34.99533641020985,49.448048658326336,55.61893663352519,25.4628473688209,165.0052708629615,130.0964007815179,86.83842816980325,68.0785114264379,69.28223489786444,43.6747214255347,96.32058947773919,57.84686191931178,25.75513993580671,22.644041206606357,22.73741909227562,22.723119493628474,68.94155844368709,70.03172309705468,76.27751219006595,399.99999999999983,401.675649081669,391.1731001883802,366.42754010285194
197,1,208,0,8.675333333333331,84.37482231418655,166.894849973243,18.635280780899347,35.22595895393714,49.43299468444861,55.60200399327102,27.456110604542037,165.09618288429488,129.91017787091232,87.78262336618968,70.22609869295184,71.2024072101832,43.66142508456073,94.35000100826437,55.774462153002446,27.80208789185872,22.637147450147655,23.00827296146192,21.745569357638146,72.91662332764787,72.17871572741478,72.05668023684467,399.9999999999999,403.68865663794327,393.1978543600818,366.33332618822044
198,1,209,0,8.717041666666665,53.85998964579636,159.72351060215715,20.818699880581303,33.209281482124005,45.620893509822636,49.760051847068944,29.075422261713225,136.86268052946778,103.6597315694053,76.75871568939112,70.66857806732867,71.24311935242895,41.88405968380698,65.89988540099671,29.359059668621853,23.958371588679597,20.715380632998677,22.880885769991874,22.924197275499296,71.47293586646902,70.43876155328849,74.60413609289424,400.00000000000017,403.99772423966397,391.52069396367415,368.78614189318546
199,1,210,0,8.75875,38.96155320467721,151.75885151929285,18.45547257063667,30.759120951060925,43.11156568632596,47.163985458293375,28.781655714195036,116.90264602017241,86.14994720495514,66.66985801832038,64.5812391721538,69.30781223224574,38.173085815828244,49.91512930167448,16.222560079129607,20.777465836796864,22.649706365053053,20.506080634040654,20.531409369988296,71.72259895301926,70.94437384869417,73.85036545825612,399.99999999999983,401.91918042719647,387.61374490993126,367.26499185794336
200,1,211,0,8.800458333333333,41.49754537248667,153.3493508443042,18.650596724307352,35.22890492369156,43.56737128738909,47.662636073229784,29.306585370962747,124.35457936734828,89.1324996927393,68.45142305187528,66.11269518625784,71.27884032224847,39.56057086118926,55.64077937006084,17.592818571211183,22.29354522648191,20.826241926552523,22.889174889549377,22.85204740334575,73.41976533356001,72.93107592880409,74.63116313239641,400.00000000000006,402.0453370666817,389.67841519829966,371.22317485931956
201,1,212,0,8.842166666666667,47.42016054306289,156.69270440316413,18.55571499511155,32.98793776908722,45.35841443249507,49.481906653630716,26.88188040586373,125.78341116766326,92.8014804381895,69.09731717116154,64.39333349239814,67.89397250915226,39.30158211901903,59.63753114397878,24.08992376003164,22.305058471883967,20.720291973537634,20.720291973537673,20.65837630281868,72.1085576411653,71.76309984345943,74.22285998044619,400.00000000000006,404.1863818133387,392.07884869235596,369.51874379945696
202,1,213,0,8.883875000000002,51.802347062108566,157.47913506881042,18.648844942359304,31.081408237265318,45.58606541465573,49.773403082041376,29.009314354780813,130.541914596514,99.46050635924868,73.5582101877244,67.98882737606334,68.85886456760761,39.4149743485076,62.11607633314031,26.76509149776666,22.701101984632714,20.82428579425311,22.887024993544795,22.80413270468398,75.097947059602,71.90399473801199,78.7395675344051,399.99999999999983,404.39820004501905,390.2198976165975,369.669911251353
203,1,214,0,8.925583333333336,27.07011872735851,154.10551412942624,22.90548507699553,35.46057775228344,39.564019678446876,43.77820422666582,35.39938602808401,120.79232553378164,85.37498983243805,71.83885790281738,69.10230205809933,70.34257061142273,34.32357881743076,51.06151498200563,11.600493487276708,13.614507560104698,22.9999410862919,22.90548507699559,22.905143099448992,74.46162764172595,71.42353861661275,72.88108888134934,399.99999999999994,404.3127931297091,392.14509786274,371.493725486556
204,1,215,0,8.96729166666667,12.42173462226528,155.39585047731038,20.702891037108802,31.123269685001812,39.38993658544959,43.67279648660115,41.45750699391549,105.66590090714776,74.55915620437493,68.34455360083894,61.27204805405859,64.8945508950925,21.648766978559593,42.55578337538361,7.676256020286019,1.2937510146549585,20.80614799205627,20.702891037108852,21.717767032674487,73.00205725359683,72.2775566853901,72.46011862988098,399.9999999999997,404.4700673230344,392.3566553242471,373.9437307166658
205,1,216,0,9.009000000000004,18.724620308353938,158.24215627893534,22.980021246169667,31.276974074220814,41.66224771863796,45.96004249233911,39.52975398430294,112.42475149362727,81.16669020178077,71.79616141515112,63.230187600517866,67.74338150152562,25.959391115746598,46.89970135669478,11.737714616600897,5.3828647660635625,22.980021246169592,22.885647043543795,21.832717599207854,78.07711766277544,74.08686310546113,70.768043669169,400.0000000000002,406.4675703259155,396.22174040358374,375.62342220349774
206,1,217,0,9.050708333333338,43.7120719477905,166.57420890118962,20.91908981984673,35.44713152638549,45.84088221012365,50.00000000000005,33.36942009645436,133.2340040180801,97.83178007362619,75.96553710779938,67.89643783719771,69.32942798250554,35.34709025092309,64.6210317907802,27.499763264714375,14.909921273796726,22.991219784409935,22.991219784409953,21.818980902958742,77.55206191153292,74.72020043390097,72.88318328356634,399.9999999999997,406.43118543266473,396.2781789946471,375.6507928882537
207,1,218,0,9.092416666666672,47.909329258690214,170.65864780187042,22.891531079308844,35.43897520519653,47.86411043855492,52.06781132894696,29.13467591912019,135.33215530228955,99.91199267157475,75.96511305553838,70.02980561428842,69.31347540586171,40.540878700721805,65.64654695796298,28.533819968997705,20.14252324171332,20.914276374915975,22.891531079308844,21.831015875861965,77.56832828392197,72.690460674159,75.03326280029572,399.99999999999994,404.4949767583815,394.24744279409344,375.5643563166677
208,1,219,0,9.134125000000006,49.945158718491925,168.57775616250177,20.810482799371616,35.43897520519653,47.90932925869033,54.26709980763669,29.13467591912019,135.2841453124967,99.89031743698374,74.90767322405122,69.99569465198226,69.31347540586171,40.523823219568726,65.62949147681002,28.550875450150784,20.12546776056024,22.98592954610255,20.810482799371616,20.790631525527942,77.53421732161587,74.7712293748271,77.02690349805272,399.99999999999994,404.371832226312,394.2474427940937,373.64524989665586
209,1,220,0,9.17583333333334,48.38577571415741,170.25422034259006,21.017437914789557,33.69351614198519,48.385775714157184,52.58561286229066,29.4244130807052,132.4765640859757,98.8043146461471,74.61712007672543,71.12265439820112,69.52387925116386,40.90580411919666,62.146673929834606,26.882262115183835,20.44148223711943,21.12226369182647,21.122263691826433,22.017417739199004,75.78194196956684,73.95477037295285,73.59105148803692,399.99999999999994,408.6527204272501,398.3178788387909,379.62519968224836
210,1,221,0,9.217541666666676,29.251695068711857,165.18211042472376,23.078252314185615,31.410671538409712,45.96694939369026,50.31957896569817,35.519915440578814,119.16947703367757,87.7799555722879,73.15848513868775,67.3248733854632,68.2101296437346,32.26645567007267,51.40161017578612,16.581530683776464,12.064453878750328,23.078252314185743,22.983474696845125,21.927116551030906,76.42712363076691,72.72720644876063,73.15908025113745,399.99999999999983,406.5547524161315,396.49212189968284,375.8900306515816
211,1,222,0,9.259250000000009,8.442478344606974,165.11467539010067,21.2114643243269,31.72956978061833,42.26512427541694,46.86336003170911,44.37323570072141,105.72076441719318,73.99219405466303,69.76778476818095,64.61584248502174,70.1553202496575,23.012768738271006,38.320420256596094,3.294051592551,2.8381274966960746,23.597444346389118,23.21681544766941,23.195138376612988,76.20771262212997,74.69176500341268,71.88511280814002,399.99999999999983,408.9267575932179,400.7121205114629,382.2494646540088
212,1,223,0,9.300958333333345,33.375913335381696,163.04152880239906,18.773951251151985,31.566826085475977,45.93926534111741,48.38428350611153,39.68875371698253,123.23267900107906,91.80746309597971,75.11525483072512,65.89097399190041,69.2048822932561,27.860744533561046,55.68163106349766,21.073495916351817,10.106850919082603,23.04056325422769,20.859945834613466,21.88204398987847,75.36579085350797,74.05617073441556,71.04641543798604,399.99999999999994,406.6191524812084,398.98702303105676,378.80191302571194
213,1,224,0,9.342666666666675,64.00090574243202,171.66790769155176,20.74842394679112,35.339323903387445,47.529403200291156,53.83675595499475,35.157940376035874,154.89594574833325,119.74363009874381,87.6080837259625,74.43824107434727,75.23988367053244,39.91034925293843,79.99247906220239,41.97171592884354,20.556406573608115,23.082318687360456,22.803648688778523,21.70161028244422,73.40755773639472,72.6059151402095,76.63885984471051,400.00000000000006,404.6982854198281,397.1768882077606,374.9068827859742
214,1,225,0,9.384375000000013,61.911413585426246,177.8120443208418,20.728554202339527,39.24303700281029,49.67322090723659,55.841916119096155,30.93852349591711,152.75542419973445,113.5162305217357,82.52579879759901,69.42319898850394,69.97199898050792,38.827599434281865,83.00599879060258,41.29719939829977,19.756799712143447,23.060213886781767,20.62568233061151,20.57999970014953,72.44159894452588,71.89279895252184,76.5654665805246,400.00000000000017,402.94053430053225,395.2657888956628,375.4157493292687
215,1,226,0,9.426083333333343,56.3911088693336,184.04691814429896,20.82853130127557,33.39067580256969,52.23769074813801,56.583111838440345,29.2342367926955,139.7996373864331,106.40913208926422,78.19642218684476,64.85750236539116,67.41346304974161,36.90168238030867,73.64361721784564,38.01991517971214,18.051472333224524,21.241017508936437,20.932414894844296,20.84705433173292,74.44235493170515,73.80336476061746,75.24261888049367,399.99999999999994,405.08682234877523,397.36667431195804,377.0481966384729
216,1,227,0,9.46779166666668,56.29274622446991,181.65530274060282,18.828138094681677,31.257530840759014,50.07424911278934,54.418395732598455,29.10908032121109,135.40496367584632,104.14796283489541,75.94785243599722,61.794480342096676,61.43993122297661,32.63567456157182,73.71762410604913,38.59438717645844,16.143421988315595,19.16946143802251,20.89590261952778,19.763254123846536,74.63830810892523,75.6447701244914,79.25620182822018,399.9999999999999,406.9751208449482,399.31852243055283,377.03317152350553
217,1,228,0,9.509500000000012,53.47905669700475,179.7712016853043,20.656183870468812,31.103348399662824,49.71269836712432,55.8364225040275,26.798708491011066,131.9443236220997,100.90157032692528,74.14553715510033,59.401966706689564,60.71969860094191,33.266950804018734,71.8626244435668,37.00052450440046,15.165475835605434,19.49892454210153,20.55367115893212,19.436545440221494,78.06983520859734,75.01824555874987,74.44856333870334,400.0,402.8729273029872,397.3881034295314,375.41267712121476
218,1,229,0,9.551208333333348,45.90245327662599,176.31943838849529,20.947187243115515,31.884011464695433,48.345512199004915,52.77084430061811,29.254867872745727,127.75727073598954,96.08254436366919,73.06367540517454,61.65987624512252,62.07393249299116,32.641434206987014,65.86944809845488,30.77818109157772,14.595482737373572,19.773624498313946,18.874347822618404,19.788438179394348,74.97868555156754,74.28859180511961,75.49739129047362,400.00000000000006,404.72916450113877,399.5435773345044,379.00879799356755
219,1,230,0,9.592916666666682,41.51510005844003,166.79095929771762,18.703476254343833,31.255981963119705,47.90783490460936,52.29310398293539,29.209922470350765,120.66562051555289,89.41290386562217,68.65672276949124,62.06263927185148,63.42058316839859,33.53430944523927,57.91975958747048,25.478710058942966,15.961594783989995,21.063574643835512,20.757550029219956,20.748922419274606,79.54328994011445,72.97222244072128,70.98071262761928,399.9999999999999,403.1022217087295,395.36037403439786,374.690558013896
220,1,231,0,9.634625000000016,29.430068721406062,164.229276761604,18.84443863393492,29.43006872140595,44.1451030821092,48.26890160244548,33.55544111512585,111.25188817852954,81.82405969174246,67.10462925091304,60.9209262141394,63.32569961732918,28.57099829027777,49.12608523659003,16.375361745529972,12.882714659944895,21.72648786610344,20.913993334561212,20.755484729911245,77.46805748846867,74.8915145564797,71.51567254742244,399.9999999999998,404.864054753147,397.1042260688206,376.30230029768927
221,1,232,0,9.67633333333335,29.180484263597606,162.01716270971954,18.826357788362593,31.80294297868538,44.444444444444635,48.222588598764276,37.93861729461262,117.60732473877728,85.87146956308102,71.28614464544341,66.13265584464216,66.31427659533131,28.287431919816072,51.37596985115874,18.99071974392143,10.919947635177778,21.20196198579031,20.89392679444675,20.863683735402105,78.00611242093743,76.5985516030974,73.82728969404629,399.99999999999994,404.8761332230391,395.1074479852792,374.78397844558435
222,1,233,0,9.718041666666684,41.69110669205494,168.11341564404822,22.910399192008082,37.56554231759039,46.05493786653436,52.88218844203879,27.281974122529597,129.41807715399557,91.8526177384709,70.94760152823642,62.608146611759594,62.98155504085548,35.513404688416244,66.48367348949819,26.427132913747414,16.265897479559726,19.677684623714356,20.84555334602752,19.78498903861589,75.27008698019597,74.98720180663844,73.65636535679354,399.9999999999996,409.26640668067546,399.4672296955465,376.6847747198814
223,1,234,0,9.759750000000018,49.320201547800075,172.18972990685324,22.67863187193738,39.49460713607925,51.6989312309487,56.04218668353622,27.00598285866608,138.31496840571393,98.89650150089503,74.13872423631233,64.04126118303282,62.046700579915864,36.03808362449911,75.09067361507277,31.606985920983675,17.531734392169824,10.266134278747389,11.056965004645553,9.604489267849942,72.82412747516707,72.09883271039723,71.2738895249233,399.99999999999983,404.75658412584596,395.0367917956302,378.5183712219459
224,1,235,0,9.801458333333352,57.92986314890066,175.41160386140606,20.739585897746586,37.658369341682565,51.961780348460536,56.32711789898817,26.906911759852463,143.12382424231097,105.57017831711207,76.37349571824814,62.28988086808181,61.355476365632626,35.0063951851256,81.06240505885114,39.4982915282244,18.547366479335665,9.22899459473805,11.113181127970122,10.678104464734417,76.92513211126015,75.25896504665224,67.18809481726912,399.99999999999983,405.15706724053115,401.88536245654325,381.2479682680166
225,1,236,0,9.843166666666686,70.15905881770028,177.45407447929284,18.653558175023345,33.533408284451205,51.86798644464729,56.22544431808179,25.06026259355943,147.1812994470132,113.76395435159577,78.58799428763518,58.571797997549425,59.037555118941896,33.74467144137327,88.20417485492112,52.86343327804434,19.397080116527377,15.688042475378351,16.986707793423502,16.926295387189384,74.91873696544582,72.9648290415555,71.50695474189888,400.00000000000017,404.42573619800027,398.74092404804355,378.1324377187177
226,1,237,0,9.88487500000002,90.43526198929038,174.52428273870635,16.55364412678101,33.10728825356201,51.98355195704257,56.04218668353639,24.72412537522368,164.71947666944573,131.66292197522742,86.1451760646462,61.44110970113388,61.00810484789906,36.56612036923946,102.95260128889936,63.5491596445147,22.14022183777888,21.43631770635123,20.93888760659871,20.761443226162044,75.4112136502419,74.22614773612497,68.86732234026005,400.0000000000003,405.1261654969057,398.6962654593981,374.4874152455217
227,1,238,0,9.926583333333356,92.24852604825138,171.74682645598935,16.511065129113188,33.022130258226255,51.565952132482266,58.249563194603226,20.479455810746853,162.1114190662382,129.16677060260653,82.6249529331725,58.183081116629864,57.13096629184929,37.40664159287121,103.84825843089709,64.37698290767696,24.871768196560424,21.38117957998864,20.5815983686247,20.555834802433708,77.49447902953813,77.35872227795352,70.37904363298901,399.99999999999994,404.69083630932266,396.95292799189406,372.394000585573
228,1,239,0,9.968291666666689,78.2446983144578,170.03585358722788,16.59501598858753,33.190031977175174,47.743267096141025,54.14695566664177,28.817017651073808,156.65175814237296,123.57009711738274,84.09254227305257,65.14089875362276,63.925241136037585,35.95364746348719,91.66746544677926,55.51885402575488,22.524071329597746,21.489892639278317,20.686245940352688,20.677647967039036,77.49243888701204,72.98533092747437,75.12303222981178,400.0000000000002,404.7174422097599,397.3004978936252,371.383988822759
229,1,240,0,10.010000000000025,49.59075996219581,161.6774085741744,16.644453319907857,28.976502890541905,49.71951161106495,54.03288329672471,26.917660909396382,122.0845406099409,93.10828590179023,68.31229191597686,60.77755570348404,60.10754901691723,33.52872444217792,61.6008690047737,28.588844634439738,19.40180379659978,19.033660562714253,20.644903499172482,21.582164539325788,76.55110295164167,73.0534409268522,70.67676502602873,399.99999999999983,404.9612411322753,393.3653280348266,367.2762566444035
230,1,241,0,10.051708333333355,35.06365996203951,165.32742082156778,16.628956718391613,28.94952469486314,47.48388663007137,51.93414110163862,28.875955262856024,109.39392142711006,80.46659992693974,62.893479959162505,59.13335731577433,57.53330512709863,29.532391825272725,50.99594904193759,19.714928753326376,14.709051191612275,21.03415133699067,20.62568233061143,21.60070454712286,69.87656486831173,72.39093259337363,70.24854269376866,400.0000000000002,404.7524116749815,392.95578826230405,370.459303728795
231,1,242,0,10.093416666666691,35.32288807584047,168.4185673120231,16.622535565101373,29.163550574939777,47.8349383565706,51.98696337060388,29.08943723892743,110.14389842118882,81.03486087986926,63.297742601416985,57.81614906893492,55.81976623920389,27.763256132107585,53.27635195612834,21.187599692936715,12.378701444236412,21.18965830296053,20.7781694563768,21.791026141471434,76.5731244691766,76.24603349707371,72.99025210478827,400.0000000000002,406.53591686337614,396.75423547520194,374.24361566231715
232,1,243,0,10.135125000000023,39.39890869527314,171.92302599509944,18.636846006004802,33.196818876722034,49.74137815515881,53.998831692327975,27.2366041432888,118.03335803803027,84.92643678499704,65.14550684103688,53.4309679274495,53.81560754411964,26.800330937990225,64.38188407264761,27.61486189093887,10.781222196667159,21.1176981014315,20.81088714781474,21.69254308720832,76.7242905957998,72.83264270948968,70.5275669507841,399.99999999999983,406.3970027434708,398.3618265206646,375.773173581543
233,1,244,0,10.17683333333336,51.27935421403207,178.45215266483163,18.46056751705157,32.818786696980496,51.32036130112429,55.419674240601076,26.978983974025766,129.28907286158562,96.49243045238212,70.74162630792853,49.660439344386646,48.669053795290324,22.522684342400225,80.03444142618173,43.26201422004681,6.26168228998165,20.614045271296938,20.61404527129702,20.49433229942167,73.32834492453605,72.41672602881533,71.82039241010732,400.00000000000006,402.21846606504033,394.2578725032212,373.99492348507306
234,1,245,0,10.218541666666694,53.60753524312952,183.50271679378943,16.494626228655306,30.92742417872853,49.48387868596569,55.669363521711375,27.1191169124712,127.89984656826353,96.9936267846848,70.10216147178471,45.360222128801865,45.360222128801865,18.556454507237163,82.47313114327619,47.422050407383836,4.123656557163827,21.02660525233317,20.721117751857914,20.618282785818963,76.28764630753051,72.16398975036657,72.16398975036668,400.00000000000006,402.14109325402865,396.06427872036704,377.77060565452393
235,1,246,0,10.260250000000028,53.60539887476684,185.55714995111586,16.493968884543616,30.92619165851935,49.48190665363074,55.70531238439233,27.11803616098475,127.89474950150667,96.98976139309923,70.15780689902442,43.9930452043609,47.05126410373714,18.655135286195332,82.35670228653657,46.87003631710752,5.878576328801046,22.77273011700482,20.72029197353774,20.64864093912206,75.70790786455922,72.41182749523148,74.22285998044622,400.00000000000006,404.10223767131873,400.02656659917255,381.6959748487373
236,1,247,0,10.301958333333362,52.06568167543456,187.44802382596666,16.661018136139013,31.239409005260853,52.065681675434675,56.23093620946972,27.39268489332707,127.10852780845602,95.89136054226947,69.8426913591727,41.89417457121874,43.93053805392685,15.753216380275262,84.1887576924081,48.197749172185695,2.6655769183763596,18.85899200202907,20.930144998679598,19.82594334569137,79.09784898563794,74.65903420310576,72.89195434560828,400.00000000000017,408.20025712549443,401.96864358470816,381.26301928593944
