,video_id,frame_seq,gap,time_seconds,m1,m3,m4,m5,m6,m7,m8,m9,m10,m11,m12,m13,m14,m15,m16,m17,e1,e2,e3,b1,b2,b3,m_0_16,m_1_15,m_2_14,m_3_13
0,16,0,0,0.0,10.0,54.45181356024793,5.0990195135927845,8.246211251235321,13.152946437965905,15.132745950421556,8.06225774829855,31.25699921617557,23.08679276123039,18.0,7.0,14.0,2.5,20.5,10.5,2.5,5.385164807134504,5.0990195135927845,5.5,22.0,12.0,19.235384061671343,104.5609869884557,106.36728820459794,104.23531071570709,100.12991560967181
1,16,1,0,0.0336700336700336,10.04987562112089,54.589376255824725,5.0,9.055385138137417,13.152946437965905,15.132745950421556,8.06225774829855,32.14031735997639,23.08679276123039,18.0,6.0,14.0,2.0,22.0,11.0,3.0,5.385164807134504,5.0,5.0,23.0,13.0,18.24828759089466,104.7377677822093,106.53168542738823,104.39348638684312,99.14131328563285
2,16,2,0,0.0673400673400672,11.045361017187261,54.589376255824725,4.0,8.06225774829855,14.035668847618199,14.142135623730951,9.055385138137417,32.14031735997639,24.08318915758459,18.5,6.0,14.0,1.0,22.0,12.0,3.0,5.385164807134504,5.0,5.0,22.0,12.0,18.24828759089466,104.5609869884557,106.53168542738823,104.39348638684312,99.98499887483122
3,16,3,0,0.1010101010101008,11.0,55.44366510251645,4.123105625617661,8.06225774829855,13.038404810405298,15.132745950421556,9.055385138137417,32.14031735997639,24.08318915758459,18.5,7.0,14.0,1.5,21.5,11.5,2.5,5.385164807134504,5.0990195135927845,5.0,22.0,12.0,18.24828759089466,103.94229168149026,105.72133181151285,103.40696301506973,100.12991560967181
4,16,4,0,0.1346801346801344,12.0,54.589376255824725,5.0990195135927845,7.280109889280518,13.152946437965905,15.132745950421556,8.06225774829855,32.2490309931942,25.079872407968907,19.0,6.0,14.0,2.0,22.0,13.0,3.0,5.385164807134504,5.0,5.0,22.0,12.0,18.24828759089466,103.75451797391764,105.72133181151285,103.40696301506973,100.12991560967181
5,16,5,0,0.168350168350168,12.0,54.45181356024793,5.0990195135927845,7.0710678118654755,13.038404810405298,15.132745950421556,8.06225774829855,32.14031735997639,25.079872407968907,19.0,7.0,14.0,2.5,21.5,12.5,2.5,5.385164807134504,5.0,5.0,22.0,12.0,20.223748416156685,103.94229168149026,105.72133181151285,103.40696301506973,98.00510190801293
6,16,6,0,0.2020202020202016,12.0,54.589376255824725,5.0990195135927845,8.06225774829855,13.152946437965905,15.132745950421556,8.06225774829855,33.13608305156178,25.079872407968907,19.0,6.0,14.0,2.0,23.0,13.0,3.0,5.0990195135927845,5.0,5.0,22.0,12.0,18.24828759089466,104.92378186092989,106.70520137275409,103.57605900979242,100.12991560967181
7,16,7,0,0.2356902356902352,12.041594578792296,55.44366510251645,5.0,7.0710678118654755,14.142135623730951,14.142135623730951,8.06225774829855,32.14031735997639,25.079872407968907,19.0,7.0,14.0,2.5,21.5,12.5,2.5,5.0990195135927845,5.0,5.0,22.0,12.0,18.24828759089466,104.92378186092989,106.70520137275409,103.57605900979242,100.2845950283492
8,16,8,0,0.2693602693602688,11.045361017187261,55.57877292636101,4.123105625617661,8.06225774829855,13.152946437965905,15.132745950421556,9.055385138137417,32.2490309931942,24.186773244895647,18.5,6.0,14.0,1.0,22.0,12.0,3.0,5.385164807134504,5.0990195135927845,5.0,22.0,12.0,19.235384061671343,104.7377677822093,106.70520137275409,104.39348638684312,100.2845950283492
9,16,9,0,0.3030303030303024,11.045361017187261,55.57877292636101,4.123105625617661,8.06225774829855,13.152946437965905,15.132745950421556,9.055385138137417,32.2490309931942,24.186773244895647,18.5,6.0,14.0,1.0,22.0,12.0,3.0,5.385164807134504,5.0990195135927845,5.0,22.0,12.0,19.235384061671343,104.7377677822093,106.70520137275409,104.39348638684312,100.2845950283492
10,16,10,0,0.336700336700336,11.045361017187261,54.589376255824725,5.0,8.06225774829855,13.152946437965905,15.132745950421556,8.06225774829855,32.14031735997639,24.08318915758459,18.5,6.0,14.0,2.0,22.0,12.0,3.0,6.324555320336759,4.0,4.5,22.0,12.0,18.24828759089466,105.90561835898981,107.5174404457249,104.39348638684312,100.12991560967181
11,16,11,0,0.3703703703703697,12.041594578792296,54.589376255824725,5.0,8.06225774829855,13.152946437965905,15.297058540778355,8.06225774829855,33.13608305156178,25.079872407968907,19.0,6.0,14.0,2.0,23.0,13.0,3.0,5.385164807134504,5.0990195135927845,5.5,22.0,12.0,20.223748416156685,105.72133181151285,107.5174404457249,104.39348638684312,100.12991560967181
12,16,12,0,0.4040404040404033,11.0,54.589376255824725,4.123105625617661,8.246211251235321,14.142135623730951,15.132745950421556,9.0,32.14031735997639,24.020824298928627,18.5,6.0,14.0,1.0,22.0,12.0,3.0,5.385164807134504,5.0990195135927845,5.0,22.0,12.0,20.223748416156685,105.72133181151285,106.53168542738823,104.5609869884557,100.2845950283492
13,16,13,0,0.4377104377104369,11.0,54.45181356024793,4.123105625617661,8.06225774829855,13.152946437965905,15.132745950421556,8.06225774829855,31.144823004794873,23.08679276123039,17.5,6.0,13.0,1.5,21.5,11.5,3.5,5.0990195135927845,5.0,5.0,22.0,12.0,19.235384061671343,105.72133181151285,107.5174404457249,104.39348638684312,100.2845950283492
14,16,14,0,0.4713804713804705,9.0,55.57877292636101,5.0990195135927845,9.055385138137417,15.132745950421556,15.132745950421556,8.06225774829855,31.144823004794873,22.090722034374522,17.5,6.0,14.0,2.0,21.0,10.0,3.0,5.0990195135927845,5.0990195135927845,5.0,23.0,12.0,18.24828759089466,105.54619841567009,106.53168542738823,104.39348638684312,100.12991560967181
15,16,15,0,0.5050505050505042,9.055385138137417,55.57877292636101,5.0990195135927845,9.055385138137417,14.035668847618199,15.132745950421556,8.0,31.144823004794873,22.090722034374522,17.5,6.0,14.0,2.0,21.0,10.0,3.0,5.0990195135927845,5.0990195135927845,5.0,23.0,12.0,20.223748416156685,105.72133181151285,106.53168542738823,104.39348638684312,101.27191120937731
16,16,16,0,0.5387205387205378,10.0,55.44366510251645,5.0990195135927845,9.219544457292887,13.152946437965905,15.132745950421556,8.0,32.14031735997639,23.021728866442675,18.0,7.0,14.0,2.5,21.5,10.5,2.5,5.0990195135927845,5.0,5.0,23.0,12.0,20.223748416156685,106.70520137275409,107.5174404457249,105.54619841567009,101.11874208078342
17,16,17,0,0.5723905723905715,9.055385138137417,54.45181356024793,5.0990195135927845,9.055385138137417,14.035668847618199,15.132745950421556,8.0,31.144823004794873,22.090722034374522,17.5,7.0,14.0,2.5,20.5,9.5,2.5,5.0990195135927845,5.0,4.5,23.0,12.0,19.235384061671343,106.70520137275409,107.68936809174804,104.5609869884557,101.27191120937731
18,16,18,0,0.6060606060606051,9.055385138137417,54.589376255824725,5.0,9.055385138137417,14.035668847618199,15.132745950421556,8.06225774829855,31.144823004794873,22.090722034374522,17.5,6.0,14.0,2.0,21.0,10.0,3.0,5.0990195135927845,4.0,4.5,23.0,12.0,18.24828759089466,106.70520137275409,107.5174404457249,105.38026380684383,100.12991560967181
19,16,19,0,0.6397306397306387,9.055385138137417,55.44366510251645,5.0,9.055385138137417,14.142135623730951,15.132745950421556,8.0,31.064449134018133,22.02271554554524,17.5,7.0,14.0,2.5,20.5,9.5,3.5,6.082762530298219,5.0990195135927845,5.0,23.0,12.0,20.223748416156685,105.72133181151285,107.5174404457249,104.5609869884557,100.12991560967181
20,16,20,0,0.6734006734006723,9.0,55.44366510251645,5.0990195135927845,8.246211251235321,14.142135623730951,15.297058540778355,9.0,31.144823004794873,23.021728866442675,18.5,7.0,14.0,1.5,20.5,10.5,3.5,5.385164807134504,5.0990195135927845,5.5,22.0,12.0,21.37755832643195,106.70520137275409,107.68936809174804,105.54619841567009,101.27191120937731
21,16,21,0,0.707070707070706,9.055385138137417,54.589376255824725,6.0,9.055385138137417,14.142135623730951,15.132745950421556,8.06225774829855,32.14031735997639,23.08679276123039,18.5,7.0,15.0,3.0,21.0,10.0,3.0,6.082762530298219,5.0990195135927845,5.5,23.0,13.0,19.4164878389476,106.53168542738823,107.5174404457249,105.38026380684383,101.27191120937731
22,16,22,0,0.7407407407407396,9.055385138137417,55.44366510251645,6.0,8.06225774829855,14.142135623730951,15.132745950421556,8.0,31.064449134018133,23.021728866442675,18.5,7.0,14.0,2.5,20.5,9.5,3.5,4.123105625617661,4.123105625617661,4.5,22.0,12.0,20.396078054371138,105.72133181151285,107.68936809174804,104.5609869884557,101.11874208078342
23,16,23,0,0.7744107744107732,9.0,55.44366510251645,6.082762530298219,8.246211251235321,14.142135623730951,15.297058540778355,7.0,30.14962686336267,22.02271554554524,17.5,6.0,13.0,2.5,20.5,10.5,3.5,5.0990195135927845,5.0,5.5,23.0,12.0,19.235384061671343,106.70520137275409,108.50345616615168,105.54619841567009,101.11874208078342
24,16,24,0,0.8080808080808068,9.055385138137417,55.44366510251645,5.0,9.055385138137417,15.132745950421556,15.132745950421556,9.055385138137417,32.14031735997639,23.08679276123039,18.5,7.0,14.0,1.5,21.5,10.5,3.5,6.082762530298219,5.0,5.0,22.0,12.0,19.4164878389476,106.70520137275409,108.34205093129813,106.36728820459794,101.11874208078342
25,16,25,0,0.8417508417508405,8.06225774829855,55.44366510251645,5.0990195135927845,9.055385138137417,14.142135623730951,15.132745950421556,8.0,30.14962686336267,21.095023109728988,17.0,6.0,13.0,1.5,20.5,10.5,3.5,5.385164807134504,5.0,5.0,23.0,12.0,20.223748416156685,106.70520137275409,108.50345616615168,106.21205204683694,101.96568050084302
26,16,26,0,0.8754208754208741,9.055385138137417,56.43580423808985,5.0,9.055385138137417,15.132745950421556,15.297058540778355,8.06225774829855,31.144823004794873,22.090722034374522,17.5,6.0,13.0,1.5,21.5,10.5,3.5,5.385164807134504,5.0,5.0,22.0,12.0,19.4164878389476,107.68936809174804,109.65856099730654,106.36728820459794,102.1077861869505
27,16,27,0,0.9090909090909076,9.055385138137417,55.57877292636101,5.0,9.055385138137417,13.152946437965905,15.132745950421556,8.0,31.064449134018133,22.02271554554524,17.5,6.0,14.0,2.0,21.0,10.0,3.0,5.385164807134504,5.0990195135927845,5.0,23.0,12.0,19.235384061671343,106.70520137275409,107.5174404457249,105.38026380684383,102.1077861869505
28,16,28,0,0.9427609427609414,9.0,55.57877292636101,5.0990195135927845,9.219544457292887,14.142135623730951,15.132745950421556,8.0,31.144823004794873,22.02271554554524,17.5,6.0,14.0,2.0,21.0,10.0,3.0,5.385164807134504,5.0,5.0,23.0,12.0,19.235384061671343,106.88779163215975,108.67382389517726,106.53168542738823,102.42070103255493
29,16,29,0,0.976430976430975,9.0,55.44366510251645,6.082762530298219,8.06225774829855,14.142135623730951,15.297058540778355,8.06225774829855,31.144823004794873,23.08679276123039,18.5,7.0,14.0,2.5,20.5,10.5,3.5,6.324555320336759,5.0,5.5,22.0,12.0,20.396078054371138,106.70520137275409,108.67382389517726,105.38026380684383,101.11874208078342
30,16,30,0,1.0101010101010086,9.0,56.568542494923804,5.0990195135927845,9.219544457292887,14.142135623730951,16.1245154965971,9.0,32.14031735997639,23.021728866442675,18.5,7.0,15.0,2.0,21.0,10.0,3.0,5.385164807134504,5.0,5.0,23.0,13.0,18.24828759089466,106.70520137275409,107.5174404457249,105.38026380684383,102.1077861869505
31,16,31,0,1.043771043771042,9.055385138137417,56.568542494923804,5.0,9.055385138137417,14.142135623730951,15.132745950421556,8.06225774829855,31.144823004794873,22.090722034374522,17.5,6.0,14.0,2.0,21.0,10.0,3.0,6.324555320336759,5.0,5.5,22.0,12.0,19.235384061671343,107.68936809174804,108.50345616615168,106.36728820459794,102.25947388873072
32,16,32,0,1.0774410774410756,10.04987562112089,56.568542494923804,5.0,9.219544457292887,14.142135623730951,15.297058540778355,8.0,32.14031735997639,23.021728866442675,18.0,6.0,14.0,2.0,22.0,11.0,3.0,5.385164807134504,5.0,5.0,22.0,12.0,19.235384061671343,107.68936809174804,108.50345616615168,106.36728820459794,102.1077861869505
33,16,33,0,1.1111111111111092,9.0,55.44366510251645,5.0990195135927845,8.246211251235321,13.152946437965905,15.132745950421556,8.0,30.14962686336267,22.02271554554524,17.5,6.0,13.0,1.5,20.5,10.5,3.5,5.385164807134504,4.0,4.5,22.0,12.0,19.235384061671343,108.85311203635843,110.64357188738983,106.36728820459794,103.0970416646375
34,16,34,0,1.144781144781143,9.055385138137417,56.568542494923804,5.0,9.219544457292887,15.132745950421556,16.1245154965971,8.06225774829855,31.25699921617557,22.090722034374522,17.5,6.0,14.0,2.0,21.0,10.0,3.0,5.385164807134504,5.0,5.0,22.0,12.0,19.4164878389476,107.68936809174804,108.50345616615168,106.36728820459794,102.1077861869505
35,16,35,0,1.1784511784511762,9.055385138137417,56.568542494923804,5.0990195135927845,8.06225774829855,14.142135623730951,16.278820596099706,9.0,31.144823004794873,23.08679276123039,18.5,7.0,15.0,2.0,20.0,10.0,3.0,6.324555320336759,4.0,4.5,22.0,12.0,20.396078054371138,106.88779163215975,108.50345616615168,105.38026380684383,102.1077861869505
36,16,36,0,1.2121212121212095,9.055385138137417,56.568542494923804,5.0,9.055385138137417,15.132745950421556,15.132745950421556,8.06225774829855,31.144823004794873,22.090722034374522,17.5,6.0,14.0,2.0,21.0,10.0,3.0,5.385164807134504,5.0,5.0,22.0,12.0,18.439088914585774,108.85311203635843,109.48972554536796,107.5174404457249,103.0970416646375
37,16,37,0,1.2457912457912432,9.0,56.43580423808985,5.0990195135927845,9.219544457292887,14.142135623730951,15.132745950421556,8.0,31.144823004794873,22.02271554554524,17.5,6.0,13.0,1.5,21.5,10.5,3.5,5.385164807134504,5.0,5.0,22.0,12.0,19.235384061671343,107.8702924812944,109.48972554536796,107.5174404457249,103.0970416646375
38,16,38,0,1.2794612794612767,10.04987562112089,56.568542494923804,5.0990195135927845,8.06225774829855,14.142135623730951,16.1245154965971,8.06225774829855,31.25699921617557,23.194827009486403,18.0,6.0,14.0,2.0,21.0,10.0,3.0,5.385164807134504,5.0990195135927845,5.5,23.0,13.0,19.4164878389476,107.5174404457249,108.50345616615168,107.20074626605917,101.96568050084302
39,16,39,0,1.3131313131313105,10.04987562112089,56.568542494923804,5.0990195135927845,8.06225774829855,14.142135623730951,15.297058540778355,8.0,31.144823004794873,23.08679276123039,18.0,6.0,14.0,2.0,21.0,11.0,3.0,5.0990195135927845,5.0,5.0,24.0,13.0,21.37755832643195,108.50345616615168,109.32977636490436,107.20074626605917,102.82509421342633
40,16,40,0,1.3468013468013438,11.0,56.568542494923804,5.0990195135927845,8.246211251235321,14.142135623730951,15.132745950421556,8.06225774829855,32.2490309931942,24.08318915758459,18.5,6.0,14.0,2.0,22.0,12.0,3.0,6.324555320336759,5.0,5.5,23.0,12.0,20.223748416156685,107.68936809174804,109.48972554536796,106.21205204683694,101.96568050084302
41,16,41,0,1.3804713804713773,11.0,56.568542494923804,5.0990195135927845,8.246211251235321,14.142135623730951,15.132745950421556,8.06225774829855,32.2490309931942,24.08318915758459,18.5,6.0,14.0,2.0,22.0,12.0,3.0,6.324555320336759,5.0,5.5,23.0,12.0,20.223748416156685,107.68936809174804,109.48972554536796,106.21205204683694,101.96568050084302
42,16,42,0,1.4141414141414108,9.055385138137417,55.44366510251645,5.0,9.219544457292887,15.132745950421556,15.132745950421556,8.06225774829855,31.25699921617557,22.090722034374522,17.5,7.0,14.0,2.5,20.5,9.5,2.5,5.385164807134504,5.0,5.0,23.0,12.0,20.396078054371138,107.68936809174804,108.50345616615168,106.21205204683694,102.95630140987001
43,16,43,0,1.4478114478114443,9.055385138137417,56.568542494923804,5.0,9.219544457292887,15.132745950421556,16.1245154965971,8.06225774829855,31.25699921617557,22.090722034374522,17.5,6.0,14.0,2.0,21.0,10.0,3.0,5.385164807134504,4.0,4.5,23.0,12.0,20.396078054371138,107.68936809174804,109.48972554536796,107.20074626605917,102.95630140987001
44,16,44,0,1.4814814814814778,11.045361017187261,56.43580423808985,5.0,8.06225774829855,14.142135623730951,15.132745950421556,8.06225774829855,32.14031735997639,24.08318915758459,18.5,7.0,14.0,2.5,21.5,11.5,2.5,6.324555320336759,5.0,5.5,23.0,13.0,18.439088914585774,108.67382389517726,109.48972554536796,107.20074626605917,101.83319694480774
45,16,45,0,1.5151515151515114,9.055385138137417,55.44366510251645,5.0,9.055385138137417,14.142135623730951,15.132745950421556,8.06225774829855,31.144823004794873,22.090722034374522,17.5,6.0,13.0,1.5,21.5,10.5,3.5,5.0990195135927845,5.0,5.5,24.0,13.0,19.235384061671343,107.8702924812944,110.47624178980746,108.34205093129813,104.08650248711405
46,16,46,0,1.5488215488215449,10.0,56.568542494923804,5.0990195135927845,8.246211251235321,14.142135623730951,16.278820596099706,8.06225774829855,31.25699921617557,23.08679276123039,18.0,6.0,14.0,2.0,21.0,10.0,3.0,5.0990195135927845,6.0,6.0,23.0,12.0,19.235384061671343,108.85311203635843,110.64357188738983,108.34205093129813,104.08650248711405
47,16,47,0,1.5824915824915784,10.04987562112089,56.568542494923804,5.0,8.06225774829855,14.142135623730951,15.132745950421556,8.06225774829855,31.144823004794873,23.08679276123039,18.0,6.0,14.0,2.0,21.0,10.0,3.0,5.385164807134504,6.082762530298219,6.0,24.0,13.0,20.396078054371138,108.85311203635843,110.64357188738983,108.34205093129813,102.95630140987001
48,16,48,0,1.616161616161612,10.04987562112089,56.568542494923804,6.082762530298219,8.06225774829855,14.142135623730951,16.1245154965971,8.0,32.14031735997639,24.08318915758459,19.0,6.0,14.0,2.0,22.0,12.0,4.0,5.385164807134504,4.0,4.5,24.0,13.0,19.4164878389476,108.67382389517726,110.47624178980746,108.34205093129813,103.0970416646375
49,16,49,0,1.6498316498316454,10.04987562112089,56.43580423808985,5.0,8.06225774829855,14.142135623730951,15.132745950421556,8.06225774829855,31.144823004794873,23.08679276123039,18.0,7.0,14.0,2.5,20.5,10.5,2.5,5.385164807134504,5.0,5.0,24.0,13.0,18.24828759089466,108.85311203635843,109.65856099730654,107.35455276791944,103.0970416646375
50,16,50,0,1.683501683501679,10.04987562112089,56.43580423808985,5.0990195135927845,9.055385138137417,14.142135623730951,15.297058540778355,8.0,32.14031735997639,23.08679276123039,18.0,6.0,13.0,1.5,22.5,11.5,3.5,5.385164807134504,6.0,6.0,23.0,12.0,19.235384061671343,107.68936809174804,109.48972554536796,107.35455276791944,104.08650248711405
51,16,51,0,1.7171717171717125,12.041594578792296,56.568542494923804,5.0,8.06225774829855,14.142135623730951,15.297058540778355,8.06225774829855,33.13608305156178,25.079872407968907,19.0,6.0,14.0,2.0,23.0,13.0,3.0,5.385164807134504,4.0,4.5,23.0,12.0,19.235384061671343,107.68936809174804,109.48972554536796,107.35455276791944,103.0970416646375
52,16,52,0,1.750841750841746,8.06225774829855,56.43580423808985,6.082762530298219,9.055385138137417,14.142135623730951,15.132745950421556,8.0,31.144823004794873,22.090722034374522,18.0,7.0,14.0,2.5,20.5,10.5,3.5,5.385164807134504,6.0,6.0,23.0,12.0,19.235384061671343,108.85311203635843,109.65856099730654,107.35455276791944,104.08650248711405
53,16,53,0,1.7845117845117795,11.045361017187261,56.43580423808985,5.0990195135927845,8.06225774829855,14.142135623730951,15.132745950421556,8.0,32.14031735997639,24.08318915758459,18.5,7.0,14.0,2.5,21.5,11.5,2.5,5.385164807134504,5.0990195135927845,5.0,23.0,12.0,19.235384061671343,107.8702924812944,109.65856099730654,107.35455276791944,104.08650248711405
54,16,54,0,1.818181818181813,11.045361017187261,56.43580423808985,5.0990195135927845,8.06225774829855,14.142135623730951,15.132745950421556,8.0,32.14031735997639,24.08318915758459,18.5,7.0,14.0,2.5,21.5,11.5,2.5,5.385164807134504,5.0990195135927845,5.0,23.0,12.0,19.235384061671343,107.8702924812944,109.65856099730654,107.35455276791944,104.08650248711405
55,16,55,0,1.8518518518518463,12.041594578792296,56.43580423808985,5.0,8.246211251235321,15.132745950421556,16.1245154965971,8.06225774829855,33.24154027718932,25.079872407968907,19.0,6.0,13.0,1.5,23.5,13.5,3.5,5.385164807134504,5.0,5.0,24.0,13.0,19.235384061671343,109.04127658827184,109.65856099730654,107.35455276791944,103.9471019317037
56,16,56,0,1.88552188552188,11.045361017187261,56.568542494923804,5.0,8.06225774829855,14.142135623730951,15.132745950421556,8.06225774829855,32.14031735997639,24.08318915758459,18.5,6.0,14.0,2.0,22.0,12.0,3.0,5.0990195135927845,4.0,4.5,23.0,12.0,19.4164878389476,109.83624174196785,110.64357188738983,108.34205093129813,102.95630140987001
57,16,57,0,1.9191919191919136,12.041594578792296,57.55866572463264,4.123105625617661,8.06225774829855,14.142135623730951,15.132745950421556,9.0,33.13608305156178,25.079872407968907,19.0,6.0,14.0,1.0,23.0,13.0,3.0,5.385164807134504,4.0,4.5,24.0,13.0,19.4164878389476,109.83624174196785,110.81967334368028,108.50345616615168,104.08650248711405
58,16,58,0,1.952861952861947,10.04987562112089,56.43580423808985,5.0990195135927845,9.055385138137417,14.142135623730951,15.297058540778355,8.0,32.14031735997639,23.08679276123039,18.0,7.0,14.0,2.5,21.5,10.5,2.5,5.385164807134504,5.0,5.0,23.0,12.0,20.223748416156685,109.83624174196785,110.64357188738983,108.34205093129813,103.9471019317037
59,16,59,0,1.9865319865319808,9.055385138137417,56.43580423808985,6.082762530298219,9.055385138137417,14.142135623730951,15.297058540778355,8.0,32.14031735997639,23.08679276123039,18.5,7.0,14.0,2.5,21.5,10.5,3.5,6.324555320336759,5.0,5.0,23.0,12.0,19.4164878389476,108.85311203635843,110.47624178980746,108.34205093129813,104.08650248711405
60,16,60,0,2.020202020202014,9.055385138137417,56.43580423808985,5.0990195135927845,9.055385138137417,14.142135623730951,15.297058540778355,8.0,31.144823004794873,22.090722034374522,17.5,7.0,14.0,2.5,20.5,10.5,3.5,6.324555320336759,5.0990195135927845,5.0,23.0,12.0,20.396078054371138,108.67382389517726,111.46299834474219,108.18964830333815,103.9471019317037
61,16,61,0,2.053872053872048,11.045361017187261,56.43580423808985,5.0,8.246211251235321,14.142135623730951,15.297058540778355,8.06225774829855,32.2490309931942,24.08318915758459,18.5,7.0,14.0,2.5,21.5,11.5,2.5,5.385164807134504,5.0990195135927845,5.5,23.0,12.0,19.235384061671343,108.85311203635843,110.64357188738983,108.34205093129813,104.08650248711405
62,16,62,0,2.0875420875420816,11.045361017187261,56.568542494923804,5.0990195135927845,8.06225774829855,14.142135623730951,15.132745950421556,8.06225774829855,32.2490309931942,24.186773244895647,18.5,6.0,14.0,2.0,22.0,12.0,3.0,5.385164807134504,6.082762530298219,6.0,23.0,12.0,20.223748416156685,108.67382389517726,110.64357188738983,108.50345616615168,104.08650248711405
63,16,63,0,2.121212121212116,11.045361017187261,57.55866572463264,5.0990195135927845,8.06225774829855,14.142135623730951,16.1245154965971,8.06225774829855,32.2490309931942,24.186773244895647,18.5,6.0,14.0,2.0,22.0,12.0,4.0,5.0990195135927845,5.0,5.0,24.0,13.0,19.235384061671343,109.83624174196785,111.6288493177279,109.32977636490436,104.93807697875924
64,16,64,0,2.154882154882149,11.0,56.568542494923804,5.0990195135927845,8.06225774829855,14.142135623730951,15.297058540778355,8.06225774829855,32.14031735997639,24.08318915758459,18.5,6.0,14.0,2.0,22.0,12.0,3.0,5.0990195135927845,6.082762530298219,6.0,23.0,12.0,21.37755832643195,109.83624174196785,110.64357188738983,108.50345616615168,105.07616285342742
65,16,65,0,2.188552188552183,10.04987562112089,56.568542494923804,5.0,9.055385138137417,15.132745950421556,15.297058540778355,8.06225774829855,32.14031735997639,23.08679276123039,18.0,6.0,14.0,2.0,22.0,11.0,4.0,5.0990195135927845,5.0990195135927845,5.5,24.0,13.0,19.4164878389476,110.02272492535349,111.6288493177279,109.65856099730654,105.22357150372724
66,16,66,0,2.2222222222222165,9.055385138137417,57.55866572463264,6.0,9.055385138137417,15.132745950421556,15.132745950421556,8.06225774829855,32.14031735997639,23.08679276123039,18.5,6.0,14.0,2.0,22.0,11.0,4.0,6.324555320336759,5.0990195135927845,5.0,23.0,12.0,20.223748416156685,109.83624174196785,111.6288493177279,108.34205093129813,104.93807697875924
67,16,67,0,2.2558922558922503,9.055385138137417,56.43580423808985,6.0,9.055385138137417,15.132745950421556,15.132745950421556,8.06225774829855,32.14031735997639,23.08679276123039,18.5,7.0,14.0,2.5,21.5,10.5,3.5,6.324555320336759,5.0990195135927845,5.0,23.0,13.0,20.396078054371138,109.04127658827184,111.6288493177279,109.48972554536796,105.22357150372724
68,16,68,0,2.289562289562284,9.055385138137417,56.43580423808985,6.082762530298219,9.055385138137417,14.142135623730951,16.1245154965971,8.0,32.14031735997639,23.08679276123039,18.5,7.0,14.0,2.5,21.5,10.5,3.5,5.0990195135927845,5.0,5.0,24.0,12.0,19.4164878389476,109.83624174196785,111.6288493177279,108.50345616615168,104.23531071570709
69,16,69,0,2.3232323232323178,10.0,56.43580423808985,5.0990195135927845,9.219544457292887,14.317821063276353,16.1245154965971,8.0,32.14031735997639,23.021728866442675,18.0,7.0,14.0,2.5,21.5,10.5,3.5,5.0990195135927845,6.082762530298219,6.0,23.0,12.0,20.396078054371138,110.02272492535349,112.78741064498288,108.67382389517726,104.08650248711405
70,16,70,0,2.3569023569023515,11.0,56.43580423808985,4.123105625617661,9.219544457292887,14.317821063276353,16.278820596099706,9.0,33.13608305156178,24.020824298928627,18.5,7.0,14.0,1.5,22.5,11.5,3.5,5.0990195135927845,5.0990195135927845,5.0,24.0,13.0,20.396078054371138,111.80339887498948,112.61438629233834,110.47624178980746,106.06601717798213
71,16,71,0,2.390572390572385,12.0,56.43580423808985,4.123105625617661,8.246211251235321,14.317821063276353,16.278820596099706,9.0,33.13608305156178,25.019992006393608,19.0,7.0,14.0,1.5,22.5,11.5,3.5,5.0990195135927845,5.0,5.0,23.0,13.0,19.4164878389476,110.81967334368028,111.6288493177279,109.32977636490436,104.93807697875924
72,16,72,0,2.424242424242419,12.0,56.43580423808985,4.123105625617661,8.246211251235321,14.317821063276353,16.278820596099706,9.0,33.13608305156178,25.019992006393608,19.0,7.0,14.0,1.5,22.5,11.5,3.5,5.0990195135927845,5.0,5.0,23.0,13.0,19.4164878389476,110.81967334368028,111.6288493177279,109.32977636490436,104.93807697875924
73,16,73,0,2.4579124579124527,12.041594578792296,56.568542494923804,4.123105625617661,8.06225774829855,14.142135623730951,16.1245154965971,9.0,33.13608305156178,25.079872407968907,19.0,7.0,15.0,2.0,22.0,12.0,3.0,5.0990195135927845,6.0,6.0,24.0,13.0,19.4164878389476,109.83624174196785,111.80339887498948,109.48972554536796,105.07616285342742
74,16,74,0,2.4915824915824865,11.045361017187261,56.43580423808985,5.0990195135927845,9.055385138137417,14.317821063276353,16.278820596099706,8.0,33.13608305156178,24.08318915758459,18.5,7.0,14.0,2.5,22.5,11.5,3.5,5.0990195135927845,5.0,5.0,23.0,12.0,19.4164878389476,111.6288493177279,112.61438629233834,109.48972554536796,105.22357150372724
75,16,75,0,2.52525252525252,10.04987562112089,58.42088667591412,6.082762530298219,8.06225774829855,14.142135623730951,16.278820596099706,8.0,32.14031735997639,24.08318915758459,19.0,7.0,14.0,2.5,21.5,11.5,3.5,5.0990195135927845,5.0990195135927845,5.0,23.0,13.0,19.4164878389476,110.81967334368028,112.61438629233834,110.64357188738983,106.21205204683694
76,16,76,0,2.558922558922554,13.038404810405298,57.42821606144492,4.123105625617661,7.0710678118654755,14.142135623730951,16.1245154965971,9.0,33.13608305156178,26.076809620810597,19.5,7.0,14.0,1.5,22.5,12.5,3.5,5.0990195135927845,5.0,5.0,23.0,12.0,19.4164878389476,109.83624174196785,111.6288493177279,109.32977636490436,104.93807697875924
77,16,77,0,2.592592592592588,10.04987562112089,57.42821606144492,5.0990195135927845,9.055385138137417,14.142135623730951,16.1245154965971,8.0,32.14031735997639,23.08679276123039,18.0,7.0,14.0,2.5,21.5,10.5,3.5,5.385164807134504,5.0990195135927845,5.0,23.0,12.0,19.235384061671343,110.81967334368028,112.61438629233834,109.48972554536796,105.22357150372724
78,16,78,0,2.6262626262626214,9.055385138137417,56.568542494923804,6.082762530298219,9.055385138137417,14.142135623730951,16.278820596099706,8.0,32.14031735997639,23.08679276123039,18.5,6.0,14.0,2.0,22.0,11.0,4.0,6.324555320336759,5.0990195135927845,5.0,22.0,12.0,21.213203435596427,110.81967334368028,112.61438629233834,109.65856099730654,105.22357150372724
79,16,79,0,2.659932659932655,11.0,57.42821606144492,5.0990195135927845,8.246211251235321,14.142135623730951,16.1245154965971,8.0,32.14031735997639,24.020824298928627,18.5,7.0,14.0,2.5,21.5,10.5,3.5,5.385164807134504,5.0990195135927845,5.0,23.0,13.0,20.396078054371138,111.00450441310929,112.61438629233834,109.65856099730654,105.38026380684383
80,16,80,0,2.693602693602689,9.0,58.42088667591412,6.082762530298219,9.219544457292887,14.142135623730951,16.1245154965971,8.0,32.14031735997639,23.021728866442675,18.5,7.0,14.0,2.5,21.5,10.5,3.5,5.385164807134504,5.0,5.5,24.0,13.0,21.587033144922902,110.81967334368028,112.61438629233834,110.47624178980746,106.21205204683694
81,16,81,0,2.727272727272722,9.0,58.54912467321779,5.0990195135927845,9.055385138137417,15.132745950421556,17.11724276862369,9.055385138137417,32.14031735997639,23.08679276123039,18.5,7.0,15.0,2.0,21.0,10.0,3.0,6.324555320336759,5.0990195135927845,5.0,23.0,12.0,21.37755832643195,111.80339887498948,112.61438629233834,110.47624178980746,106.21205204683694
82,16,82,0,2.7609427609427564,11.045361017187261,57.55866572463264,5.0990195135927845,8.06225774829855,14.142135623730951,16.278820596099706,9.0,33.13608305156178,25.079872407968907,19.5,7.0,15.0,2.0,22.0,12.0,3.0,5.385164807134504,5.0990195135927845,5.0,23.0,13.0,20.396078054371138,110.64357188738983,112.61438629233834,110.47624178980746,104.08650248711405
83,16,83,0,2.79461279461279,9.055385138137417,57.42821606144492,5.0,9.055385138137417,15.132745950421556,16.1245154965971,9.055385138137417,32.14031735997639,23.08679276123039,18.5,7.0,14.0,1.5,21.5,10.5,3.5,5.385164807134504,5.0990195135927845,5.0,24.0,13.0,20.223748416156685,110.81967334368028,111.46299834474219,109.32977636490436,105.07616285342742
84,16,84,0,2.828282828282824,9.0,57.3149195236284,5.0990195135927845,9.055385138137417,14.142135623730951,15.132745950421556,9.0,32.0624390837628,23.021728866442675,18.5,8.0,14.0,2.0,21.0,10.0,3.0,5.385164807134504,5.0990195135927845,5.0,24.0,13.0,21.587033144922902,111.80339887498948,112.61438629233834,110.3177229641729,106.06601717798213
85,16,85,0,2.8619528619528576,9.0,57.55866572463264,5.0990195135927845,9.219544457292887,16.1245154965971,16.1245154965971,9.0,32.14031735997639,23.021728866442675,18.5,7.0,15.0,2.0,21.0,10.0,3.0,6.324555320336759,5.0990195135927845,5.0,24.0,13.0,20.396078054371138,110.64357188738983,111.46299834474219,109.48972554536796,105.22357150372724
86,16,86,0,2.895622895622892,9.0,57.55866572463264,5.0990195135927845,9.219544457292887,16.1245154965971,16.1245154965971,9.0,32.14031735997639,23.021728866442675,18.5,7.0,15.0,2.0,21.0,10.0,3.0,6.324555320336759,5.0990195135927845,5.0,24.0,13.0,20.396078054371138,110.64357188738983,111.46299834474219,109.48972554536796,105.22357150372724
87,16,87,0,2.929292929292925,9.0,57.42821606144492,5.0990195135927845,9.055385138137417,15.132745950421556,16.1245154965971,9.055385138137417,32.14031735997639,23.08679276123039,18.5,7.0,14.0,1.5,21.5,10.5,3.5,5.0990195135927845,5.0990195135927845,5.0,24.0,13.0,19.4164878389476,111.80339887498948,113.6001760562016,111.46299834474219,106.06601717798213
88,16,88,0,2.962962962962959,9.055385138137417,57.55866572463264,5.0990195135927845,9.055385138137417,15.132745950421556,16.1245154965971,9.0,32.14031735997639,23.08679276123039,18.5,7.0,15.0,2.0,21.0,10.0,3.0,5.385164807134504,6.082762530298219,6.0,24.0,13.0,20.615528128088304,111.6288493177279,112.44998888394787,110.3177229641729,105.07616285342742
89,16,89,0,2.9966329966329925,12.041594578792296,58.54912467321779,5.0990195135927845,8.06225774829855,15.132745950421556,16.1245154965971,9.0,34.132096331752024,26.076809620810597,20.0,7.0,15.0,2.0,23.0,13.0,3.0,6.324555320336759,5.0990195135927845,5.0,24.0,13.0,19.4164878389476,111.80339887498948,112.78741064498288,110.47624178980746,106.06601717798213
90,16,90,0,3.0303030303030263,9.055385138137417,56.568542494923804,6.082762530298219,10.04987562112089,14.142135623730951,16.278820596099706,8.0,33.13608305156178,23.08679276123039,18.5,7.0,15.0,3.0,22.0,10.0,3.0,5.0990195135927845,5.0,5.0,24.0,13.0,20.396078054371138,111.80339887498948,112.61438629233834,110.47624178980746,106.21205204683694
91,16,91,0,3.06397306397306,8.06225774829855,57.42821606144492,5.0,9.219544457292887,15.132745950421556,17.26267650163207,9.055385138137417,31.25699921617557,22.090722034374522,18.0,7.0,14.0,1.5,20.5,9.5,3.5,6.324555320336759,5.0,5.0,24.0,13.0,22.360679774997898,109.83624174196785,111.80339887498948,109.65856099730654,105.38026380684383
92,16,92,0,3.0976430976430938,9.055385138137417,59.413803110051795,5.0990195135927845,9.055385138137417,15.132745950421556,17.11724276862369,8.0,31.144823004794873,22.090722034374522,17.5,7.0,14.0,2.5,20.5,9.5,3.5,5.385164807134504,5.0990195135927845,5.0,24.0,13.0,22.360679774997898,111.00450441310929,111.80339887498948,109.48972554536796,105.38026380684383
93,16,93,0,3.1313131313131275,8.246211251235321,59.413803110051795,6.0,10.04987562112089,15.132745950421556,17.11724276862369,8.0,32.14031735997639,22.090722034374522,18.0,7.0,14.0,2.5,21.5,9.5,3.5,5.0990195135927845,5.0990195135927845,5.5,24.0,13.0,21.37755832643195,110.02272492535349,111.80339887498948,108.67382389517726,105.54619841567009
94,16,94,0,3.164983164983161,9.055385138137417,60.530983801686226,5.0990195135927845,6.082762530298219,14.142135623730951,16.1245154965971,9.0,29.154759474226502,23.08679276123039,18.5,6.0,14.0,1.0,19.0,10.0,3.0,5.0990195135927845,6.082762530298219,6.0,24.0,12.0,19.235384061671343,108.85311203635843,109.48972554536796,107.35455276791944,103.0970416646375
95,16,95,0,3.198653198653195,3.1622776601683795,43.41658669218482,7.0710678118654755,8.06225774829855,10.198039027185569,11.045361017187261,6.324555320336759,18.681541692269406,10.770329614269007,11.5,7.0,13.0,4.0,8.0,2.0,3.0,5.385164807134504,6.082762530298219,5.5,24.0,13.0,18.439088914585774,107.8702924812944,108.67382389517726,105.38026380684383,100.12991560967181
96,16,96,0,3.2323232323232287,1.4142135623730951,45.17742799230607,6.082762530298219,8.0,10.198039027185569,12.041594578792296,9.055385138137417,22.20360331117452,14.317821063276353,14.5,11.0,15.0,4.0,9.0,0.0,2.0,6.324555320336759,7.0,6.5,25.0,16.0,19.235384061671343,114.9826073804208,114.9826073804208,111.64676439557037,106.56922632730333
97,16,97,0,3.2659932659932625,2.0,48.041648597857254,4.123105625617661,7.0,11.045361017187261,12.0,12.0,25.019992006393608,18.027756377319946,17.0,15.0,17.0,4.0,9.0,1.0,0.0,7.0710678118654755,8.0,7.5,26.0,19.0,20.223748416156685,122.494897852931,121.41251994749142,118.27087553578015,112.21853679316978
98,16,98,0,3.299663299663296,6.082762530298219,43.104524124504614,6.0,10.0,10.0,11.0,8.0,30.01666203960727,20.024984394500787,17.0,15.0,18.0,8.5,13.5,3.5,2.5,7.0710678118654755,7.0,7.0,26.0,18.0,20.223748416156685,122.3315167894194,120.33702672078948,116.27553482998907,107.22872749408155
99,16,99,0,3.33333333333333,1.0,45.044422518220834,5.0,6.0,10.04987562112089,10.0,14.0,25.019992006393608,19.026297590440446,19.0,18.0,20.0,5.0,6.0,1.0,0.0,7.0710678118654755,8.0,7.5,25.0,18.0,22.20360331117452,124.4869471069156,123.4908903522847,119.50732195141852,111.44954015158609
100,16,100,0,3.367003367003364,3.1622776601683795,47.095647357266465,6.0,8.06225774829855,11.045361017187261,13.0,15.0,26.076809620810597,18.027756377319946,19.5,21.0,24.0,7.5,3.5,5.5,1.5,7.0710678118654755,7.0,7.0,25.0,17.0,22.360679774997898,123.4908903522847,122.494897852931,118.3427226321923,113.28283188550682
101,16,101,0,3.4006734006733974,8.06225774829855,47.095647357266465,7.0,9.055385138137417,12.041594578792296,12.041594578792296,16.0312195418814,24.186773244895647,15.132745950421556,19.0,22.0,25.0,7.5,0.5,8.5,0.5,8.246211251235321,7.0,7.0,25.0,17.0,22.20360331117452,121.92620719107111,120.93386622447825,116.84177335182824,110.8873302050329
102,16,102,0,3.434343434343431,3.0,51.15662224971465,7.0710678118654755,10.04987562112089,13.038404810405298,14.035668847618199,15.0,35.05709628591621,25.019992006393608,23.5,22.0,26.0,9.0,11.0,0.0,2.0,8.06225774829855,7.0,7.0,25.0,16.0,22.360679774997898,120.93386622447825,120.93386622447825,115.73245007343446,109.77249200050075
103,16,103,0,3.468013468013465,2.0,50.15974481593781,8.06225774829855,11.045361017187261,12.041594578792296,13.038404810405298,15.0,36.05551275463989,25.019992006393608,24.0,22.0,26.0,9.0,12.0,0.0,1.0,7.0710678118654755,6.0,6.0,25.0,16.0,22.360679774997898,120.93386622447825,120.81390648431164,116.84177335182824,109.89540481748998
104,16,104,0,3.501683501683498,1.4142135623730951,50.24937810560445,8.0,11.045361017187261,13.038404810405298,14.142135623730951,15.033296378372908,35.12833614050059,24.08318915758459,23.5,21.0,26.0,8.5,11.5,0.5,0.5,7.0710678118654755,7.0710678118654755,7.0,28.0,17.0,22.360679774997898,123.32072007574396,123.32072007574396,118.2285921425101,111.30588483993108
105,16,105,0,3.5353535353535324,2.23606797749979,50.35871324805669,7.0,11.045361017187261,13.152946437965905,14.142135623730951,15.033296378372908,35.12833614050059,24.08318915758459,23.0,20.0,26.0,8.0,12.0,0.0,0.0,7.280109889280518,6.082762530298219,6.5,27.0,16.0,22.360679774997898,123.32072007574396,122.3315167894194,118.37651794169315,109.32977636490436
106,16,106,0,3.569023569023566,4.123105625617661,48.373546489791295,8.0,11.045361017187261,12.041594578792296,14.142135623730951,14.035668847618199,37.12142238654117,26.076809620810597,24.0,19.0,25.0,8.0,15.0,2.0,0.0,7.280109889280518,7.0,7.5,28.0,16.0,22.360679774997898,122.48265183282079,122.48265183282079,117.38824472663352,109.48972554536796
107,16,107,0,3.6026936026936,4.123105625617661,50.35871324805669,8.0,11.045361017187261,12.041594578792296,14.142135623730951,14.035668847618199,37.12142238654117,26.076809620810597,24.0,19.0,25.0,8.0,15.0,2.0,0.0,7.280109889280518,7.0,7.0,27.0,16.0,22.360679774997898,123.62847568420473,122.64175471673585,117.38824472663352,109.65856099730654
108,16,108,0,3.6363636363636336,8.0,51.478150704935004,7.0710678118654755,11.180339887498949,13.152946437965905,15.033296378372908,13.0,39.11521443121589,28.0178514522438,24.0,18.0,25.0,8.5,17.5,4.5,0.5,8.246211251235321,7.0710678118654755,7.5,27.0,15.0,23.345235059857504,124.45882853377658,123.47064428438041,118.37651794169315,109.32977636490436
109,16,109,0,3.6700336700336673,8.06225774829855,52.3450093132096,7.0710678118654755,11.045361017187261,14.035668847618199,15.132745950421556,12.0,38.118237105091836,27.073972741361768,23.0,17.0,23.0,8.0,18.0,5.0,1.0,7.280109889280518,7.0710678118654755,7.0,27.0,16.0,24.515301344262525,124.31009613060397,123.32072007574396,119.21828718783037,110.16805344563369
110,16,110,0,3.703703703703701,9.0,51.24451190127583,7.0710678118654755,12.165525060596439,13.038404810405298,15.132745950421556,12.0,40.11234224026316,28.0178514522438,23.5,18.0,23.0,8.5,19.5,5.5,1.5,6.324555320336759,6.082762530298219,6.0,28.0,16.0,23.53720459187964,127.57742747053649,125.44720004846661,120.20815280171308,112.14722466472365
111,16,111,0,3.737373737373735,9.055385138137417,52.3450093132096,6.082762530298219,12.041594578792296,14.142135623730951,14.142135623730951,12.0,39.11521443121589,27.073972741361768,22.5,17.0,23.0,8.0,19.0,6.0,1.0,4.123105625617661,4.123105625617661,4.0,27.0,15.0,23.345235059857504,127.57742747053649,125.44720004846661,120.3536455617361,112.29425630903836
112,16,112,0,3.771043771043769,9.055385138137417,52.23983154643591,6.082762530298219,12.041594578792296,14.142135623730951,15.132745950421556,12.0,39.11521443121589,27.073972741361768,22.5,17.0,22.0,7.5,19.5,5.5,0.5,4.123105625617661,3.1622776601683795,3.0,28.0,15.0,23.769728648009426,127.73801313626261,125.60254774486066,119.36498649101419,112.29425630903836
113,16,113,0,3.8047138047138014,8.06225774829855,52.46903848937962,7.0710678118654755,13.038404810405298,14.035668847618199,15.132745950421556,11.045361017187261,39.20459156782532,26.1725046566048,22.0,16.0,23.0,8.5,19.5,5.5,1.5,4.123105625617661,4.123105625617661,3.5,28.0,14.0,23.769728648009426,127.73801313626261,127.57742747053649,121.19818480488888,113.13708498984761
114,16,114,0,3.838383838383836,9.055385138137417,52.46903848937962,7.0710678118654755,12.041594578792296,14.142135623730951,16.1245154965971,11.045361017187261,39.20459156782532,27.16615541441225,22.5,17.0,24.0,9.5,18.5,4.5,1.5,5.385164807134504,5.0990195135927845,5.0,28.0,14.0,24.73863375370596,128.2653499585917,126.92123541787639,121.6552506059644,113.6001760562016
115,16,115,0,3.8720538720538697,9.055385138137417,53.46026561849464,7.0710678118654755,12.041594578792296,14.142135623730951,15.132745950421556,12.0,40.11234224026316,28.071337695236398,23.5,17.0,24.0,8.5,19.5,5.5,1.5,7.280109889280518,6.082762530298219,6.0,29.0,14.0,23.769728648009426,127.283148923964,127.09838708654017,121.82364302548172,113.6001760562016
116,16,116,0,3.905723905723904,10.04987562112089,52.61178575186362,7.0710678118654755,12.041594578792296,13.152946437965905,15.132745950421556,11.045361017187261,40.19950248448356,28.160255680657446,23.0,17.0,25.0,10.0,19.0,5.0,2.0,7.280109889280518,6.082762530298219,6.0,29.0,13.0,24.73863375370596,127.283148923964,125.93649193144932,120.66896867049125,112.61438629233834
117,16,117,0,3.939393939393937,6.082762530298219,52.46903848937962,8.06225774829855,12.041594578792296,13.152946437965905,14.317821063276353,12.041594578792296,38.2099463490856,26.1725046566048,23.0,17.0,24.0,8.5,17.5,4.5,0.5,7.280109889280518,7.0710678118654755,7.0,28.0,14.0,23.53720459187964,127.283148923964,126.30122723077555,121.82364302548172,114.75626344561765
118,16,118,0,3.973063973063971,1.0,52.46903848937962,8.06225774829855,12.165525060596439,13.152946437965905,15.132745950421556,14.035668847618199,35.22782990761707,23.08679276123039,22.5,17.0,24.0,6.5,14.5,1.5,1.5,7.280109889280518,7.0710678118654755,7.0,29.0,14.0,24.73863375370596,127.47548783981962,127.283148923964,122.0,113.95174417269794
119,16,119,0,4.006734006734004,2.23606797749979,50.635955604688654,9.0,11.180339887498949,14.142135623730951,15.297058540778355,14.142135623730951,36.345563690772494,25.179356624028344,24.0,18.0,26.0,8.0,14.0,1.0,1.0,8.54400374531753,8.06225774829855,8.0,28.0,13.0,23.769728648009426,125.51493934986385,125.31959144523253,119.23925528113634,112.17842929904127
120,16,120,0,4.040404040404038,7.0710678118654755,52.46903848937962,7.0710678118654755,12.165525060596439,14.142135623730951,15.132745950421556,13.038404810405298,39.319206502675,27.16615541441225,23.5,18.0,25.0,8.5,17.5,3.5,0.5,8.54400374531753,8.06225774829855,8.0,27.0,13.0,23.53720459187964,127.47548783981962,127.283148923964,122.18428704215611,113.95174417269794
121,16,121,0,4.074074074074072,9.055385138137417,51.478150704935004,7.0710678118654755,11.045361017187261,13.152946437965905,14.142135623730951,12.041594578792296,39.20459156782532,28.160255680657446,23.5,18.0,25.0,9.5,17.5,4.5,1.5,9.219544457292887,7.0710678118654755,7.5,27.0,14.0,23.53720459187964,128.08200498118384,128.08200498118384,122.0,113.77170122662314
122,16,122,0,4.1077441077441055,8.06225774829855,51.478150704935004,7.0710678118654755,11.180339887498949,14.142135623730951,15.297058540778355,12.041594578792296,38.3275357934736,27.16615541441225,23.0,18.0,25.0,9.5,16.5,3.5,2.5,9.219544457292887,8.0,8.5,28.0,14.0,23.53720459187964,126.11502686040232,126.11502686040232,119.85407794480753,111.80339887498948
123,16,123,0,4.141414141414139,9.055385138137417,52.61178575186362,6.082762530298219,12.165525060596439,14.142135623730951,15.132745950421556,12.041594578792296,39.319206502675,27.16615541441225,22.5,17.0,25.0,9.0,18.0,5.0,2.0,9.219544457292887,8.0,8.5,28.0,14.0,23.53720459187964,128.2653499585917,126.11502686040232,120.66896867049125,113.6001760562016
124,16,124,0,4.175084175084173,8.06225774829855,52.3450093132096,7.0710678118654755,11.045361017187261,14.142135623730951,15.132745950421556,11.045361017187261,37.21558813185679,26.1725046566048,22.0,17.0,23.0,9.0,17.0,4.0,2.0,9.219544457292887,8.06225774829855,8.5,28.0,15.0,24.515301344262525,127.90621564255585,125.76565508913791,120.3536455617361,112.44998888394787
125,16,125,0,4.208754208754207,8.06225774829855,51.478150704935004,7.0710678118654755,12.165525060596439,14.142135623730951,15.132745950421556,11.045361017187261,38.3275357934736,26.1725046566048,22.0,17.0,24.0,9.5,17.5,4.5,2.5,8.246211251235321,8.06225774829855,8.0,28.0,14.0,23.53720459187964,128.08200498118384,126.75172582651489,121.6552506059644,113.43720729989786
126,16,126,0,4.24242424242424,9.055385138137417,50.48762224545735,6.082762530298219,12.041594578792296,14.142135623730951,16.1245154965971,12.041594578792296,39.20459156782532,27.16615541441225,22.5,18.0,25.0,9.5,17.5,4.5,2.5,9.219544457292887,8.0,8.0,27.0,15.0,23.53720459187964,126.58988901172162,125.44720004846661,120.20815280171308,111.15754585272202
127,16,127,0,4.276094276094274,13.038404810405298,50.24937810560445,6.0,12.165525060596439,13.152946437965905,15.132745950421556,11.045361017187261,42.190046219457976,30.066592756745816,23.5,20.0,25.0,11.5,19.5,5.5,4.5,7.280109889280518,5.0,5.0,28.0,15.0,24.515301344262525,127.4244874425634,127.27922061357856,120.93386622447825,111.75866856758807
128,16,128,0,4.309764309764308,11.045361017187261,50.15974481593781,6.0,13.038404810405298,14.035668847618199,16.1245154965971,11.045361017187261,41.10960958218893,28.071337695236398,22.5,19.0,23.0,10.0,20.0,5.0,4.0,4.123105625617661,3.1622776601683795,3.5,28.0,15.0,24.515301344262525,127.4244874425634,126.15070352558483,119.94165248152953,111.75866856758807
129,16,129,0,4.343434343434342,13.0,49.25444142409901,5.0990195135927845,13.152946437965905,13.152946437965905,15.132745950421556,11.0,42.1070065428546,29.017236257093817,22.5,19.0,24.0,10.5,20.5,6.5,4.5,3.1622776601683795,3.1622776601683795,3.5,29.0,15.0,25.709920264364882,126.92123541787639,125.60254774486066,119.07980517283357,111.01801655587259
130,16,130,0,4.377104377104375,12.0,49.25444142409901,6.082762530298219,12.165525060596439,14.035668847618199,15.132745950421556,11.0,41.10960958218893,29.017236257093817,23.0,19.0,24.0,10.5,19.5,5.5,4.5,4.123105625617661,3.605551275463989,3.0,29.0,15.0,24.73863375370596,127.73801313626261,125.44720004846661,119.21828718783037,111.01801655587259
131,16,131,0,4.410774410774409,10.0,47.16990566028302,5.0990195135927845,13.152946437965905,13.038404810405298,15.033296378372908,12.0,40.11234224026316,27.018512172212592,22.0,20.0,24.0,10.0,18.0,4.0,4.0,5.0990195135927845,5.0990195135927845,4.5,28.0,15.0,23.53720459187964,125.76565508913791,124.45882853377658,117.23907198540937,109.89540481748998
132,16,132,0,4.444444444444443,8.0,45.39823785126467,6.082762530298219,12.165525060596439,12.165525060596439,14.142135623730951,12.0,38.118237105091836,26.019223662515376,22.0,19.0,25.0,10.0,16.0,3.0,3.0,6.324555320336759,6.082762530298219,5.5,29.0,14.0,23.769728648009426,125.93649193144932,124.61540835707277,118.2285921425101,110.8873302050329
133,16,133,0,4.478114478114477,8.06225774829855,45.5411901469428,6.082762530298219,12.165525060596439,11.180339887498949,13.038404810405298,12.0,38.2099463490856,26.076809620810597,22.0,18.0,25.0,9.5,16.5,3.5,2.5,6.324555320336759,6.082762530298219,5.5,29.0,14.0,23.769728648009426,125.31959144523253,122.8087944733601,116.40017182117903,109.03669107231748
134,16,134,0,4.51178451178451,7.0710678118654755,46.2709412050371,7.0710678118654755,13.038404810405298,12.041594578792296,13.152946437965905,12.0,39.11521443121589,26.076809620810597,22.5,19.0,24.0,9.5,17.5,3.5,2.5,7.280109889280518,7.0710678118654755,6.5,29.0,15.0,23.769728648009426,125.93649193144932,124.61540835707277,118.37651794169315,111.01801655587259
135,16,135,0,4.545454545454544,7.0,46.389654018972806,6.082762530298219,13.152946437965905,12.165525060596439,14.142135623730951,13.0,39.11521443121589,26.019223662515376,22.5,19.0,25.0,9.0,17.0,3.0,2.0,7.615773105863909,7.0710678118654755,7.0,28.0,15.0,22.80350850198276,124.95199078045935,123.79418403139947,117.23907198540937,109.03669107231748
136,16,136,0,4.579124579124578,7.0710678118654755,45.39823785126467,7.0710678118654755,12.041594578792296,12.041594578792296,13.038404810405298,12.041594578792296,38.2099463490856,26.1725046566048,22.5,19.0,25.0,10.0,16.0,2.0,3.0,6.324555320336759,7.0710678118654755,6.5,29.0,14.0,22.80350850198276,124.95199078045935,123.62847568420473,117.23907198540937,108.04628637764465
137,16,137,0,4.612794612794612,7.0710678118654755,45.70557952810576,7.0710678118654755,12.041594578792296,12.165525060596439,13.152946437965905,12.0,38.118237105091836,26.076809620810597,22.5,18.0,26.0,10.0,16.0,2.0,3.0,7.280109889280518,6.082762530298219,6.0,29.0,13.0,25.96150997149434,127.09838708654017,125.93649193144932,118.69709347747316,111.46299834474219
138,16,138,0,4.646464646464645,8.06225774829855,47.51841748206689,6.082762530298219,13.038404810405298,12.165525060596439,14.142135623730951,12.0,39.11521443121589,26.076809620810597,22.0,18.0,25.0,9.5,17.5,3.5,2.5,7.280109889280518,7.0710678118654755,6.5,29.0,14.0,22.80350850198276,126.11502686040232,124.77980605851253,118.53269591129698,111.30588483993108
139,16,139,0,4.680134680134679,8.0,49.25444142409901,6.082762530298219,13.152946437965905,14.142135623730951,15.033296378372908,13.038404810405298,40.19950248448356,27.073972741361768,23.0,20.0,25.0,9.5,17.5,3.5,2.5,7.0710678118654755,7.0,7.0,28.0,15.0,23.769728648009426,124.61540835707277,123.47064428438041,117.23907198540937,110.0272693471941
140,16,140,0,4.713804713804713,8.0,49.25444142409901,7.0710678118654755,12.165525060596439,12.041594578792296,14.035668847618199,12.041594578792296,39.20459156782532,27.073972741361768,23.0,19.0,24.0,9.5,17.5,4.5,2.5,8.246211251235321,7.0710678118654755,7.0,27.0,15.0,22.561028345356956,127.57742747053649,125.29964086141668,119.21828718783037,112.00892821556681
141,16,141,0,4.7474747474747465,8.0,49.36598018878993,6.082762530298219,12.165525060596439,14.035668847618199,14.142135623730951,13.0,39.11521443121589,27.018512172212592,23.0,19.0,25.0,9.0,17.0,3.0,3.0,8.246211251235321,6.082762530298219,6.5,28.0,15.0,23.769728648009426,126.58988901172162,125.44720004846661,119.07980517283357,111.87939935484101
142,16,142,0,4.78114478114478,9.055385138137417,49.25444142409901,7.0710678118654755,13.038404810405298,13.038404810405298,14.035668847618199,12.0,41.10960958218893,28.071337695236398,23.5,20.0,25.0,10.5,18.5,4.5,3.5,7.280109889280518,6.082762530298219,6.0,27.0,15.0,22.561028345356956,125.44720004846661,124.31009613060397,119.07980517283357,111.87939935484101
143,16,143,0,4.814814814814814,11.0,49.16299421312742,6.082762530298219,12.165525060596439,14.035668847618199,15.033296378372908,12.0,41.10960958218893,29.017236257093817,23.5,21.0,25.0,11.0,18.0,4.0,4.0,7.280109889280518,7.0710678118654755,7.0,27.0,16.0,23.53720459187964,125.60254774486066,123.47064428438041,118.37651794169315,110.16805344563369
144,16,144,0,4.848484848484848,11.045361017187261,50.15974481593781,6.082762530298219,11.045361017187261,14.142135623730951,15.033296378372908,12.0,40.11234224026316,29.068883707497267,23.5,21.0,25.0,11.0,17.0,4.0,4.0,7.0710678118654755,6.082762530298219,7.0,27.0,16.0,23.53720459187964,127.4244874425634,125.15989773086265,120.07081243999309,112.75194011634566
145,16,145,0,4.8821548821548815,10.04987562112089,49.16299421312742,6.0,12.041594578792296,14.142135623730951,14.142135623730951,12.041594578792296,40.11234224026316,28.071337695236398,23.0,21.0,25.0,11.0,17.0,4.0,4.0,8.06225774829855,7.0710678118654755,7.0,27.0,16.0,24.515301344262525,126.15070352558483,124.03628501370073,118.82760622010359,111.64676439557037
146,16,146,0,4.915824915824915,10.0,50.15974481593781,6.082762530298219,12.041594578792296,13.0,15.033296378372908,12.0,40.049968789001575,28.0178514522438,23.0,21.0,25.0,11.0,17.0,4.0,5.0,8.06225774829855,7.0710678118654755,7.0,26.0,17.0,22.360679774997898,125.89678312014172,123.9112585683803,118.71394189394942,110.76551810017412
147,16,147,0,4.949494949494949,10.0,48.093658625644196,7.0710678118654755,12.041594578792296,13.038404810405298,14.035668847618199,12.0,41.048751503547585,29.017236257093817,24.0,22.0,25.0,11.5,17.5,4.5,4.5,8.06225774829855,8.06225774829855,7.5,26.0,17.0,22.20360331117452,122.6906679417795,122.494897852931,117.34564329364768,110.3675676999362
148,16,148,0,4.983164983164983,9.0,48.041648597857254,7.0,13.038404810405298,13.0,14.035668847618199,12.0,41.012193308819754,28.0,23.5,22.0,24.0,11.0,18.0,4.0,4.0,8.06225774829855,7.0,7.0,25.0,17.0,23.345235059857504,124.57929201917949,124.57929201917949,119.50732195141852,111.44954015158609
149,16,149,0,5.016835016835016,9.0,48.041648597857254,7.0,13.038404810405298,13.0,14.035668847618199,12.0,41.012193308819754,28.0,23.5,22.0,24.0,11.0,18.0,4.0,4.0,8.06225774829855,7.0,7.0,25.0,17.0,23.345235059857504,124.57929201917949,124.57929201917949,119.50732195141852,111.44954015158609
150,16,150,0,5.05050505050505,2.0,48.041648597857254,8.0,13.038404810405298,13.0,14.035668847618199,14.0,37.013511046643494,24.0,23.0,22.0,24.0,9.0,14.0,0.0,2.0,7.0710678118654755,7.0,7.5,25.0,18.0,23.345235059857504,125.4830665866913,123.40583454602137,118.3427226321923,110.3675676999362
151,16,151,0,5.084175084175084,1.4142135623730951,48.010415536631214,8.0,13.0,13.0,15.033296378372908,14.0,36.013886210738214,23.021728866442675,22.5,22.0,23.0,8.5,13.5,0.5,0.5,8.06225774829855,7.0710678118654755,7.5,25.0,18.0,23.345235059857504,124.4869471069156,124.4025723206719,119.26860441876563,111.28791488746656
152,16,152,0,5.117845117845118,3.1622776601683795,49.040799340956916,8.0,12.0,13.0,14.035668847618199,13.0,36.013886210738214,24.020824298928627,22.5,21.0,23.0,9.0,14.0,1.0,1.0,8.06225774829855,7.0,7.0,24.0,18.0,23.194827009486403,125.32358118087753,124.32618388738553,118.27087553578015,112.21853679316978
153,16,153,0,5.151515151515151,5.0,48.010415536631214,8.0,12.041594578792296,13.0,14.0,12.0,37.013511046643494,25.0,22.5,22.0,23.0,10.5,14.5,1.5,3.5,7.0710678118654755,7.0,7.0,25.0,19.0,23.194827009486403,125.32358118087753,124.25779653607253,119.26860441876563,111.28791488746656
154,16,154,0,5.185185185185185,7.0,48.010415536631214,7.0,13.038404810405298,13.0,14.035668847618199,12.0,39.01281840626232,26.0,22.5,23.0,24.0,11.5,15.5,2.5,4.5,7.0710678118654755,7.0,7.0,24.0,18.0,22.20360331117452,124.25779653607253,124.25779653607253,119.20570456148481,111.16204388189342
155,16,155,0,5.218855218855219,9.0,49.040799340956916,7.0,12.041594578792296,13.038404810405298,15.033296378372908,12.0,40.01249804748511,28.0,23.5,22.0,24.0,11.0,17.0,4.0,4.0,8.06225774829855,7.0,7.0,24.0,18.0,23.194827009486403,125.32358118087753,123.25988804148737,118.27087553578015,110.22250223978767
156,16,156,0,5.252525252525253,9.0,48.010415536631214,7.0,13.038404810405298,12.0,14.035668847618199,12.0,41.012193308819754,28.0,23.5,23.0,24.0,11.5,17.5,3.5,4.5,8.06225774829855,8.0,7.5,24.0,18.0,24.186773244895647,126.25371281669304,124.25779653607253,119.20570456148481,111.16204388189342
157,16,157,0,5.286195286195286,9.0,48.010415536631214,7.0,13.0,12.0,14.0,12.0,41.0,28.0,23.5,22.0,23.0,10.5,18.5,4.5,4.5,8.06225774829855,7.0,7.0,24.0,19.0,22.090722034374522,124.19742348374221,124.14507642270796,118.10588469674151,110.11357772772621
158,16,158,0,5.31986531986532,9.0,49.0,7.0,13.0,14.0,14.0,12.0,41.0,28.0,23.5,23.0,23.0,11.0,18.0,4.0,5.0,8.06225774829855,7.0,7.0,23.0,19.0,24.08318915758459,124.10076550932311,124.14507642270796,119.10499569707393,110.11357772772621
159,16,159,0,5.353535353535354,10.0,50.0,7.0,13.0,13.0,15.0,11.045361017187261,41.012193308819754,28.0178514522438,23.0,22.0,22.0,11.0,19.0,5.0,5.0,8.06225774829855,7.0,7.0,23.0,18.0,24.186773244895647,123.14625451064275,123.10158406779338,118.10588469674151,110.04090148667449
160,16,160,0,5.387205387205388,10.0,49.0,7.0,12.0,14.0,15.0,12.041594578792296,41.012193308819754,29.017236257093817,24.0,23.0,23.0,11.0,18.0,5.0,5.0,7.0710678118654755,7.0710678118654755,7.0,23.0,19.0,22.090722034374522,124.06449935416659,123.06502346320826,119.06720791217035,111.04053313993049
161,16,161,0,5.420875420875421,11.0,51.0,7.0,12.0,13.0,15.0,11.045361017187261,41.012193308819754,29.017236257093817,23.5,22.0,22.0,11.0,19.0,6.0,4.0,8.06225774829855,7.0,7.5,23.0,19.0,23.08679276123039,124.06449935416659,123.03657992645927,118.03812943282352,111.04053313993049
162,16,162,0,5.454545454545455,9.0,50.0,7.0,12.0,14.0,15.0,12.041594578792296,40.01249804748511,28.0178514522438,23.5,22.0,22.0,10.0,18.0,5.0,4.0,7.0710678118654755,7.0,7.0,23.0,19.0,23.194827009486403,123.06502346320826,122.10241602851272,117.06835610018618,111.07204868912791
163,16,163,0,5.488215488215489,10.0,51.0,6.0,11.0,13.0,14.035668847618199,13.038404810405298,40.01249804748511,29.017236257093817,24.0,22.0,22.0,9.0,18.0,6.0,3.0,8.06225774829855,7.0,7.0,23.0,19.0,23.194827009486403,123.06502346320826,122.06555615733703,118.10588469674151,112.11155159036913
164,16,164,0,5.5218855218855225,9.0,52.009614495783374,7.0,12.0,14.035668847618199,16.0,12.0,40.0,28.0,23.5,20.0,21.0,8.5,19.5,6.5,1.5,8.06225774829855,7.0,7.0,23.0,18.0,22.090722034374522,121.1486689980538,122.10241602851272,118.06777714516353,112.0714058089752
165,16,165,0,5.555555555555556,9.0,53.03772242470448,7.0,11.045361017187261,13.038404810405298,14.035668847618199,12.041594578792296,39.0,28.0178514522438,23.5,20.0,22.0,9.0,18.0,6.0,2.0,8.06225774829855,7.0,7.0,23.0,18.0,22.090722034374522,124.25779653607253,123.25988804148737,119.26860441876563,113.28283188550682
166,16,166,0,5.58922558922559,9.0,54.037024344425184,7.0,11.0,13.0,15.033296378372908,12.0,39.0,28.0,23.5,19.0,21.0,8.0,19.0,7.0,2.0,8.06225774829855,8.06225774829855,8.0,23.0,18.0,23.08679276123039,123.25988804148737,123.25988804148737,120.26637102698326,113.28283188550682
167,16,167,0,5.622895622895624,10.0,54.00925846556311,6.0,11.045361017187261,14.0,15.0,12.041594578792296,39.0,28.0178514522438,23.0,19.0,20.0,7.5,19.5,7.5,1.5,8.06225774829855,7.0710678118654755,7.0,23.0,18.0,22.090722034374522,124.14507642270796,124.14507642270796,121.1486689980538,114.15778554264269
168,16,168,0,5.6565656565656575,9.0,54.00925846556311,7.0,11.045361017187261,14.0,15.033296378372908,12.041594578792296,39.0,28.0178514522438,23.5,19.0,20.0,7.5,19.5,7.5,1.5,8.06225774829855,8.06225774829855,8.0,23.0,19.0,22.090722034374522,123.14625451064275,123.14625451064275,119.15116449284078,113.21660655575224
169,16,169,0,5.690235690235691,10.0,55.0,7.0,11.0,14.035668847618199,15.0,12.0,40.0,29.0,24.0,20.0,20.0,8.0,20.0,8.0,1.0,9.055385138137417,8.0,8.5,22.0,18.0,23.08679276123039,123.14625451064275,123.10158406779338,120.14990636700472,112.16059914247963
170,16,170,0,5.723905723905725,12.0,54.00925846556311,7.0,11.0,13.038404810405298,16.0,12.0,42.0,31.0,25.0,20.0,21.0,8.5,21.5,9.5,1.5,8.246211251235321,8.0,8.0,23.0,19.0,23.08679276123039,125.06398362438324,124.10076550932311,119.10499569707393,112.11155159036913
171,16,171,0,5.757575757575759,12.0,55.00909015790027,6.0,11.0,13.0,15.033296378372908,12.0,41.0,30.0,24.0,19.0,20.0,7.5,21.5,9.5,1.5,8.06225774829855,7.0710678118654755,7.0,22.0,18.0,23.194827009486403,123.14625451064275,123.14625451064275,118.15244390193544,111.16204388189342
172,16,172,0,5.791245791245792,12.0,54.0,7.0,11.0,14.0,15.033296378372908,11.045361017187261,41.012193308819754,30.01666203960727,24.0,20.0,20.0,9.0,21.0,9.0,2.0,8.06225774829855,7.0,7.0,22.0,18.0,23.08679276123039,124.14507642270796,123.1990259701756,119.15116449284078,111.28791488746656
173,16,173,0,5.824915824915826,10.0,54.0,7.0,12.0,14.035668847618199,15.0,13.038404810405298,42.01190307520001,30.01666203960727,25.0,22.0,22.0,9.0,20.0,8.0,2.0,8.06225774829855,7.0,7.5,23.0,19.0,22.090722034374522,123.14625451064275,121.10326172320876,117.10678887237921,110.16351483136329
174,16,174,0,5.85858585858586,10.0,51.0098029794274,7.0,12.0,13.0,15.033296378372908,12.0,41.0,29.0,24.0,22.0,23.0,10.5,18.5,6.5,4.5,8.06225774829855,7.0710678118654755,7.0,23.0,19.0,22.090722034374522,123.14625451064275,122.20065466273084,116.15506876585283,109.22453936730518
175,16,175,0,5.892255892255894,10.0,48.010415536631214,8.0,12.0,13.0,14.0,12.0,42.0,30.0,25.0,23.0,24.0,11.5,18.5,5.5,4.5,8.0,8.0,7.5,23.0,18.0,23.08679276123039,124.25779653607253,122.2620137246234,117.2092146548214,109.22453936730518
176,16,176,0,5.925925925925927,10.0,46.010868281309364,7.0,13.0,12.0,14.035668847618199,13.0,43.0,30.0,25.0,24.0,25.0,11.5,18.5,4.5,4.5,8.06225774829855,8.0,7.5,24.0,19.0,22.20360331117452,124.19742348374221,123.14625451064275,117.15374513859982,109.16501271011697
177,16,177,0,5.959595959595961,10.04987562112089,46.010868281309364,8.0,13.038404810405298,12.0,14.0,13.0,44.0,31.016124838541646,26.0,25.0,26.0,12.5,18.5,4.5,4.5,8.06225774829855,8.0,7.5,23.0,19.0,23.021728866442675,124.14507642270796,123.14625451064275,116.1077086157504,108.11567878897121
178,16,178,0,5.993265993265995,8.06225774829855,44.0,8.0,13.038404810405298,11.0,13.0,14.0,43.0,30.01666203960727,26.0,26.0,26.0,12.0,17.0,3.0,5.0,8.06225774829855,8.0,8.0,24.0,20.0,22.090722034374522,124.14507642270796,122.20065466273084,117.15374513859982,108.16653826391968
179,16,179,0,6.026936026936029,4.0,43.0,8.0,13.0,11.0,13.0,15.033296378372908,40.01249804748511,27.018512172212592,25.0,25.0,25.0,10.0,15.0,1.0,3.0,8.06225774829855,8.0,8.0,23.0,19.0,22.090722034374522,122.10241602851272,122.10241602851272,115.10864433221339,108.16653826391968
180,16,180,0,6.060606060606062,3.0,44.01136216933077,8.0,11.0,11.0,12.0,15.0,37.0,26.0,24.5,24.0,25.0,9.5,12.5,0.5,2.5,8.06225774829855,7.0,7.0,23.0,20.0,21.095023109728988,123.10158406779338,122.10241602851272,117.10678887237921,109.1146186356347
181,16,181,0,6.094276094276096,2.0,44.0,8.0,11.0,11.0,12.0,15.0,36.0,25.0,24.0,24.0,24.0,9.0,12.0,0.0,2.0,8.06225774829855,7.0,7.0,22.0,20.0,22.02271554554524,122.06555615733703,121.06609764917675,116.1077086157504,109.1146186356347
182,16,182,0,6.12794612794613,3.0,44.0,8.0,11.0,10.0,12.0,14.035668847618199,36.013886210738214,25.019992006393608,23.5,25.0,25.0,11.0,11.0,1.0,3.0,8.06225774829855,7.0,7.5,22.0,19.0,23.021728866442675,124.06449935416659,123.14625451064275,118.15244390193544,109.16501271011697
183,16,183,0,6.161616161616164,4.0,44.0,7.0,11.0,11.0,11.0,15.033296378372908,37.013511046643494,26.019223662515376,24.0,25.0,25.0,10.0,12.0,0.0,3.0,8.06225774829855,7.0,7.5,23.0,20.0,23.021728866442675,125.09996003196804,124.10076550932311,118.10588469674151,110.16351483136329
184,16,184,0,6.195286195286197,3.0,44.01136216933077,9.0,12.0,11.0,12.0,14.035668847618199,38.01315561749642,26.019223662515376,24.5,25.0,26.0,11.5,12.5,0.5,2.5,8.06225774829855,7.0,7.5,23.0,20.0,23.08679276123039,124.10076550932311,123.10158406779338,118.20744477400736,109.16501271011697
185,16,185,0,6.228956228956231,3.0,45.0111097397076,9.0,12.0,11.0,12.041594578792296,14.0,38.0,26.0,24.5,26.0,27.0,12.5,11.5,0.5,3.5,8.06225774829855,8.0,8.0,23.0,20.0,22.090722034374522,123.10158406779338,122.14745187681976,118.15244390193544,109.16501271011697
186,16,186,0,6.262626262626265,3.0,46.010868281309364,9.0,12.0,11.0,13.038404810405298,15.0,39.0,27.0,25.5,26.0,27.0,11.5,12.5,0.5,3.5,8.0,7.0,7.5,22.0,19.0,23.08679276123039,123.1990259701756,123.25988804148737,117.27318534089538,109.37092849564732
187,16,187,0,6.2962962962962985,5.0,48.010415536631214,9.0,13.0,12.0,13.0,13.0,40.0,27.0,24.5,26.0,27.0,13.5,13.5,0.5,4.5,9.055385138137417,7.0,7.5,23.0,20.0,23.08679276123039,125.14391715141412,125.19584657647394,120.26637102698326,111.28791488746656
188,16,188,0,6.329966329966332,7.0,46.0,9.0,13.0,12.041594578792296,14.0,13.0,42.0,29.0,25.5,27.0,27.0,14.0,15.0,1.0,6.0,7.0710678118654755,6.0,6.5,22.0,19.0,22.090722034374522,124.14507642270796,124.14507642270796,119.15116449284078,112.16059914247963
189,16,189,0,6.363636363636366,9.0,46.010868281309364,8.0,13.0,11.0,13.038404810405298,13.038404810405298,43.01162633521314,30.01666203960727,25.5,28.0,27.0,14.5,15.5,2.5,6.5,6.082762530298219,5.0990195135927845,5.0,23.0,20.0,22.02271554554524,125.14391715141412,124.14507642270796,119.15116449284078,111.22050170719426
190,16,190,0,6.3973063973064,10.0,44.01136216933077,8.0,13.0,12.0,14.0,12.0,43.0,30.0,25.0,28.0,27.0,15.5,15.5,2.5,7.5,3.0,4.123105625617661,3.5,23.0,20.0,22.02271554554524,124.14507642270796,123.14625451064275,117.10678887237921,110.11357772772621
191,16,191,0,6.4309764309764335,11.0,45.0111097397076,8.0,12.0,12.0,14.0,12.0,43.0,31.0,25.5,28.0,27.0,15.5,15.5,2.5,7.5,5.0990195135927845,4.123105625617661,4.0,23.0,20.0,23.021728866442675,124.14507642270796,123.14625451064275,118.10588469674151,109.1146186356347
192,16,192,0,6.464646464646467,10.0,45.0111097397076,9.0,13.0,12.041594578792296,14.035668847618199,12.0,44.0,31.0,26.0,28.0,27.0,15.5,16.5,3.5,7.5,6.082762530298219,5.0,5.0,22.0,20.0,23.021728866442675,123.10158406779338,123.06502346320826,117.06835610018618,110.11357772772621
193,16,193,0,6.498316498316501,11.0,44.01136216933077,9.0,13.0,12.0,13.0,11.045361017187261,44.01136216933077,31.016124838541646,25.5,28.0,27.0,16.5,16.5,2.5,7.5,6.082762530298219,6.0,6.0,22.0,19.0,22.090722034374522,124.06449935416659,123.10158406779338,118.10588469674151,110.11357772772621
194,16,194,0,6.531986531986535,10.0,43.01162633521314,9.0,14.0,12.0,13.0,12.0,45.0,31.0,26.0,28.0,27.0,15.5,17.5,2.5,6.5,7.0,6.0,6.5,21.0,19.0,23.021728866442675,125.09996003196804,123.06502346320826,117.06835610018618,110.07270324653611
195,16,195,0,6.565656565656568,10.0,43.01162633521314,8.0,13.038404810405298,12.0,13.0,13.0,44.01136216933077,31.0,26.0,28.0,27.0,14.5,16.5,2.5,6.5,8.06225774829855,7.0,7.0,22.0,20.0,23.08679276123039,123.10158406779338,123.10158406779338,118.10588469674151,110.11357772772621
196,16,196,0,6.599326599326602,8.0,43.01162633521314,9.055385138137417,14.0,11.0,13.038404810405298,13.0,44.01136216933077,30.01666203960727,26.0,28.0,27.0,14.5,16.5,2.5,5.5,8.06225774829855,8.0,7.5,23.0,20.0,22.090722034374522,122.10241602851272,122.10241602851272,117.06835610018618,109.07336980216573
197,16,197,0,6.632996632996636,8.06225774829855,43.01162633521314,9.0,14.0,12.0,13.0,13.0,44.01136216933077,30.01666203960727,26.0,28.0,27.0,14.5,16.5,2.5,5.5,8.06225774829855,7.0,7.0,22.0,19.0,24.08318915758459,124.14507642270796,123.10158406779338,117.10678887237921,109.1146186356347
198,16,198,0,6.66666666666667,7.0,42.01190307520001,9.0,14.0,11.0,13.038404810405298,13.038404810405298,43.01162633521314,29.017236257093817,25.5,28.0,27.0,14.5,15.5,1.5,5.5,9.055385138137417,8.0,8.0,23.0,20.0,23.021728866442675,123.10158406779338,123.10158406779338,119.10499569707393,110.11357772772621
199,16,199,0,6.700336700336703,6.082762530298219,42.01190307520001,9.0,14.0,11.045361017187261,13.0,14.0,43.01162633521314,29.017236257093817,26.0,29.0,28.0,14.5,14.5,0.5,6.5,8.06225774829855,7.0,7.5,23.0,19.0,23.08679276123039,122.14745187681976,122.14745187681976,117.06835610018618,108.07404868885037
200,16,200,0,6.734006734006737,6.0,43.01162633521314,8.0,14.0,11.045361017187261,13.0,15.0,43.0,29.0,26.0,29.0,28.0,13.5,14.5,0.5,5.5,8.06225774829855,8.0,8.0,23.0,19.0,23.08679276123039,122.3315167894194,122.2620137246234,116.21101496846157,108.2266141020775
201,16,201,0,6.767676767676771,6.082762530298219,43.0,8.0,14.0,11.0,13.0,14.0,42.01190307520001,28.0178514522438,25.0,27.0,27.0,13.0,15.0,1.0,5.0,9.055385138137417,7.0,7.5,24.0,19.0,23.08679276123039,121.26417442921878,122.20065466273084,117.2092146548214,108.16653826391968
202,16,202,0,6.801346801346805,6.082762530298219,43.01162633521314,9.0,13.0,12.0,13.0,14.0,42.01190307520001,29.017236257093817,26.0,28.0,27.0,13.5,14.5,0.5,4.5,8.06225774829855,8.0,8.0,23.0,19.0,22.090722034374522,122.14745187681976,122.10241602851272,117.10678887237921,109.1146186356347
203,16,203,0,6.835016835016838,5.0,44.0,9.0,13.0,12.0,13.0,14.0,41.0,28.0,25.5,27.0,27.0,13.0,14.0,1.0,4.0,8.06225774829855,7.0,7.5,23.0,19.0,23.08679276123039,125.14391715141412,124.14507642270796,118.15244390193544,110.16351483136329
204,16,204,0,6.868686868686872,8.06225774829855,46.010868281309364,8.0,13.0,12.0,13.0,14.035668847618199,43.04648650006177,30.066592756745816,26.0,28.0,27.0,13.5,15.5,1.5,5.5,7.0,7.0,7.0,23.0,20.0,23.08679276123039,125.06398362438324,124.06449935416659,118.06777714516353,111.07204868912791
205,16,205,0,6.902356902356906,10.0,45.0111097397076,8.0,13.038404810405298,12.041594578792296,13.0,13.038404810405298,44.04543109109048,31.016124838541646,26.0,28.0,27.0,14.5,16.5,2.5,6.5,5.0,4.0,4.0,24.0,20.0,23.021728866442675,124.10076550932311,124.06449935416659,119.06720791217035,111.07204868912791
206,16,206,0,6.93602693602694,13.0,44.01136216933077,8.06225774829855,13.0,12.0,14.0,13.038404810405298,47.042533945356304,34.058772731852805,27.5,29.0,28.0,15.5,18.5,4.5,7.5,4.0,4.0,3.5,23.0,20.0,23.08679276123039,122.01639234135715,121.0,115.0,107.0
207,16,207,0,6.969696969696973,14.0,44.01136216933077,9.055385138137417,14.035668847618199,12.041594578792296,15.033296378372908,12.041594578792296,49.09175083453431,35.05709628591621,28.0,29.0,28.0,16.5,20.5,6.5,8.5,4.0,4.0,3.5,24.0,21.0,24.08318915758459,122.01639234135715,122.01639234135715,116.00431026474836,108.00462953040486
208,16,208,0,7.003367003367007,14.0,45.0111097397076,8.06225774829855,15.033296378372908,13.0,14.0,13.038404810405298,50.08991914547278,35.05709628591621,28.0,29.0,28.0,15.5,21.5,6.5,7.5,7.0,5.0,5.5,24.0,22.0,24.08318915758459,121.03718436910205,121.00413216084813,115.0173899895142,107.00467279516349
209,16,209,0,7.037037037037041,13.038404810405298,45.0111097397076,8.0,14.0,12.0,14.0,13.038404810405298,48.041648597857254,34.058772731852805,27.5,29.0,28.0,15.5,19.5,4.5,7.5,7.0,6.0,6.5,24.0,22.0,24.020824298928627,121.00413216084813,121.00413216084813,114.00438588054409,107.00467279516349
210,16,210,0,7.0707070707070745,11.045361017187261,44.04543109109048,8.0,14.0,12.041594578792296,14.0,13.038404810405298,46.04345773288535,32.0624390837628,26.5,29.0,27.0,15.0,18.0,4.0,7.0,7.0710678118654755,6.0,6.0,23.0,21.0,25.019992006393608,124.01612798341996,123.01625908797584,117.00427342623003,109.01834707974616
211,16,211,0,7.104377104377108,9.0,44.01136216933077,9.0,14.035668847618199,12.041594578792296,13.038404810405298,13.038404810405298,45.044422518220834,31.016124838541646,26.5,27.0,26.0,13.5,18.5,3.5,5.5,5.0990195135927845,5.0,4.5,24.0,22.0,24.020824298928627,123.03657992645927,123.01625908797584,118.01694793545543,109.01834707974616
212,16,212,0,7.138047138047142,8.0,42.0,8.0,14.0,11.045361017187261,13.0,14.0,44.0,30.0,26.0,27.0,27.0,13.0,17.0,2.0,5.0,5.0,4.0,4.0,25.0,22.0,24.08318915758459,124.10076550932311,123.10158406779338,117.10678887237921,108.11567878897121
213,16,213,0,7.171717171717176,7.0,41.0,9.0,15.0,11.0,12.0,14.0,45.0,30.0,26.5,28.0,28.0,14.0,17.0,2.0,5.0,6.082762530298219,5.0,5.0,25.0,20.0,24.08318915758459,123.14625451064275,122.14745187681976,116.1077086157504,107.16809226630845
214,16,214,0,7.2053872053872094,7.0710678118654755,41.012193308819754,9.055385138137417,14.035668847618199,11.0,13.0,15.0,45.0111097397076,31.0,27.5,27.0,28.0,12.5,17.5,2.5,3.5,8.06225774829855,7.0,7.5,25.0,21.0,23.08679276123039,124.25779653607253,123.25988804148737,117.2092146548214,108.2266141020775
215,16,215,0,7.239057239057243,6.0,40.0,9.0,14.0,10.04987562112089,12.0,16.0,45.0,31.0,28.0,28.0,28.0,12.0,17.0,2.0,4.0,9.055385138137417,8.0,8.0,25.0,20.0,24.186773244895647,126.25371281669304,125.19584657647394,118.15244390193544,109.1146186356347
216,16,216,0,7.272727272727277,5.0,41.0,10.0,14.0,11.045361017187261,12.0,16.0,45.0,31.0,28.5,29.0,29.0,13.0,16.0,1.0,4.0,9.055385138137417,8.0,8.0,26.0,20.0,25.179356624028344,125.32358118087753,124.32618388738553,118.27087553578015,109.22453936730518
217,16,217,0,7.306397306397311,6.0,41.012193308819754,8.0,14.0,10.0,12.0,17.0,45.0,31.0,28.0,28.0,29.0,11.5,16.5,1.5,3.5,10.04987562112089,8.0,8.5,26.0,20.0,23.08679276123039,127.251719045363,127.1927670899568,120.20399327809372,110.22250223978767
218,16,218,0,7.340067340067344,6.0,41.0,9.0,13.0,11.0,12.0,17.0,45.0,32.0,29.0,29.0,29.0,12.0,16.0,2.0,3.0,10.198039027185569,9.0,9.0,27.0,21.0,24.186773244895647,128.2497563350512,126.25371281669304,120.26637102698326,110.22250223978767
219,16,219,0,7.373737373737378,5.0,41.0,9.0,14.0,11.0,12.0,17.0,45.0,31.0,28.5,29.0,29.0,12.0,16.0,1.0,3.0,10.04987562112089,9.0,9.0,26.0,20.0,25.317977802344327,128.39003076563228,127.3184982632139,120.26637102698326,111.28791488746656
220,16,220,0,7.407407407407412,5.0,42.04759208325728,9.0,13.0,10.0,12.0,17.0,44.0,31.0,28.5,28.0,30.0,12.0,15.0,1.0,3.0,10.04987562112089,9.0,9.0,26.0,19.0,23.345235059857504,129.46814279968643,128.47178678604885,122.40914998479485,113.44161493913951
221,16,221,0,7.441077441077446,3.0,41.10960958218893,9.055385138137417,14.0,10.04987562112089,12.041594578792296,18.0,44.01136216933077,30.01666203960727,28.5,28.0,31.0,11.5,14.5,0.5,2.5,9.219544457292887,9.0,9.0,27.0,18.0,24.331050121192877,130.64838307457157,128.56126943990557,122.494897852931,114.5294721894762
222,16,222,0,7.474747474747479,4.123105625617661,43.18564576337837,8.0,13.038404810405298,11.045361017187261,13.038404810405298,18.027756377319946,43.104524124504614,30.066592756745816,28.0,27.0,31.0,11.0,14.0,0.0,3.0,9.219544457292887,8.0,8.5,27.0,18.0,24.515301344262525,128.76334882255898,129.75746606650424,123.68508398347798,114.6298390472568
223,16,223,0,7.508417508417513,3.0,47.16990566028302,9.055385138137417,13.038404810405298,11.045361017187261,12.041594578792296,18.0,43.04648650006177,30.01666203960727,28.5,26.0,30.0,10.0,15.0,1.0,1.0,9.219544457292887,8.0,8.5,27.0,18.0,23.345235059857504,129.86916493148019,129.86916493148019,124.67958934805648,116.72617529928752
224,16,224,0,7.542087542087547,3.0,48.25971404805462,8.06225774829855,12.041594578792296,11.045361017187261,12.041594578792296,18.0,41.048751503547585,29.017236257093817,27.5,25.0,30.0,9.5,13.5,0.5,1.5,10.198039027185569,9.0,9.0,27.0,18.0,24.515301344262525,130.86252328302402,130.75167302944922,125.78155667664477,118.71394189394942
225,16,225,0,7.575757575757581,1.0,47.16990566028302,9.0,13.038404810405298,12.041594578792296,13.038404810405298,17.029386365926403,40.049968789001575,27.018512172212592,26.5,25.0,29.0,10.0,13.0,1.0,1.0,10.198039027185569,9.0,9.5,27.0,19.0,23.345235059857504,130.75167302944922,130.86252328302402,124.78781991845197,116.84177335182824
226,16,226,0,7.609427609427614,2.0,48.25971404805462,9.055385138137417,13.038404810405298,13.038404810405298,14.035668847618199,16.0,40.049968789001575,27.018512172212592,26.0,25.0,30.0,11.5,12.5,1.5,2.5,10.198039027185569,9.0,9.5,27.0,19.0,25.317977802344327,130.86252328302402,130.86252328302402,125.78155667664477,116.96580696938743
227,16,227,0,7.643097643097648,5.0,50.08991914547278,9.0,13.038404810405298,13.038404810405298,14.0,14.035668847618199,41.048751503547585,28.0178514522438,25.5,25.0,28.0,12.5,14.5,0.5,3.5,9.055385138137417,8.06225774829855,8.5,26.0,18.0,23.345235059857504,128.87590930814028,128.87590930814028,124.78781991845197,116.84177335182824
228,16,228,0,7.676767676767682,6.0,50.15974481593781,8.0,13.038404810405298,12.0,14.035668847618199,13.038404810405298,40.049968789001575,27.018512172212592,24.0,24.0,28.0,13.0,14.0,0.0,5.0,9.055385138137417,9.055385138137417,8.5,25.0,18.0,23.194827009486403,129.65338406690356,129.65338406690356,124.67958934805648,116.72617529928752
229,16,229,0,7.7104377104377155,8.0,50.039984012787215,8.0,14.035668847618199,13.0,14.0,12.0,42.01190307520001,28.0,24.0,25.0,27.0,14.0,16.0,2.0,6.0,8.06225774829855,8.0,8.0,25.0,19.0,23.194827009486403,128.47178678604885,127.47548783981962,123.40583454602137,114.43775600735974
230,16,230,0,7.744107744107749,9.055385138137417,49.01020301937138,8.06225774829855,13.038404810405298,13.0,14.0,12.041594578792296,42.0,29.017236257093817,24.5,25.0,26.0,13.5,16.5,2.5,5.5,4.123105625617661,4.123105625617661,4.0,24.0,19.0,24.186773244895647,127.39309243440164,127.39309243440164,121.33424908079334,113.35784048754634
231,16,231,0,7.777777777777783,9.055385138137417,49.0,8.0,13.038404810405298,13.0,15.033296378372908,11.045361017187261,41.012193308819754,28.0,23.5,25.0,25.0,14.0,16.0,2.0,6.0,4.123105625617661,4.123105625617661,4.0,25.0,19.0,24.186773244895647,126.4792473095883,125.39936203984452,120.33702672078948,112.28535078094559
232,16,232,0,7.811447811447817,8.06225774829855,49.01020301937138,8.06225774829855,14.035668847618199,13.0,15.0,11.0,41.012193308819754,27.0,23.0,24.0,25.0,13.5,16.5,2.5,5.5,5.0,3.0,3.0,25.0,19.0,24.186773244895647,126.4792473095883,125.4830665866913,119.41942890501528,112.36102527122117
233,16,233,0,7.84511784511785,8.0,48.010415536631214,8.0,13.038404810405298,13.0,15.033296378372908,12.0,41.012193308819754,28.0,24.0,25.0,26.0,13.5,15.5,1.5,5.5,6.082762530298219,4.123105625617661,4.0,25.0,19.0,23.194827009486403,125.4830665866913,124.4025723206719,119.41942890501528,112.36102527122117
234,16,234,0,7.878787878787884,8.0,48.041648597857254,8.0,13.038404810405298,13.0,14.0,11.0,40.01249804748511,27.0,23.0,23.0,25.0,13.0,16.0,2.0,5.0,6.082762530298219,5.0990195135927845,5.5,25.0,18.0,23.194827009486403,126.4792473095883,124.57929201917949,119.50732195141852,112.53888216967503
235,16,235,0,7.912457912457918,8.0,49.040799340956916,8.0,13.038404810405298,13.038404810405298,14.035668847618199,11.0,40.01249804748511,27.0,23.0,24.0,26.0,14.0,15.0,1.0,5.0,7.0710678118654755,6.082762530298219,6.0,25.0,18.0,23.345235059857504,123.68508398347798,123.68508398347798,118.71394189394942,109.65856099730654
236,16,236,0,7.946127946127952,8.0,48.041648597857254,8.0,13.0,13.038404810405298,15.033296378372908,11.045361017187261,40.01249804748511,27.018512172212592,23.0,24.0,26.0,14.0,15.0,1.0,5.0,7.0710678118654755,6.0,6.5,25.0,18.0,23.194827009486403,124.57929201917949,123.58397954427588,119.60351165413162,111.64676439557037
237,16,237,0,7.979797979797985,8.0,47.042533945356304,8.06225774829855,13.0,13.0,14.035668847618199,11.0,40.01249804748511,27.018512172212592,23.0,24.0,26.0,14.0,15.0,1.0,6.0,8.06225774829855,6.0,6.5,25.0,18.0,23.194827009486403,123.68508398347798,124.67958934805648,118.71394189394942,111.64676439557037
238,16,238,0,8.01346801346802,8.0,48.093658625644196,8.06225774829855,12.0,13.0,14.035668847618199,11.0,39.01281840626232,27.018512172212592,23.0,23.0,26.0,13.5,14.5,1.5,5.5,8.06225774829855,6.0,6.5,25.0,17.0,23.194827009486403,126.66885963013956,124.67958934805648,119.70797801316336,111.75866856758807
239,16,239,0,8.047138047138052,8.0,48.093658625644196,8.0,12.041594578792296,13.038404810405298,14.035668847618199,11.045361017187261,39.05124837953327,27.018512172212592,23.0,23.0,26.0,13.5,14.5,1.5,5.5,8.06225774829855,7.0710678118654755,7.0,24.0,17.0,22.20360331117452,126.66885963013956,125.78155667664477,119.82069938036582,112.75194011634566
240,16,240,0,8.080808080808085,7.0,47.042533945356304,8.0,13.038404810405298,12.041594578792296,14.0,11.045361017187261,39.05124837953327,26.019223662515376,22.5,23.0,25.0,13.0,15.0,2.0,5.0,8.06225774829855,7.0,7.0,25.0,17.0,23.194827009486403,125.67418191498204,124.67958934805648,118.71394189394942,110.76551810017412
241,16,241,0,8.114478114478118,7.0,47.042533945356304,8.0,12.041594578792296,12.041594578792296,14.035668847618199,12.0,39.01281840626232,27.0,23.5,24.0,26.0,13.0,14.0,1.0,5.0,7.0710678118654755,6.0,6.0,24.0,17.0,23.194827009486403,125.67418191498204,124.67958934805648,119.70797801316336,110.8873302050329
242,16,242,0,8.14814814814815,7.0,48.041648597857254,8.06225774829855,12.0,13.0,14.0,11.0,38.01315561749642,26.019223662515376,22.5,23.0,25.0,13.0,14.0,2.0,5.0,8.06225774829855,7.0710678118654755,7.0,25.0,18.0,23.194827009486403,126.4792473095883,125.57467897629681,119.60351165413162,111.64676439557037
243,16,243,0,8.181818181818183,8.0,48.093658625644196,8.0,12.041594578792296,12.041594578792296,14.0,12.0,40.01249804748511,28.0,24.0,23.0,26.0,12.5,15.5,2.5,4.5,8.06225774829855,7.0710678118654755,7.0,24.0,18.0,23.194827009486403,126.57013865837392,124.67958934805648,119.70797801316336,111.75866856758807
244,16,244,0,8.215488215488216,8.0,47.042533945356304,8.0,12.041594578792296,12.0,13.038404810405298,11.0,39.01281840626232,27.0,23.0,23.0,25.0,13.0,15.0,2.0,5.0,8.06225774829855,7.0710678118654755,7.0,24.0,17.0,23.194827009486403,125.67418191498204,124.78781991845197,118.71394189394942,110.76551810017412
245,16,245,0,8.24915824915825,8.0,48.041648597857254,8.0,12.0,12.041594578792296,14.035668847618199,11.045361017187261,39.01281840626232,27.018512172212592,23.0,23.0,25.0,13.0,15.0,2.0,5.0,8.06225774829855,7.0,7.5,24.0,17.0,23.194827009486403,124.4869471069156,124.4869471069156,118.51160280748886,110.45361017187261
246,16,246,0,8.282828282828282,9.0,46.04345773288535,7.0,12.0,12.0,14.035668847618199,12.0,40.0,28.0,23.5,24.0,26.0,13.0,15.0,2.0,6.0,8.06225774829855,7.0,7.0,25.0,18.0,23.194827009486403,124.4869471069156,124.57929201917949,118.51160280748886,111.5437134042076
247,16,247,0,8.316498316498315,8.0,47.042533945356304,8.0,13.038404810405298,13.038404810405298,14.0,11.0,40.01249804748511,27.0,23.0,23.0,25.0,13.0,16.0,2.0,5.0,8.06225774829855,7.0,7.5,25.0,18.0,22.20360331117452,125.4830665866913,124.4869471069156,119.50732195141852,111.44954015158609
248,16,248,0,8.350168350168348,9.0,47.042533945356304,7.0,13.0,12.041594578792296,13.038404810405298,12.041594578792296,41.012193308819754,28.0178514522438,23.5,24.0,26.0,13.0,16.0,2.0,5.0,8.06225774829855,7.0,7.0,25.0,18.0,22.20360331117452,125.39936203984452,124.4869471069156,118.51160280748886,111.44954015158609
249,16,249,0,8.38383838383838,9.0,47.01063709417264,7.0710678118654755,13.0,12.041594578792296,14.0,12.0,41.012193308819754,28.0178514522438,23.5,25.0,26.0,13.5,15.5,2.5,5.5,8.06225774829855,7.0,7.0,25.0,18.0,23.194827009486403,127.56566936288148,126.57013865837392,120.50311199301038,112.53888216967503
250,16,250,0,8.417508417508413,9.0,46.04345773288535,8.06225774829855,12.0,12.0,15.0,11.045361017187261,40.0,28.0,23.5,24.0,26.0,14.0,15.0,2.0,6.0,8.06225774829855,7.0,7.5,25.0,18.0,23.345235059857504,126.57013865837392,125.57467897629681,120.59850745345068,111.5437134042076
251,16,251,0,8.451178451178446,9.0,46.04345773288535,8.06225774829855,13.0,12.0,14.035668847618199,11.045361017187261,41.0,28.0,23.5,24.0,26.0,14.0,16.0,2.0,6.0,8.246211251235321,7.0710678118654755,7.5,25.0,18.0,22.360679774997898,127.56566936288148,126.66885963013956,120.59850745345068,111.5437134042076
252,16,252,0,8.484848484848479,9.0,46.04345773288535,8.0,13.0,12.0,13.038404810405298,11.045361017187261,41.012193308819754,28.0178514522438,23.5,24.0,26.0,14.0,16.0,2.0,6.0,7.0710678118654755,7.0,7.0,25.0,18.0,22.20360331117452,125.4830665866913,124.4025723206719,119.41942890501528,111.44954015158609
253,16,253,0,8.518518518518512,10.0,47.01063709417264,7.0,12.041594578792296,13.0,14.035668847618199,12.0,41.012193308819754,29.0,24.0,25.0,26.0,13.5,15.5,2.5,6.5,8.06225774829855,7.0710678118654755,7.5,25.0,18.0,23.194827009486403,126.39620247459969,125.39936203984452,119.41942890501528,112.44554237496477
254,16,254,0,8.552188552188545,9.0,47.042533945356304,8.0,13.038404810405298,12.0,14.035668847618199,11.0,41.012193308819754,28.0,23.5,25.0,27.0,15.0,15.0,2.0,7.0,8.06225774829855,8.0,7.5,25.0,18.0,23.194827009486403,126.3210196285638,126.39620247459969,120.41594578792295,112.44554237496477
255,16,255,0,8.585858585858578,9.0,47.01063709417264,8.06225774829855,13.0,12.0,14.035668847618199,11.045361017187261,41.0,28.0,23.5,25.0,26.0,14.5,15.5,2.5,6.5,8.06225774829855,7.0,7.5,25.0,18.0,22.20360331117452,126.4792473095883,124.4869471069156,119.41942890501528,111.36426715962351
256,16,256,0,8.61952861952861,10.0,47.01063709417264,8.0,13.0,12.0,14.0,11.0,42.0,29.0,24.0,25.0,26.0,14.5,16.5,2.5,6.5,8.06225774829855,7.0,7.0,26.0,19.0,22.20360331117452,125.39936203984452,124.32618388738553,119.33985084622823,111.28791488746656
257,16,257,0,8.653198653198643,10.04987562112089,47.042533945356304,8.06225774829855,13.038404810405298,12.0,14.0,11.0,42.01190307520001,29.0,24.0,25.0,27.0,15.0,16.0,2.0,7.0,8.06225774829855,7.0,7.0,25.0,19.0,23.194827009486403,127.39309243440164,126.39620247459969,121.41251994749142,113.35784048754634
258,16,258,0,8.686868686868676,10.0,47.01063709417264,8.0,13.0,12.0,14.035668847618199,11.0,42.0,29.0,24.0,25.0,26.0,14.5,16.5,2.5,6.5,8.06225774829855,7.0,7.5,24.0,18.0,23.194827009486403,126.4792473095883,125.39936203984452,120.41594578792295,112.28535078094559
259,16,259,0,8.720538720538709,10.0,47.042533945356304,8.0,12.0,12.0,14.035668847618199,12.0,42.0,30.0,25.0,26.0,28.0,15.0,15.0,2.0,7.0,7.0710678118654755,8.0,7.5,25.0,19.0,23.194827009486403,127.3184982632139,126.3210196285638,120.26637102698326,112.28535078094559
260,16,260,0,8.754208754208742,9.0,46.04345773288535,8.0,14.0,12.0,14.0,11.0,42.0,28.0,23.5,25.0,27.0,15.0,16.0,1.0,7.0,8.06225774829855,8.0,7.5,25.0,19.0,24.08318915758459,126.4792473095883,124.57929201917949,119.50732195141852,111.44954015158609
261,16,261,0,8.787878787878775,10.0,46.04345773288535,7.0,13.038404810405298,13.038404810405298,14.035668847618199,12.041594578792296,42.0,29.017236257093817,24.0,25.0,27.0,14.0,16.0,2.0,6.0,8.06225774829855,7.0,7.5,25.0,19.0,24.186773244895647,124.32618388738553,124.32618388738553,119.33985084622823,110.22250223978767
262,16,262,0,8.821548821548808,9.0,47.01063709417264,7.0,13.038404810405298,12.041594578792296,14.035668847618199,12.041594578792296,41.0,28.0178514522438,23.5,25.0,26.0,13.5,15.5,1.5,5.5,9.055385138137417,8.06225774829855,7.5,26.0,19.0,24.08318915758459,125.32358118087753,124.4025723206719,119.41942890501528,111.44954015158609
263,16,263,0,8.85521885521884,8.0,47.042533945356304,8.0,13.038404810405298,12.0,13.0,12.041594578792296,41.0,28.0178514522438,24.0,25.0,27.0,14.0,15.0,2.0,6.0,9.055385138137417,8.06225774829855,8.0,26.0,19.0,25.179356624028344,126.3210196285638,124.4025723206719,119.41942890501528,111.44954015158609
264,16,264,0,8.888888888888873,8.0,47.042533945356304,8.0,13.038404810405298,12.0,13.0,12.041594578792296,41.0,28.0178514522438,24.0,25.0,27.0,14.0,15.0,2.0,6.0,9.055385138137417,8.06225774829855,8.0,26.0,19.0,25.179356624028344,126.3210196285638,124.4025723206719,119.41942890501528,111.44954015158609
265,16,265,0,8.922558922558906,6.082762530298219,48.010415536631214,8.06225774829855,13.0,13.0,14.0,13.038404810405298,40.01249804748511,27.018512172212592,24.0,25.0,26.0,12.5,14.5,0.5,4.5,9.055385138137417,7.0,7.5,24.0,19.0,25.079872407968907,126.14277624977183,125.14391715141412,120.20399327809372,112.21853679316978
266,16,266,0,8.956228956228939,5.0990195135927845,48.0,9.0,13.038404810405298,12.0,14.0,13.0,40.0,27.018512172212592,24.5,26.0,26.0,13.0,14.0,0.0,4.0,8.06225774829855,7.0,7.5,24.0,20.0,23.08679276123039,127.1416532848303,127.1416532848303,122.20065466273084,113.21660655575224
267,16,267,0,8.989898989898972,4.123105625617661,49.01020301937138,9.0,14.0,13.038404810405298,15.0,13.0,40.01249804748511,26.019223662515376,24.0,26.0,25.0,12.5,14.5,0.5,4.5,8.06225774829855,8.0,8.0,24.0,21.0,23.021728866442675,126.0634760745554,126.09916732476864,121.10326172320876,113.11056537742175
268,16,268,0,9.023569023569005,4.0,50.00999900019995,9.0,13.0,13.0,14.0,13.038404810405298,39.01281840626232,26.019223662515376,24.0,26.0,25.0,12.5,13.5,0.5,3.5,9.055385138137417,8.0,8.0,23.0,20.0,23.021728866442675,126.0634760745554,126.0634760745554,121.10326172320876,113.11056537742175
269,16,269,0,9.057239057239038,4.123105625617661,49.01020301937138,9.0,14.0,12.041594578792296,14.0,13.038404810405298,40.049968789001575,26.076809620810597,24.0,26.0,25.0,12.5,14.5,0.5,4.5,9.055385138137417,8.0,8.0,23.0,21.0,23.021728866442675,125.00399993600205,125.00399993600205,121.03718436910205,113.03981599418853
270,16,270,0,9.09090909090907,4.0,50.039984012787215,9.0,13.038404810405298,13.038404810405298,15.033296378372908,13.038404810405298,39.05124837953327,26.019223662515376,24.0,26.0,24.0,12.0,14.0,0.0,3.0,9.0,7.0710678118654755,7.5,21.0,22.0,23.0,127.00393694685216,127.00393694685216,122.00409829181969,114.0175425099138
271,16,271,0,9.124579124579103,2.0,50.08991914547278,10.04987562112089,13.038404810405298,13.038404810405298,15.033296378372908,13.038404810405298,38.118237105091836,25.079872407968907,24.0,27.0,24.0,12.5,12.5,0.5,3.5,8.06225774829855,7.0,7.5,20.0,23.0,23.021728866442675,127.06297651164952,128.03515142334936,123.00406497347964,115.00434774390054
272,16,272,0,9.158249158249136,1.4142135623730951,50.15974481593781,9.0,12.0,12.041594578792296,14.0,14.142135623730951,36.124783736376884,24.186773244895647,23.5,26.0,22.0,10.0,12.0,0.0,2.0,8.0,8.06225774829855,8.0,20.0,24.0,22.02271554554524,127.1927670899568,127.1416532848303,123.10158406779338,116.03878661895772
273,16,273,0,9.191919191919167,1.0,50.15974481593781,9.055385138137417,12.041594578792296,13.038404810405298,14.035668847618199,14.142135623730951,36.22154055254967,24.186773244895647,23.5,26.0,22.0,10.0,12.0,0.0,2.0,8.0,7.0710678118654755,7.5,19.0,24.0,23.021728866442675,127.3184982632139,128.191263352851,123.10158406779338,116.03878661895772
274,16,274,0,9.225589225589202,2.0,50.24937810560445,8.06225774829855,11.045361017187261,13.038404810405298,14.035668847618199,15.132745950421556,36.22154055254967,25.179356624028344,24.0,27.0,22.0,9.5,11.5,0.5,2.5,8.0,7.0710678118654755,7.5,19.0,24.0,22.02271554554524,125.39936203984452,126.25371281669304,122.14745187681976,114.0701538527936
275,16,275,0,9.259259259259236,3.0,52.3450093132096,9.055385138137417,13.038404810405298,13.152946437965905,14.035668847618199,13.341664064126334,38.3275357934736,25.317977802344327,23.5,26.0,20.0,10.0,15.0,2.0,2.0,8.0,7.0710678118654755,7.5,20.0,25.0,23.0,126.39620247459969,127.251719045363,122.14745187681976,115.06954418958998
276,16,276,0,9.292929292929268,6.082762530298219,53.33854141237835,9.0,13.038404810405298,13.152946437965905,15.033296378372908,12.165525060596439,40.19950248448356,27.16615541441225,24.0,27.0,21.0,12.0,16.0,3.0,4.0,8.0,7.0710678118654755,7.5,19.0,24.0,23.021728866442675,129.31357237351384,129.1394595001853,124.10076550932311,117.03845521878696
277,16,277,0,9.3265993265993,8.06225774829855,54.3323108288245,9.055385138137417,13.038404810405298,14.035668847618199,16.1245154965971,12.165525060596439,42.2965719651132,29.274562336608895,25.0,26.0,20.0,11.0,19.0,6.0,3.0,9.0,8.06225774829855,8.0,20.0,25.0,24.0,128.3160161476345,128.191263352851,124.14507642270796,117.06835610018618
278,16,278,0,9.360269360269331,10.04987562112089,54.3323108288245,8.0,12.041594578792296,14.142135623730951,16.1245154965971,11.40175425099138,41.30375285612676,29.274562336608895,24.0,25.0,19.0,11.0,19.0,7.0,4.0,9.0,8.06225774829855,8.0,19.0,25.0,24.020824298928627,128.3160161476345,128.2497563350512,124.14507642270796,117.06835610018618
279,16,279,0,9.393939393939366,9.055385138137417,56.32051136131489,8.06225774829855,12.041594578792296,15.132745950421556,16.1245154965971,12.165525060596439,41.30375285612676,29.274562336608895,24.5,25.0,19.0,10.0,19.0,7.0,3.0,9.0,8.06225774829855,8.5,19.0,24.0,24.08318915758459,129.31357237351384,128.191263352851,125.14391715141412,117.10678887237921
280,16,280,0,9.4276094276094,9.055385138137417,56.32051136131489,8.06225774829855,11.045361017187261,14.035668847618199,16.0312195418814,12.165525060596439,40.311288741492746,29.274562336608895,24.5,25.0,19.0,10.0,18.0,7.0,3.0,9.0,8.06225774829855,8.0,19.0,24.0,24.020824298928627,129.31357237351384,128.191263352851,124.14507642270796,117.06835610018618
281,16,281,0,9.461279461279432,9.055385138137417,56.32051136131489,8.0,12.041594578792296,15.132745950421556,16.0312195418814,12.36931687685298,41.30375285612676,29.274562336608895,24.5,25.0,19.0,10.0,19.0,7.0,3.0,8.0,7.0710678118654755,7.5,19.0,24.0,24.020824298928627,129.31357237351384,129.18978287774928,125.14391715141412,118.03812943282352
282,16,282,0,9.494949494949465,10.04987562112089,56.32051136131489,8.06225774829855,11.045361017187261,15.132745950421556,16.0312195418814,12.165525060596439,41.30375285612676,30.265491900843113,25.0,26.0,20.0,11.0,18.0,7.0,4.0,8.0,8.06225774829855,8.0,19.0,24.0,23.021728866442675,128.3160161476345,127.1927670899568,123.06502346320826,117.01709276853532
283,16,283,0,9.528619528619496,9.055385138137417,55.326304774492215,7.0710678118654755,12.041594578792296,14.142135623730951,16.0312195418814,12.165525060596439,40.311288741492746,28.284271247461902,23.5,25.0,19.0,10.0,18.0,6.0,4.0,9.0,8.06225774829855,8.0,19.0,25.0,24.020824298928627,128.2497563350512,127.1927670899568,123.14625451064275,116.06894502837527
284,16,284,0,9.56228956228953,9.055385138137417,57.21887800367987,7.0710678118654755,12.041594578792296,14.142135623730951,16.1245154965971,13.152946437965905,41.30375285612676,29.274562336608895,24.5,25.0,20.0,9.5,18.5,6.5,3.5,8.0,8.06225774829855,8.0,19.0,24.0,24.08318915758459,127.251719045363,127.1927670899568,123.10158406779338,117.03845521878696
285,16,285,0,9.595959595959563,8.06225774829855,56.22277118748239,8.06225774829855,12.041594578792296,15.033296378372908,17.029386365926403,12.165525060596439,40.311288741492746,28.284271247461902,24.0,25.0,20.0,10.5,17.5,5.5,3.5,9.0,8.06225774829855,8.5,19.0,24.0,24.020824298928627,127.3184982632139,128.3160161476345,124.14507642270796,117.06835610018618
286,16,286,0,9.629629629629596,9.055385138137417,56.32051136131489,7.0710678118654755,12.041594578792296,15.132745950421556,16.0312195418814,12.165525060596439,40.311288741492746,28.284271247461902,23.5,25.0,19.0,10.0,18.0,6.0,4.0,9.0,7.0710678118654755,7.0,19.0,24.0,23.021728866442675,126.3210196285638,127.1927670899568,123.10158406779338,116.06894502837527
287,16,287,0,9.663299663299629,10.198039027185569,56.22277118748239,7.0,12.041594578792296,15.033296378372908,16.0312195418814,12.165525060596439,41.30375285612676,29.274562336608895,24.0,25.0,20.0,10.5,18.5,6.5,3.5,8.0,8.06225774829855,8.0,19.0,24.0,24.08318915758459,126.3210196285638,127.251719045363,123.14625451064275,116.1077086157504
288,16,288,0,9.696969696969662,10.04987562112089,56.22277118748239,8.06225774829855,11.045361017187261,14.035668847618199,16.0312195418814,11.180339887498949,40.311288741492746,29.274562336608895,24.0,24.0,19.0,10.5,18.5,7.5,3.5,8.0,8.06225774829855,8.0,18.0,23.0,23.021728866442675,130.24592124131948,129.1394595001853,125.09996003196804,117.03845521878696
289,16,289,0,9.730639730639696,10.04987562112089,55.226805085936306,7.0710678118654755,12.041594578792296,15.132745950421556,16.0312195418814,12.165525060596439,41.30375285612676,29.274562336608895,24.0,25.0,20.0,10.5,18.5,5.5,4.5,9.0,8.06225774829855,8.0,19.0,24.0,24.08318915758459,127.3184982632139,128.191263352851,123.14625451064275,116.06894502837527
290,16,290,0,9.764309764309727,9.055385138137417,55.326304774492215,7.0710678118654755,12.041594578792296,15.033296378372908,16.0312195418814,13.152946437965905,41.30375285612676,29.274562336608895,24.5,26.0,20.0,10.0,18.0,6.0,4.0,8.0,7.0710678118654755,8.0,19.0,24.0,23.021728866442675,126.3210196285638,127.1927670899568,124.10076550932311,116.01724009818541
291,16,291,0,9.79797979797976,10.04987562112089,55.226805085936306,7.0,12.041594578792296,14.035668847618199,16.0312195418814,12.165525060596439,41.19465984809196,29.154759474226502,24.0,25.0,20.0,10.5,18.5,6.5,3.5,9.055385138137417,8.06225774829855,8.0,19.0,23.0,24.020824298928627,126.3210196285638,127.1927670899568,123.10158406779338,116.03878661895772
292,16,292,0,9.831649831649791,9.055385138137417,55.14526271584895,8.0,12.041594578792296,14.035668847618199,16.0312195418814,11.180339887498949,40.19950248448356,28.160255680657446,23.5,24.0,20.0,11.0,18.0,6.0,4.0,8.0,8.246211251235321,8.5,20.0,24.0,24.020824298928627,126.25371281669304,127.1927670899568,123.10158406779338,116.03878661895772
293,16,293,0,9.865319865319826,8.06225774829855,55.226805085936306,7.0,12.041594578792296,14.035668847618199,16.0312195418814,12.165525060596439,39.20459156782532,27.16615541441225,23.0,25.0,20.0,10.5,16.5,4.5,4.5,9.0,8.06225774829855,8.0,20.0,24.0,25.019992006393608,127.3184982632139,128.2497563350512,124.14507642270796,117.03845521878696
294,16,294,0,9.89898989898986,8.06225774829855,54.230987451824994,8.0,12.041594578792296,14.035668847618199,16.0312195418814,11.180339887498949,39.20459156782532,27.16615541441225,23.0,24.0,19.0,10.5,17.5,5.5,3.5,8.0,7.0710678118654755,7.5,20.0,24.0,25.0,126.25371281669304,127.1416532848303,123.10158406779338,115.03912377969506
295,16,295,0,9.932659932659892,9.055385138137417,55.226805085936306,7.0,12.041594578792296,14.035668847618199,15.033296378372908,12.165525060596439,40.19950248448356,28.160255680657446,23.5,25.0,20.0,10.5,17.5,5.5,4.5,9.0,8.06225774829855,8.0,21.0,24.0,25.019992006393608,125.32358118087753,127.1927670899568,123.14625451064275,115.06954418958998
296,16,296,0,9.966329966329925,9.0,54.230987451824994,7.0710678118654755,12.041594578792296,14.035668847618199,16.0312195418814,12.165525060596439,40.19950248448356,28.160255680657446,23.5,25.0,20.0,10.5,17.5,5.5,4.5,9.055385138137417,8.06225774829855,8.0,22.0,26.0,25.0,127.251719045363,128.14054783713078,124.10076550932311,117.03845521878696
297,16,297,0,9.999999999999956,9.055385138137417,53.150729063673246,8.06225774829855,11.0,14.035668847618199,16.0312195418814,11.045361017187261,39.11521443121589,28.160255680657446,23.5,24.0,20.0,11.0,17.0,5.0,4.0,9.055385138137417,9.055385138137417,9.0,22.0,25.0,26.019223662515376,128.191263352851,129.1394595001853,125.03599481749245,117.00427342623003
298,16,298,0,10.03367003366999,8.06225774829855,54.147945482723536,8.06225774829855,12.0,13.038404810405298,15.033296378372908,11.045361017187261,39.11521443121589,27.16615541441225,23.0,24.0,20.0,11.0,17.0,5.0,4.0,8.0,8.06225774829855,8.5,24.0,27.0,26.0,130.18832512940628,130.09611831257686,127.01574705523721,118.00423721205946
299,16,299,0,10.067340067340025,8.06225774829855,53.150729063673246,8.0,12.0,14.035668847618199,15.033296378372908,11.180339887498949,39.11521443121589,27.16615541441225,23.0,24.0,20.0,11.0,17.0,5.0,4.0,8.0,8.06225774829855,8.5,23.0,27.0,26.019223662515376,129.1394595001853,130.034610777285,125.01599897613104,117.0
300,16,300,0,10.101010101010056,8.06225774829855,52.03844732503075,7.0,12.0,14.0,16.0312195418814,12.041594578792296,39.05124837953327,27.073972741361768,23.0,23.0,21.0,10.0,17.0,5.0,3.0,9.0,8.0,8.5,23.0,26.0,26.019223662515376,125.03599481749245,126.00396819148197,121.00413216084813,114.03946685248927
301,16,301,0,10.134680134680089,9.0,52.03844732503075,7.0,12.041594578792296,13.0,15.0,12.165525060596439,40.11234224026316,28.071337695236398,23.5,24.0,22.0,11.0,17.0,5.0,4.0,10.0,8.06225774829855,8.5,23.0,26.0,27.018512172212592,126.03570922560003,127.0,121.01652779682617,113.07077429645558
302,16,302,0,10.168350168350122,8.0,52.03844732503075,8.0,12.041594578792296,13.038404810405298,15.0,11.045361017187261,39.05124837953327,27.018512172212592,23.0,23.0,21.0,11.0,17.0,5.0,4.0,10.0,8.0,8.5,23.0,26.0,26.019223662515376,126.01587201618692,127.0,122.01639234135715,114.0701538527936
303,16,303,0,10.202020202020154,9.0,51.03920062069938,8.0,12.041594578792296,13.0,14.0,11.180339887498949,40.11234224026316,28.071337695236398,23.5,24.0,22.0,12.0,17.0,5.0,4.0,9.055385138137417,9.055385138137417,8.5,24.0,26.0,26.0,127.01574705523721,127.00393694685216,123.06502346320826,114.10959644131601
304,16,304,0,10.235690235690187,8.06225774829855,50.039984012787215,8.0,13.0,13.038404810405298,15.033296378372908,12.165525060596439,41.10960958218893,28.160255680657446,24.0,25.0,23.0,12.0,17.0,4.0,5.0,9.0,9.055385138137417,9.0,23.0,26.0,26.0,127.03542812932147,127.0,122.00409829181969,114.0175425099138
305,16,305,0,10.26936026936022,6.082762530298219,48.093658625644196,8.06225774829855,13.038404810405298,13.038404810405298,15.033296378372908,13.038404810405298,40.19950248448356,27.16615541441225,24.0,26.0,23.0,11.5,15.5,2.5,4.5,9.0,8.0,8.0,22.0,25.0,25.0,129.0620006043607,130.034610777285,125.00399993600205,116.00431026474836
306,16,306,0,10.303030303030251,5.0990195135927845,45.17742799230607,8.06225774829855,13.038404810405298,12.041594578792296,13.038404810405298,13.038404810405298,39.20459156782532,26.1725046566048,23.5,27.0,23.0,12.0,14.0,1.0,4.0,9.055385138137417,8.06225774829855,8.5,23.0,26.0,24.0,128.09761902549164,130.034610777285,125.00399993600205,115.00434774390054
307,16,307,0,10.336700336700286,3.1622776601683795,42.42640687119285,9.0,14.035668847618199,12.041594578792296,13.038404810405298,14.142135623730951,40.19950248448356,26.1725046566048,24.5,30.0,24.0,13.0,13.0,1.0,5.0,9.0,8.0,8.5,23.0,25.0,25.0,127.09838708654017,127.03542812932147,122.03687967167957,113.00442469213318
308,16,308,0,10.37037037037032,4.123105625617661,45.27692569068709,9.055385138137417,14.0,12.165525060596439,14.035668847618199,14.035668847618199,41.10960958218893,27.16615541441225,25.0,29.0,24.0,12.5,14.5,0.5,4.5,8.06225774829855,7.0,7.5,23.0,24.0,24.0,127.09838708654017,128.06248474865697,123.01625908797584,114.0
309,16,309,0,10.404040404040352,8.06225774829855,44.10215414239989,8.0,13.038404810405298,12.041594578792296,13.038404810405298,13.038404810405298,42.1070065428546,29.068883707497267,25.0,27.0,24.0,12.5,16.5,2.5,4.5,5.0,4.0,4.0,22.0,24.0,24.0,125.03599481749245,124.00403219250575,120.0,112.01785571952357
310,16,310,0,10.437710437710384,10.04987562112089,46.09772228646444,9.055385138137417,13.038404810405298,12.041594578792296,15.033296378372908,12.041594578792296,44.181444068749045,31.144823004794873,26.0,28.0,25.0,14.5,17.5,4.5,6.5,5.0,4.0,4.0,23.0,24.0,23.021728866442675,124.06449935416659,125.03599481749245,120.00416659433121,112.0
311,16,311,0,10.471380471380415,9.055385138137417,48.041648597857254,8.06225774829855,13.0,13.038404810405298,14.035668847618199,12.041594578792296,42.1070065428546,29.154759474226502,24.5,26.0,24.0,13.0,17.0,3.0,5.0,5.0990195135927845,4.0,4.0,23.0,24.0,23.0,124.01612798341996,124.00403219250575,120.00416659433121,111.01801655587259
312,16,312,0,10.50505050505045,8.06225774829855,50.039984012787215,9.0,13.0,14.035668847618199,15.0,11.180339887498949,41.10960958218893,28.160255680657446,24.0,25.0,23.0,13.0,17.0,3.0,5.0,7.0710678118654755,5.0,5.0,22.0,22.0,23.0,126.00396819148197,126.00396819148197,122.01639234135715,113.07077429645558
313,16,313,0,10.538720538720485,8.06225774829855,50.039984012787215,9.0,13.0,14.035668847618199,15.0,11.180339887498949,41.10960958218893,28.160255680657446,24.0,25.0,23.0,13.0,17.0,3.0,5.0,7.0710678118654755,5.0,5.0,22.0,22.0,23.0,126.00396819148197,126.00396819148197,122.01639234135715,113.07077429645558
314,16,314,0,10.572390572390516,7.0,48.041648597857254,8.0,12.041594578792296,13.038404810405298,15.0,12.165525060596439,39.11521443121589,27.073972741361768,23.5,25.0,23.0,12.0,15.0,2.0,5.0,7.0710678118654755,7.0710678118654755,7.0,22.0,22.0,23.021728866442675,125.0,124.01612798341996,119.03780911962384,111.07204868912791
315,16,315,0,10.606060606060549,6.082762530298219,50.00999900019995,8.0,13.0,14.035668847618199,15.0,12.041594578792296,39.05124837953327,26.076809620810597,23.0,24.0,23.0,11.5,15.5,2.5,4.5,9.055385138137417,7.0710678118654755,7.5,22.0,22.0,24.0,127.0,127.00393694685216,121.03718436910205,114.0701538527936
316,16,316,0,10.639730639730582,9.055385138137417,50.00999900019995,7.0,12.0,14.0,15.0,12.041594578792296,40.049968789001575,28.071337695236398,23.5,24.0,23.0,11.5,16.5,3.5,4.5,8.06225774829855,7.0,7.0,22.0,22.0,24.020824298928627,125.0,125.01599897613104,120.01666550941998,113.07077429645558
317,16,317,0,10.673400673400614,9.0,52.009614495783374,8.06225774829855,12.041594578792296,13.0,15.0,11.045361017187261,40.11234224026316,28.071337695236398,23.5,23.0,22.0,11.5,17.5,4.5,3.5,8.0,7.0,7.5,21.0,21.0,23.021728866442675,125.01599897613104,124.00403219250575,120.00416659433121,114.00438588054409
318,16,318,0,10.707070707070647,9.0,52.03844732503075,8.06225774829855,12.041594578792296,14.035668847618199,15.0,12.041594578792296,41.10960958218893,29.068883707497267,24.5,24.0,22.0,11.0,18.0,5.0,4.0,8.0,8.06225774829855,7.5,22.0,22.0,24.020824298928627,126.0,126.00396819148197,122.01639234135715,114.03946685248927
319,16,319,0,10.74074074074068,10.04987562112089,53.03772242470448,7.0,12.0,14.0,15.033296378372908,12.041594578792296,41.048751503547585,29.068883707497267,24.0,23.0,21.0,10.0,19.0,7.0,3.0,8.0,7.0,7.5,21.0,21.0,24.020824298928627,126.0,125.00399993600205,121.01652779682617,114.0175425099138
320,16,320,0,10.774410774410711,10.04987562112089,53.03772242470448,8.0,12.0,13.038404810405298,16.0,11.045361017187261,41.048751503547585,29.068883707497267,24.0,22.0,20.0,10.0,20.0,7.0,3.0,9.0,8.06225774829855,8.5,21.0,20.0,23.0,125.0,125.0,122.0,114.0175425099138
321,16,321,0,10.808080808080746,10.0,54.08326913195984,7.0710678118654755,11.045361017187261,15.033296378372908,15.0,12.041594578792296,40.11234224026316,29.068883707497267,24.0,22.0,19.0,8.5,19.5,7.5,2.5,8.0,8.0,8.0,22.0,21.0,24.020824298928627,126.00396819148197,126.0,121.00413216084813,114.0175425099138
322,16,322,0,10.84175084175078,9.0,55.036351623268054,7.0710678118654755,11.0,14.0,16.0312195418814,13.038404810405298,40.049968789001575,29.068883707497267,24.5,22.0,20.0,8.0,19.0,7.0,2.0,9.055385138137417,8.0,8.0,21.0,21.0,24.020824298928627,124.00403219250575,125.00399993600205,121.0,114.00438588054409
323,16,323,0,10.875420875420811,10.0,53.009433122794285,7.0710678118654755,11.0,14.0,16.0312195418814,12.041594578792296,40.049968789001575,29.068883707497267,24.0,21.0,20.0,8.5,19.5,7.5,1.5,9.055385138137417,8.06225774829855,8.0,22.0,21.0,24.020824298928627,123.00406497347964,124.0,119.00420160649792,113.00442469213318
324,16,324,0,10.909090909090844,11.0,55.036351623268054,8.0,11.0,15.0,16.0,12.165525060596439,42.04759208325728,31.064449134018133,25.5,22.0,20.0,9.0,21.0,9.0,2.0,9.055385138137417,9.055385138137417,9.0,22.0,20.0,23.021728866442675,121.00413216084813,122.00409829181969,118.00423721205946,111.0
325,16,325,0,10.942760942760875,12.0,54.08326913195984,7.0710678118654755,11.0,15.0,16.0,13.038404810405298,43.04648650006177,32.0624390837628,26.0,23.0,20.0,8.5,21.5,9.5,2.5,10.04987562112089,9.055385138137417,9.0,22.0,20.0,24.020824298928627,123.0,123.0,118.0,110.00454536063498
326,16,326,0,10.97643097643091,12.041594578792296,54.08326913195984,7.0,12.0,15.0,16.0,12.041594578792296,43.04648650006177,31.064449134018133,25.0,23.0,20.0,9.5,21.5,9.5,2.5,9.055385138137417,8.0,8.5,22.0,20.0,24.020824298928627,123.00406497347964,123.01625908797584,118.03812943282352,111.04053313993049
327,16,327,0,11.010101010100945,12.041594578792296,55.036351623268054,7.0,12.0,14.0,16.0,12.041594578792296,43.04648650006177,31.064449134018133,25.0,22.0,20.0,9.0,22.0,10.0,2.0,9.055385138137417,8.06225774829855,8.5,22.0,21.0,23.08679276123039,125.00399993600205,124.00403219250575,120.00416659433121,112.0044641967453
328,16,328,0,11.043771043770976,12.0,55.036351623268054,7.0,11.0,15.033296378372908,17.029386365926403,12.165525060596439,42.04759208325728,31.064449134018133,25.0,22.0,20.0,9.0,21.0,9.0,3.0,9.055385138137417,8.0,8.5,23.0,21.0,24.08318915758459,126.00396819148197,126.01587201618692,120.01666550941998,113.03981599418853
329,16,329,0,11.077441077441009,12.0,54.00925846556311,7.0,11.0,14.0,15.0,12.041594578792296,42.01190307520001,31.016124838541646,25.0,22.0,21.0,9.5,20.5,8.5,2.5,9.0,9.0,9.0,23.0,20.0,23.08679276123039,126.01587201618692,126.01587201618692,121.01652779682617,113.03981599418853
330,16,330,0,11.11111111111104,11.0,54.00925846556311,7.0,11.0,14.0,16.0,13.038404810405298,42.01190307520001,31.016124838541646,25.5,23.0,22.0,9.5,19.5,7.5,3.5,9.055385138137417,8.0,8.5,23.0,21.0,23.021728866442675,126.03570922560003,125.01599897613104,121.03718436910205,114.03946685248927
331,16,331,0,11.144781144781074,11.0,54.0,7.0,11.0,14.0,16.0,13.038404810405298,42.01190307520001,31.016124838541646,25.5,22.0,22.0,9.0,20.0,8.0,3.0,9.055385138137417,8.06225774829855,8.5,23.0,21.0,24.08318915758459,124.03628501370073,124.06449935416659,120.06664815842908,112.11155159036913
332,16,332,0,11.178451178451107,11.0,54.0,7.0,11.0,14.0,15.033296378372908,13.038404810405298,42.01190307520001,31.016124838541646,25.5,22.0,22.0,9.0,20.0,8.0,2.0,9.055385138137417,8.0,8.5,23.0,20.0,25.179356624028344,124.03628501370073,125.06398362438324,120.03749414245534,113.07077429645558
333,16,333,0,11.21212121212114,10.0,55.0,7.0,12.0,14.0,15.0,12.041594578792296,41.012193308819754,29.017236257093817,24.0,22.0,22.0,10.0,19.0,6.0,3.0,9.055385138137417,9.055385138137417,9.0,24.0,21.0,24.08318915758459,126.14277624977183,126.09916732476864,122.06555615733703,114.10959644131601
334,16,334,0,11.245791245791173,8.0,55.0,7.0,13.0,14.035668847618199,16.0,13.038404810405298,41.012193308819754,28.0178514522438,24.0,22.0,22.0,9.0,19.0,6.0,2.0,9.055385138137417,8.06225774829855,8.0,24.0,20.0,23.194827009486403,126.09916732476864,126.14277624977183,122.10241602851272,115.10864433221339
335,16,335,0,11.279461279461206,10.0,54.0,6.0,11.0,14.0,16.0312195418814,13.038404810405298,40.01249804748511,29.017236257093817,24.0,22.0,22.0,9.0,18.0,6.0,3.0,9.055385138137417,8.06225774829855,8.5,23.0,19.0,25.179356624028344,126.09916732476864,126.09916732476864,122.14745187681976,114.15778554264269
336,16,336,0,11.31313131313124,10.0,55.0,6.0,12.0,14.0,15.0,13.038404810405298,41.012193308819754,29.017236257093817,24.0,23.0,23.0,10.0,18.0,6.0,4.0,9.055385138137417,9.055385138137417,9.0,24.0,20.0,23.08679276123039,125.14391715141412,126.09916732476864,122.10241602851272,115.10864433221339
337,16,337,0,11.346801346801271,11.0,52.03844732503075,6.0,12.0,13.0,15.0,13.0,42.0,30.0,24.5,23.0,25.0,11.0,18.0,6.0,5.0,9.055385138137417,8.0,8.5,24.0,19.0,23.08679276123039,127.1416532848303,127.1416532848303,122.14745187681976,114.15778554264269
338,16,338,0,11.380471380471304,12.0,50.039984012787215,6.0,12.0,14.0,15.0,13.038404810405298,43.01162633521314,31.016124838541646,25.0,24.0,26.0,12.0,18.0,5.0,6.0,9.219544457292887,9.0,9.0,24.0,20.0,23.08679276123039,126.19429464123962,125.25573839150046,121.2023102090055,113.21660655575224
339,16,339,0,11.414141414141335,12.0,48.0,6.0,12.0,12.0,14.035668847618199,13.0,43.0,31.0,25.0,26.0,26.0,13.0,17.0,4.0,7.0,9.055385138137417,8.0,8.0,24.0,19.0,23.08679276123039,126.14277624977183,126.14277624977183,121.1486689980538,113.1591799192624
340,16,340,0,11.44781144781137,14.035668847618199,50.0,5.0,11.045361017187261,14.0,15.033296378372908,14.0,44.0,33.015148038438355,26.0,26.0,26.0,12.0,18.0,6.0,7.0,9.055385138137417,8.0,8.5,24.0,20.0,23.08679276123039,126.25371281669304,125.25573839150046,121.26417442921878,113.28283188550682
341,16,341,0,11.481481481481405,13.0,48.0,6.0,12.0,13.0,15.033296378372908,12.041594578792296,43.01162633521314,31.016124838541646,24.5,25.0,25.0,13.0,18.0,6.0,7.0,10.198039027185569,8.0,8.0,24.0,20.0,22.02271554554524,126.14277624977183,126.14277624977183,121.1486689980538,112.16059914247963
342,16,342,0,11.515151515151436,12.0,49.01020301937138,6.0,13.0,14.0,15.0,13.038404810405298,44.01136216933077,31.016124838541646,25.0,25.0,26.0,12.5,18.5,4.5,6.5,9.055385138137417,8.06225774829855,8.0,23.0,19.0,22.02271554554524,125.19584657647394,124.19742348374221,119.20570456148481,111.22050170719426
343,16,343,0,11.548821548821468,13.0,48.0,6.0,12.0,12.0,14.035668847618199,12.041594578792296,43.01162633521314,31.016124838541646,24.5,25.0,25.0,13.0,18.0,5.0,7.0,9.0,8.0,8.0,23.0,20.0,23.08679276123039,126.14277624977183,125.14391715141412,120.14990636700472,111.16204388189342
344,16,344,0,11.5824915824915,11.0,49.0,7.0,13.0,13.0,15.0,12.0,43.0,30.0,24.5,25.0,25.0,13.0,18.0,4.0,6.0,9.055385138137417,8.0,8.0,23.0,20.0,23.021728866442675,126.09916732476864,126.09916732476864,121.10326172320876,112.11155159036913
345,16,345,0,11.616161616161534,11.0,49.0,7.0,13.0,12.0,14.0,12.041594578792296,43.01162633521314,30.01666203960727,24.5,25.0,25.0,13.0,18.0,5.0,6.0,9.055385138137417,7.0,7.5,23.0,20.0,23.08679276123039,128.09761902549164,127.1416532848303,122.10241602851272,113.1591799192624
346,16,346,0,11.649831649831569,10.0,49.0,6.0,12.0,12.0,14.0,13.038404810405298,41.012193308819754,29.017236257093817,24.0,25.0,25.0,12.0,16.0,3.0,6.0,9.055385138137417,7.0710678118654755,7.0,24.0,21.0,23.08679276123039,127.09838708654017,126.09916732476864,121.1486689980538,113.1591799192624
347,16,347,0,11.6835016835016,10.04987562112089,48.0,7.0,13.0,13.0,15.0,12.0,42.01190307520001,29.017236257093817,24.0,25.0,25.0,13.0,17.0,3.0,6.0,9.055385138137417,7.0,7.0,23.0,20.0,22.090722034374522,127.06297651164952,126.09916732476864,120.14990636700472,112.21853679316978
348,16,348,0,11.717171717171633,11.0,49.0,7.0,12.0,12.0,14.0,12.041594578792296,42.01190307520001,30.01666203960727,24.5,25.0,25.0,13.0,17.0,4.0,6.0,8.0,8.06225774829855,8.0,24.0,21.0,23.08679276123039,126.0634760745554,126.09916732476864,120.14990636700472,113.1591799192624
349,16,349,0,11.750841750841666,11.0,48.010415536631214,6.0,12.0,12.0,14.035668847618199,12.041594578792296,41.012193308819754,29.017236257093817,23.5,24.0,25.0,12.5,16.5,3.5,6.5,9.055385138137417,8.0,8.0,24.0,21.0,23.08679276123039,125.09996003196804,125.09996003196804,120.10412149464314,111.16204388189342
350,16,350,0,11.784511784511698,11.0,49.0,6.0,12.0,13.0,14.035668847618199,12.041594578792296,41.012193308819754,29.017236257093817,23.5,25.0,25.0,13.0,16.0,3.0,7.0,8.0,7.0,7.5,24.0,20.0,24.08318915758459,125.09996003196804,124.10076550932311,120.14990636700472,112.16059914247963
351,16,351,0,11.818181818181731,9.0,49.0,7.0,13.0,14.0,15.033296378372908,12.041594578792296,41.012193308819754,28.0178514522438,23.5,25.0,25.0,13.0,16.0,2.0,6.0,8.06225774829855,7.0,7.0,24.0,21.0,22.090722034374522,127.09838708654017,126.09916732476864,121.10326172320876,113.21660655575224
352,16,352,0,11.851851851851764,10.0,49.0,6.0,12.0,13.0,15.033296378372908,13.038404810405298,41.012193308819754,29.017236257093817,24.0,25.0,25.0,12.0,16.0,3.0,6.0,8.06225774829855,8.0,8.0,23.0,20.0,23.08679276123039,126.14277624977183,127.1416532848303,121.1486689980538,112.28535078094559
353,16,353,0,11.885521885521795,9.0,48.0,6.0,12.0,12.0,15.0,12.041594578792296,39.01281840626232,27.018512172212592,22.5,24.0,24.0,12.0,15.0,3.0,6.0,9.055385138137417,8.0,8.0,23.0,20.0,23.08679276123039,127.1416532848303,127.1416532848303,122.14745187681976,114.21471008587291
354,16,354,0,11.91919191919183,9.0,51.0098029794274,6.0,12.0,13.0,15.0,12.0,39.0,27.0,22.5,23.0,24.0,11.5,15.5,2.5,5.5,8.06225774829855,8.0,8.0,24.0,20.0,23.08679276123039,127.1416532848303,127.1927670899568,122.20065466273084,113.35784048754634
355,16,355,0,11.952861952861864,9.0,49.01020301937138,6.0,12.0,13.0,14.0,12.0,39.0,27.0,22.5,23.0,24.0,11.5,15.5,2.5,5.5,8.0,8.0,8.0,24.0,20.0,22.20360331117452,126.14277624977183,126.19429464123962,121.2023102090055,113.28283188550682
356,16,356,0,11.986531986531896,8.0,50.0,7.0,12.0,14.0,15.033296378372908,12.041594578792296,39.01281840626232,27.018512172212592,23.0,24.0,24.0,12.0,15.0,2.0,5.0,8.06225774829855,8.0,8.0,24.0,20.0,23.08679276123039,127.1416532848303,128.191263352851,122.2620137246234,114.35471131527551
357,16,357,0,12.020202020201928,8.0,49.0,7.0,12.0,13.038404810405298,15.0,13.038404810405298,40.01249804748511,28.0178514522438,24.0,25.0,25.0,12.0,15.0,2.0,6.0,9.055385138137417,8.0,7.5,23.0,20.0,23.08679276123039,125.14391715141412,125.19584657647394,119.20570456148481,112.28535078094559
358,16,358,0,12.05387205387196,9.0,50.00999900019995,6.0,12.0,13.0,14.0,13.0,40.0,28.0,23.5,24.0,25.0,11.5,15.5,2.5,5.5,8.06225774829855,8.0,8.0,24.0,20.0,23.08679276123039,127.1416532848303,126.19429464123962,121.2023102090055,113.28283188550682
359,16,359,0,12.087542087541994,8.0,50.0,7.0,12.0,13.0,15.033296378372908,13.038404810405298,40.01249804748511,28.0178514522438,24.0,25.0,25.0,12.0,15.0,2.0,5.0,9.055385138137417,8.0,8.0,24.0,20.0,24.08318915758459,127.1416532848303,126.14277624977183,121.2023102090055,114.21471008587291
360,16,360,0,12.121212121212029,8.0,50.0,7.0,12.0,13.0,15.0,13.038404810405298,40.01249804748511,28.0178514522438,24.0,25.0,25.0,12.0,15.0,2.0,6.0,8.06225774829855,7.0,7.5,25.0,21.0,23.08679276123039,131.18688958886096,130.24592124131948,124.32618388738553,116.3486140871476
361,16,361,0,12.15488215488206,5.0,50.00999900019995,8.0,12.041594578792296,13.0,14.035668847618199,13.038404810405298,38.0,26.019223662515376,23.5,24.0,25.0,11.5,13.5,0.5,4.5,9.055385138137417,8.0,8.0,26.0,22.0,24.08318915758459,131.24404748406687,131.24404748406687,125.32358118087753,118.4229707446997
362,16,362,0,12.188552188552093,1.0,51.088159097779204,9.0,13.038404810405298,13.0,14.035668847618199,14.0,37.013511046643494,24.0,23.5,23.0,26.0,10.5,12.5,1.5,2.5,8.06225774829855,7.0,7.5,27.0,23.0,25.079872407968907,131.38112497615478,131.64345787011217,127.76932339180638,117.83462988442744
363,16,363,0,12.222222222222126,1.4142135623730951,51.088159097779204,9.0,13.0,12.041594578792296,14.035668847618199,14.035668847618199,37.05401462729781,24.08318915758459,23.5,23.0,26.0,10.5,12.5,1.5,1.5,8.06225774829855,7.0710678118654755,7.5,26.0,22.0,26.076809620810597,130.64838307457157,131.97348218486925,128.1327436684316,119.36498649101419
364,16,364,0,12.255892255892158,2.0,51.088159097779204,9.0,13.038404810405298,12.0,13.038404810405298,13.038404810405298,37.05401462729781,24.020824298928627,23.0,23.0,26.0,11.5,12.5,1.5,2.5,8.06225774829855,8.06225774829855,8.0,26.0,21.0,24.08318915758459,129.75746606650424,130.86252328302402,127.01181047445942,119.21828718783037
365,16,365,0,12.289562289562191,2.23606797749979,50.08991914547278,9.0,12.0,13.0,14.035668847618199,14.035668847618199,37.05401462729781,25.079872407968907,24.0,23.0,26.0,10.5,12.5,0.5,1.5,9.055385138137417,8.06225774829855,8.0,26.0,20.0,23.08679276123039,130.86252328302402,130.98091464026353,127.1416532848303,118.53269591129698
366,16,366,0,12.323232323232224,1.0,49.09175083453431,9.0,12.041594578792296,13.038404810405298,14.035668847618199,15.0,37.013511046643494,25.0,24.5,24.0,27.0,10.5,11.5,1.5,1.5,8.246211251235321,8.06225774829855,8.0,27.0,20.0,24.186773244895647,130.75167302944922,130.86252328302402,126.01983970788092,117.23907198540937
367,16,367,0,12.356902356902255,1.0,50.08991914547278,9.0,13.0,13.038404810405298,15.033296378372908,15.0,38.0,25.0,24.5,24.0,27.0,10.5,12.5,1.5,1.5,8.246211251235321,7.0,7.5,26.0,20.0,24.08318915758459,130.75167302944922,131.85598204101322,127.01181047445942,118.2285921425101
368,16,368,0,12.39057239057229,2.0,50.039984012787215,11.0,14.035668847618199,13.038404810405298,15.033296378372908,13.0,40.01249804748511,26.0,25.0,25.0,27.0,13.0,14.0,0.0,2.0,9.055385138137417,8.0,8.0,26.0,20.0,24.08318915758459,133.63382805263043,133.843191832831,128.87590930814028,120.07081243999309
369,16,369,0,12.424242424242324,8.0,49.040799340956916,10.0,13.0,13.038404810405298,15.033296378372908,12.0,43.0,30.0,26.0,26.0,28.0,15.0,16.0,2.0,5.0,9.055385138137417,8.0,8.0,27.0,21.0,24.08318915758459,130.5526713629407,130.5526713629407,125.57467897629681,117.72000679578642
370,16,370,0,12.457912457912355,9.0,49.01020301937138,9.0,13.0,13.038404810405298,14.0,12.0,43.0,30.0,25.5,26.0,27.0,14.5,16.5,2.5,5.5,9.055385138137417,9.0,8.5,27.0,21.0,25.179356624028344,129.5569372901351,128.56126943990557,124.57929201917949,115.62439189029277
371,16,371,0,12.491582491582388,8.0,49.01020301937138,9.0,14.035668847618199,12.0,15.033296378372908,12.0,43.01162633521314,29.0,25.0,27.0,28.0,15.5,15.5,1.5,6.5,9.055385138137417,8.0,8.5,26.0,21.0,25.179356624028344,130.5526713629407,129.5569372901351,124.4869471069156,115.52488909321661
372,16,372,0,12.52525252525242,7.0,47.042533945356304,9.0,14.0,12.0,14.0,12.0,42.0,28.0,24.5,26.0,28.0,15.0,15.0,1.0,6.0,9.055385138137417,8.0,8.5,27.0,21.0,25.179356624028344,128.47178678604885,128.47178678604885,122.40914998479485,114.43775600735974
373,16,373,0,12.558922558922454,7.0,44.04543109109048,10.0,15.0,12.0,14.0,13.0,45.0,30.0,26.5,28.0,30.0,16.0,16.0,1.0,6.0,9.055385138137417,9.0,9.0,27.0,21.0,26.1725046566048,129.46814279968643,128.39003076563228,122.40914998479485,113.44161493913951
374,16,374,0,12.592592592592489,7.0,44.01136216933077,9.0,14.0,12.0,14.0,15.0,45.0,31.0,27.5,29.0,30.0,14.5,15.5,1.5,5.5,9.055385138137417,8.0,8.5,26.0,20.0,23.194827009486403,128.3160161476345,128.3160161476345,122.3315167894194,112.21853679316978
375,16,375,0,12.62626262626252,4.123105625617661,44.01136216933077,10.04987562112089,14.035668847618199,11.045361017187261,13.0,15.033296378372908,43.0,29.017236257093817,27.0,28.0,29.0,13.5,14.5,0.5,4.5,10.04987562112089,9.0,9.0,27.0,20.0,24.08318915758459,127.3184982632139,126.3210196285638,121.26417442921878,112.28535078094559
