,video_id,frame_seq,gap,time_seconds,m1,m3,m4,m5,m6,m7,m8,m9,m10,m11,m12,m13,m14,m15,m16,m17,e1,e2,e3,b1,b2,b3
0,16,0,0,0.0,9.563796486641877,52.0766063218778,4.876598490941704,7.886508619267088,12.579210293240697,14.472650255388576,7.710579232757903,29.893557928662773,22.079738749768445,17.21483367595539,6.6946575406493025,13.389315081298633,2.3909491216604692,19.60578279761583,10.041986310973954,2.3909491216604692,5.150262026246051,4.876598490941704,5.260088067653015,21.040352270612118,11.476555783970241,18.396329850821964
1,16,1,0,0.0336700336700336,9.59527382903417,52.12004934966471,4.773827155068773,8.645768694409346,12.557978574945373,14.448222709775942,7.6975649939982755,30.686463957116835,22.042471641401452,17.18577775824764,5.728592586082527,13.366716034192592,1.9095308620274807,21.004839482302714,10.502419741151357,2.864296293041292,5.141569198163914,4.773827155068801,4.773827155068801,21.95960491331644,12.411950603178866,17.422834166983545
2,16,2,0,0.0673400673400672,10.563558488986661,52.20816848434283,3.8255185946567565,7.710579232757903,13.423428041251983,13.525250699185108,8.660386056930774,30.73834542468973,23.03267198524393,17.693023500287495,5.7382778919851205,13.389315081298633,0.956379648664182,21.040352270612146,11.47655578397027,2.8691389459925745,5.150262026246051,4.7818982433209385,4.7818982433209385,21.040352270612118,11.476555783970241,17.452290874902904
3,16,3,0,0.1010101010101008,10.582795339655604,53.34081460548525,3.9667257272449437,7.756474884163317,12.543888151281854,14.558795756392136,8.711935239878871,30.921309161110084,23.16976927099372,17.798337616693544,6.734506125235384,13.469012250470797,1.4431084554075824,20.68455452750871,11.063831491458131,2.4051807590126373,5.180917911292763,4.905625449569337,4.810361518025275,21.165590679311236,11.544867643260659,17.55617207941959
4,16,4,0,0.1346801346801344,11.565761409075833,52.613975103761454,4.91450359286966,7.016667834272649,12.676986693988944,14.585144093894504,7.770512461274497,31.082049845097966,24.172318370052697,18.312455564370055,5.7828807045379165,13.493388310588472,1.9276269015126388,21.203895916639,12.529574859832138,2.891440352268944,5.190294275655782,4.819067253781583,4.819067253781611,21.203895916639,11.565761409075833,17.58794503337388
5,16,5,0,0.168350168350168,11.544867643260659,52.38658170738075,4.905625449569365,6.802878498709001,12.543888151281854,14.558795756392136,7.756474884163288,30.921309161110084,24.128650621655527,18.27937376849607,6.734506125235384,13.469012250470797,2.4051807590126657,20.68455452750871,12.025903795063186,2.4051807590126373,5.180917911292763,4.810361518025275,4.810361518025275,21.165590679311236,11.544867643260659,19.45670822626097
6,16,6,0,0.2020202020202016,11.436873306668701,52.02764834399472,4.859736680432696,7.683918369416551,12.535715168367966,14.422608184747945,7.683918369416547,31.581098644997027,23.902943606446385,18.10838273555879,5.718436653334351,13.343018857780152,1.9061455511114502,21.920673837781692,12.38994608222444,2.8592183266671896,4.859736680432696,4.765363877778611,4.765363877778611,20.96760106222598,11.43687330666873,17.39194610339307
7,16,7,0,0.2356902356902352,11.476515967326348,52.84184778623749,4.76536387777864,6.739242225597392,13.478484451194753,13.478484451194753,7.683918369416547,30.63206147351459,23.902943606446385,18.10838273555879,6.67150942889009,13.343018857780152,2.382681938889334,20.491064674448097,11.913409694446557,2.3826819388893057,4.859736680432696,4.765363877778611,4.765363877778611,20.96760106222598,11.43687330666873,17.39194610339307
8,16,8,0,0.2693602693602688,10.545728872277374,53.064691088252864,3.9365987197580887,7.6975649939982755,12.557978574945373,14.448222709775942,8.645768694409346,30.790259975993106,23.09269498199483,17.663160473754516,5.728592586082527,13.366716034192592,0.9547654310137261,21.004839482302714,11.457185172165111,2.864296293041292,5.141569198163914,4.868367563642994,4.773827155068801,21.004839482302685,11.457185172165111,18.36527975435683
9,16,9,0,0.3030303030303024,10.545728872277374,53.064691088252864,3.9365987197580887,7.6975649939982755,12.557978574945373,14.448222709775942,8.645768694409346,30.790259975993106,23.09269498199483,17.663160473754516,5.728592586082527,13.366716034192592,0.9547654310137261,21.004839482302714,11.457185172165111,2.864296293041292,5.141569198163914,4.868367563642994,4.773827155068801,21.004839482302685,11.457185172165111,18.36527975435683
10,16,10,0,0.336700336700336,10.429438200102512,51.54530713449246,4.72118484125312,7.6126818135085,12.41949826814775,14.288898157532955,7.6126818135085275,30.34807582259697,22.740237515963962,17.46838391263654,5.665421809503755,13.219317555508724,1.8884739365012422,20.773213301513692,11.330843619007453,2.8327109047518775,5.971878941208116,3.7769478730024844,4.249066357127788,20.773213301513692,11.330843619007481,17.230707750591833
11,16,11,0,0.3703703703703697,11.389938409270957,51.63515756039693,4.72941450351226,7.625951745171441,12.441147129527163,14.469226104766623,7.625951745171441,31.342854354728573,23.722622462496986,17.97177511334658,5.675297404214717,13.242360609834321,1.8917658014049152,21.755306716156355,12.296477709131835,2.8376487021073444,5.093735308533138,4.8230753682555445,5.202355953863503,20.809423815453897,11.350594808429406,19.129297814950846
12,16,12,0,0.4040404040404033,10.404711907726949,51.63515756039693,3.8999751090618195,7.799950218123653,13.376804265902079,14.313805635177998,8.512946106322062,30.400976613951798,22.720886965134518,17.498833662995338,5.675297404214717,13.242360609834321,0.9458829007024576,20.809423815453897,11.350594808429378,2.8376487021073444,5.093735308533138,4.8230753682555445,4.72941450351226,20.809423815453897,11.350594808429406,19.129297814950846
13,16,13,0,0.4377104377104369,10.404711907726949,51.505039358876296,3.8999751090618195,7.625951745171441,12.441147129527163,14.313805635177998,7.625951745171441,29.45935552563978,21.837402504908933,16.55295076229288,5.675297404214689,12.296477709131864,1.4188243510536722,20.336482365102682,10.877653358078163,3.3105901524585875,4.82307536825555,4.72941450351226,4.72941450351226,20.809423815453897,11.350594808429406,18.194420872379368
14,16,14,0,0.4713804713804705,8.527071685287524,52.65824232482201,4.831078324120621,8.57954646786503,14.337556612721016,14.337556612721022,7.6386055294451625,29.508237598608677,20.92990781854135,16.58041716583685,5.684714456858359,13.264333732669485,1.8949048189527957,19.89650059900424,9.474524094763922,2.842357228429165,4.831078324120626,4.831078324120621,4.737262047381989,21.79140541795701,11.369428913716717,17.289384046811307
15,16,15,0,0.5050505050505042,8.56533396143926,52.57101095306915,4.8230753682555445,8.565333961439288,13.27609916288411,14.313805635177994,7.567063205619604,29.45935552563978,20.895236236485697,16.55295076229288,5.675297404214717,13.242360609834321,1.8917658014049152,19.86354091475144,9.458829007024491,2.8376487021073444,4.82307536825555,4.8230753682555445,4.72941450351226,21.755306716156355,11.350594808429406,19.129297814950846
16,16,16,0,0.5387205387205378,9.37161438369526,51.95966493595252,4.778604461632892,8.640201544708377,12.326434202601428,14.181825961377656,7.497291506956202,30.120666046728502,21.57507653822865,16.86890589065146,6.5601300685866875,13.120260137173346,2.342903595923815,20.14897092494479,9.840195102880017,2.342903595923815,4.778604461632865,4.685807191847601,4.68580719184763,21.554713082499077,11.245937260434289,18.952917154908793
17,16,17,0,0.5723905723905715,8.486357761046872,51.030139917951125,4.778604461632892,8.486357761046875,13.153687605712172,14.181825961377653,7.497291506956202,29.187727124937826,20.702572836355785,16.400325171466704,6.5601300685866875,13.120260137173346,2.342903595923815,19.21180948657525,8.903033664510474,2.342903595923815,4.778604461632865,4.685807191847601,4.217226472662844,21.554713082499077,11.245937260434289,18.026660194826153
18,16,18,0,0.6060606060606051,8.486357761046872,51.15905837160387,4.68580719184763,8.486357761046872,13.1536876057122,14.181825961377653,7.555637067901321,29.187727124937826,20.702572836355785,16.400325171466704,5.622968630217173,13.120260137173346,1.8743228767390576,19.680390205760006,9.371614383695231,2.811484315108572,4.778604461632892,3.748645753478087,4.217226472662844,21.554713082499077,11.245937260434289,17.101591446463605
19,16,19,0,0.6397306397306387,8.565333961439256,52.44321477274345,4.72941450351226,8.565333961439288,13.376804265902079,14.313805635177994,7.567063205619604,29.38333125560879,20.830910061565266,16.55295076229288,6.6211803049171465,13.242360609834321,2.36470725175613,19.390599464400225,8.985887556673276,3.3105901524585875,5.753581066442645,4.8230753682555445,4.72941450351226,21.755306716156355,11.350594808429406,19.129297814950846
20,16,20,0,0.6734006734006723,8.434452945325745,51.95966493595252,4.778604461632865,7.72803119730663,13.253464162752563,14.335813384898655,8.434452945325745,29.187727124937826,21.57507653822865,17.33748660983622,6.5601300685866875,13.120260137173346,1.405742157554272,19.21180948657525,9.840195102880017,3.2800650342933295,5.046768796511088,4.778604461632865,5.154387911032387,20.617551644129534,11.245937260434289,20.03422331002736
21,16,21,0,0.707070707070706,8.500180112431961,51.242384870586434,5.632127170361514,8.500180112431932,13.275051048892122,14.204924938257932,7.567943486441678,30.169725777860872,21.671292131171924,17.365725441948058,6.570815032088461,14.080317925903813,2.816063585180757,19.712445096265327,9.38687861726919,2.816063585180757,5.709815352958264,4.786387724118273,5.162783239498083,21.589820819719165,12.202942202449975,18.226021451788476
22,16,22,0,0.7407407407407396,8.565333961439256,52.44321477274345,5.675297404214717,7.625951745171441,13.376804265902107,14.313805635177994,7.567063205619604,29.38333125560879,21.77585967937613,17.498833662995338,6.6211803049171465,13.242360609834321,2.36470725175613,19.390599464400225,8.985887556673276,3.3105901524585875,3.8999751090618267,3.8999751090618195,4.256473053161017,20.809423815453897,11.350594808429406,19.29230147302214
23,16,23,0,0.7744107744107732,8.434452945325745,51.95966493595252,5.700530482154524,7.72803119730663,13.253464162752563,14.335813384898655,6.560130068586659,28.255067677573404,20.638839777466075,16.400325171466676,5.622968630217144,12.183098698803803,2.342903595923815,19.21180948657525,9.840195102880017,3.2800650342933295,4.778604461632865,4.685807191847601,5.154387911032387,21.554713082499077,11.245937260434289,18.026660194826153
24,16,24,0,0.8080808080808068,8.4863577610469,51.95966493595252,4.685807191847601,8.486357761046872,14.181825961377653,14.181825961377656,8.486357761046904,30.120666046728502,21.63605191145383,17.33748660983622,6.5601300685866875,13.120260137173346,1.405742157554272,20.14897092494479,9.840195102880017,3.2800650342933295,5.700530482154524,4.685807191847601,4.68580719184763,20.617551644129534,11.245937260434289,18.19638367123252
25,16,25,0,0.8417508417508405,7.555637067901317,51.95966493595252,4.77860446163287,8.486357761046872,13.253464162752591,14.181825961377653,7.497291506956202,28.255067677573404,19.769442199951968,15.93174445228189,5.622968630217144,12.183098698803803,1.405742157554272,19.21180948657525,9.840195102880017,3.2800650342933295,5.046768796511088,4.685807191847601,4.68580719184763,21.554713082499077,11.245937260434289,18.952917154908793
26,16,26,0,0.8754208754208741,8.408801443075134,52.40610585625154,4.6429838790957945,8.408801443075163,14.052219098851918,14.204799240483736,7.486586550893093,28.920982225710944,20.51337325663746,16.250443576835295,5.571580654914953,12.071758085649094,1.3928951637287241,19.96483068011196,9.750266146101183,3.2500887153670703,5.000646677159903,4.6429838790957945,4.642983879095766,20.42912906802154,11.143161309829935,18.030088004978676
27,16,27,0,0.9090909090909076,8.4863577610469,52.086282778481674,4.685807191847601,8.486357761046872,12.326434202601424,14.181825961377656,7.497291506956202,29.112403832593365,20.638839777466075,16.400325171466676,5.622968630217144,13.120260137173346,1.8743228767390292,19.680390205760034,9.37161438369526,2.811484315108572,5.046768796511088,4.778604461632865,4.68580719184763,21.554713082499077,11.245937260434289,18.026660194826153
28,16,28,0,0.9427609427609414,8.420044855049781,51.997306780954034,4.770441446802804,8.625441985947964,13.230824033112452,14.157599964735823,7.484484315599815,29.137867411439895,20.60358363594366,16.37230944037455,5.613363236699854,13.097847552299669,1.8711210788999324,19.64677132844949,9.355605394499776,2.806681618349927,5.038147691989793,4.677802697249888,4.677802697249888,21.517892407349436,11.226726473399708,17.995866289264725
29,16,29,0,0.976430976430975,8.434452945325745,51.95966493595252,5.700530482154524,7.555637067901289,13.253464162752563,14.335813384898655,7.555637067901321,29.187727124937826,21.63605191145383,17.33748660983622,6.5601300685866875,13.120260137173346,2.342903595923815,19.21180948657525,9.840195102880017,3.2800650342933295,5.927129361054417,4.685807191847601,5.154387911032387,20.617551644129534,11.245937260434289,19.11441784653155
30,16,30,0,1.0101010101010086,8.434452945325745,53.01385665101035,4.778604461632865,8.640201544708377,13.253464162752563,15.11127413580261,8.434452945325745,30.120666046728502,21.57507653822865,17.33748660983622,6.5601300685866875,14.05742157554289,1.8743228767390292,19.680390205760034,9.37161438369526,2.811484315108572,5.046768796511088,4.685807191847601,4.68580719184763,21.554713082499077,12.183098698803832,17.101591446463605
31,16,31,0,1.043771043771042,8.408801443075134,52.529366173575404,4.6429838790957945,8.408801443075163,13.13234154339386,14.052219098851918,7.486586550893093,28.920982225710944,20.51337325663746,16.250443576835295,5.571580654914953,13.000354861468253,1.8571935516383178,19.500532292202365,9.285967758191589,2.7857903274574767,5.8729616789546215,4.6429838790957945,5.10728226700536,20.42912906802154,11.143161309829935,17.861915621311276
32,16,32,0,1.0774410774410756,9.332282099156426,52.529366173575404,4.6429838790957945,8.5612392575636,13.13234154339386,14.204799240483736,7.4287742065533,29.845395074278677,21.37790319916156,16.71474196474489,5.571580654914953,13.000354861468253,1.8571935516383178,20.429129068021524,10.214564534010748,2.7857903274574767,5.000646677159903,4.6429838790957945,4.642983879095766,20.42912906802154,11.143161309829935,17.861915621311276
33,16,33,0,1.1111111111111092,8.268022688220299,50.93438677618837,4.684312114007036,7.575540190785707,12.083206618449843,13.901987428128827,7.349353500640291,27.697533216406597,20.231590198532253,16.076710782650622,5.512015125480218,11.942699438540473,1.3780037813700403,18.83271834539073,9.646026469590367,3.2153421565301414,4.947184978354858,3.6746767503201454,4.134011344110178,20.210722126760785,11.024030250960436,17.670954648725566
34,16,34,0,1.144781144781143,8.408801443075134,52.529366173575404,4.6429838790957945,8.5612392575636,14.052219098851918,14.97317310178616,7.486586550893093,29.025148693922667,20.51337325663746,16.250443576835295,5.571580654914953,13.000354861468253,1.8571935516383178,19.500532292202365,9.285967758191589,2.7857903274574767,5.000646677159903,4.6429838790957945,4.642983879095766,20.42912906802154,11.143161309829935,18.030088004978676
35,16,35,0,1.1784511784511762,8.471861004763134,52.92329613244979,4.770441446802804,7.542730208182945,13.230824033112452,15.229822178496407,8.42004485504981,29.137867411439924,21.59909228986651,17.307869979824545,6.548923776149849,14.033408091749664,1.8711210788999324,18.711210788999523,9.355605394499776,2.806681618349927,5.917004387275475,3.742242157799893,4.210022427524876,20.58233186789947,11.226726473399708,19.081765787211282
36,16,36,0,1.2121212121212095,8.318903308077008,51.96777697639838,4.593345937900182,8.318903308077036,13.901987428128827,13.901987428128827,7.4065477756902816,28.611789247138905,20.29406566437522,16.076710782650622,5.512015125480218,12.861368626120509,1.8373383751600727,19.292052939180735,9.186691875800335,2.756007562740109,4.947184978354858,4.593345937900182,4.593345937900182,20.210722126760785,11.024030250960436,16.93942283287854
37,16,37,0,1.2457912457912432,8.343353663902121,52.3182082294588,4.726991460115859,8.546880003029203,13.110315452406226,14.028650152261065,7.416314367912975,28.87247479207088,20.415922715110984,16.223187679809655,5.562235775934738,12.051510847858594,1.3905589439836774,19.931344863766157,9.733912607885799,3.2446375359619424,4.992259391591347,4.63519647994562,4.63519647994562,20.39486451176073,11.124471551869505,17.831956898612198
38,16,38,0,1.2794612794612767,9.347205048276884,52.613364176465645,4.742504557822666,7.498558108224686,13.153341044116411,14.997116216449369,7.498558108224683,29.07156186623897,21.57308331869675,16.741469965597304,5.580489988532435,13.02114330657568,1.8601633295108115,19.531714959863507,9.300816647554058,2.790244994266203,5.008643048801885,4.742504557822693,5.115449156154739,21.39187828937432,12.09106164182026,18.058919332951486
39,16,39,0,1.3131313131313105,9.262263135407842,52.135244805750915,4.699407460150065,7.43041561363061,13.03381120143774,14.098222380450203,7.373037028193437,28.703991656360447,21.277472236347478,16.58933331343522,5.529777771145092,12.902814799338529,1.8432592570483735,19.35422219900778,10.137925913765969,2.7648888855725318,4.69940746015007,4.608148142620905,4.608148142620905,22.119111084580325,11.981185170814342,19.70219113914347
40,16,40,0,1.3468013468013438,10.214564534010748,52.529366173575404,4.734933080161236,7.6574051806208185,13.13234154339386,14.052219098851918,7.486586550893093,29.94634620357232,22.363571803176004,17.179040352654482,5.571580654914953,13.000354861468253,1.8571935516383178,20.429129068021524,11.143161309829907,2.7857903274574767,5.8729616789546215,4.6429838790957945,5.10728226700536,21.357725843840697,11.143161309829935,18.779707574220946
41,16,41,0,1.3804713804713773,10.214564534010748,52.529366173575404,4.734933080161236,7.6574051806208185,13.13234154339386,14.052219098851918,7.486586550893093,29.94634620357232,22.363571803176004,17.179040352654482,5.571580654914953,13.000354861468253,1.8571935516383178,20.429129068021524,11.143161309829907,2.7857903274574767,5.8729616789546215,4.6429838790957945,5.10728226700536,21.357725843840697,11.143161309829935,18.779707574220946
42,16,42,0,1.4141414141414108,8.408801443075134,51.48480865379407,4.6429838790957945,8.5612392575636,14.052219098851918,14.052219098851918,7.486586550893093,29.025148693922667,20.51337325663746,16.250443576835295,6.500177430734141,13.000354861468253,2.3214919395479114,19.03623390429277,8.821669370281995,2.321491939547883,5.000646677159903,4.6429838790957945,4.642983879095823,21.357725843840697,11.143161309829935,18.93973232064497
43,16,43,0,1.4478114478114443,8.408801443075134,52.529366173575404,4.6429838790957945,8.5612392575636,14.052219098851918,14.97317310178616,7.486586550893093,29.025148693922667,20.51337325663746,16.250443576835295,5.571580654914953,13.000354861468253,1.8571935516383178,19.500532292202365,9.285967758191589,2.7857903274574767,5.000646677159903,3.7143871032766356,4.178685491186229,21.357725843840697,11.143161309829935,18.93973232064497
44,16,44,0,1.4814814814814778,10.163773226422226,51.931368765054,4.600923958305572,7.418766966436277,13.01337812256606,13.924922679649175,7.418766966436274,29.575031233811888,22.160984397507125,17.023418645730573,6.441293541627772,12.882587083255572,2.3004619791528,19.783973020713887,10.582125104102772,2.3004619791527716,5.8197596197932455,4.600923958305543,5.061016354136115,21.164250208205573,11.962402291594458,16.967369191288817
45,16,45,0,1.5151515151515114,8.394697863369291,51.398456263693575,4.63519647994562,8.394697863369263,13.110315452406226,14.028650152261065,7.474029747065529,28.87247479207088,20.478967402637974,16.223187679809655,5.562235775934738,12.051510847858594,1.3905589439836774,19.931344863766157,9.733912607885799,3.2446375359619424,4.726991460115832,4.63519647994562,5.098716127940179,22.248943103738966,12.051510847858623,17.831956898612198
46,16,46,0,1.5488215488215449,9.186691875800335,51.96777697639838,4.684312114007036,7.575540190785707,12.991944244099574,14.954850891780053,7.4065477756902816,28.71484207611381,21.20912514978816,16.536045376440626,5.512015125480218,12.861368626120509,1.8373383751600727,19.292052939180735,9.186691875800335,2.756007562740109,4.684312114007036,5.512015125480218,5.512015125480218,21.129391314340822,11.024030250960436,17.670954648725566
47,16,47,0,1.5824915824915784,9.232511072135512,51.96777697639838,4.593345937900182,7.4065477756902816,12.991944244099574,13.901987428128827,7.4065477756902816,28.611789247138905,21.20912514978816,16.536045376440626,5.512015125480218,12.861368626120509,1.8373383751600727,19.292052939180735,9.186691875800335,2.756007562740109,4.947184978354858,5.588046511951352,5.512015125480218,22.048060501920858,11.942699438540473,18.737248456028116
48,16,48,0,1.616161616161612,9.24774270464121,52.053512490264204,5.5972655716665,7.418766966436277,13.01337812256606,14.837533932872555,7.361478333288886,29.575031233811888,22.16098439750713,17.483511041561144,5.521108749966686,12.882587083255572,1.840369583322257,20.24406541654443,11.042217499933315,3.680739166644429,4.955346756113802,3.680739166644429,4.140831562474972,22.084434999866673,11.962402291594458,17.866756816872503
49,16,49,0,1.6498316498316454,9.232511072135512,51.845834429831946,4.593345937900182,7.4065477756902816,12.991944244099574,13.901987428128827,7.4065477756902816,28.611789247138905,21.20912514978816,16.536045376440626,6.4306843130602545,12.861368626120509,2.296672968950105,18.832718345390703,9.646026469590339,2.2966729689500767,4.947184978354858,4.593345937900182,4.59334593790021,22.048060501920858,11.942699438540473,16.764139535854028
50,16,50,0,1.683501683501679,9.332282099156426,52.40610585625154,4.734933080161236,8.408801443075163,13.13234154339386,14.204799240483736,7.4287742065533,29.845395074278677,21.438321322083667,16.71474196474489,5.571580654914953,12.071758085649094,1.3928951637287241,20.893427455931118,10.678862921920341,3.2500887153670703,5.000646677159903,5.571580654914953,5.571580654914953,21.357725843840697,11.143161309829935,17.861915621311276
51,16,51,0,1.7171717171717125,11.181785901588016,52.529366173575404,4.6429838790957945,7.486586550893065,13.13234154339386,14.204799240483736,7.486586550893093,30.770059884956204,23.289088655995865,17.643338740564076,5.571580654914953,13.000354861468253,1.8571935516383178,21.357725843840683,12.071758085649066,2.7857903274574767,5.000646677159903,3.7143871032766356,4.178685491186229,21.357725843840697,11.143161309829935,17.861915621311276
52,16,52,0,1.750841750841746,7.406547775690254,51.845834429831946,5.588046511951352,8.318903308077036,12.991944244099574,13.901987428128827,7.349353500640291,28.611789247138905,20.29406566437522,16.536045376440626,6.4306843130602545,12.861368626120509,2.296672968950105,18.832718345390703,9.646026469590339,3.215342156530113,4.947184978354858,5.512015125480218,5.512015125480218,21.129391314340822,11.024030250960436,17.670954648725566
53,16,53,0,1.7845117845117795,10.239483701318987,52.3182082294588,4.726991460115859,7.474029747065529,13.110315452406226,14.028650152261065,7.416314367912975,29.795337178259494,22.326062721820097,17.150226975798773,6.489275071923856,12.978550143847713,2.3175982399727957,19.931344863766157,10.660951903874945,2.317598239972824,4.992259391591347,4.726991460115859,4.63519647994562,21.321903807749848,11.124471551869505,17.831956898612198
54,16,54,0,1.818181818181813,10.239483701318987,52.3182082294588,4.726991460115859,7.474029747065529,13.110315452406226,14.028650152261065,7.416314367912975,29.795337178259494,22.326062721820097,17.150226975798773,6.489275071923856,12.978550143847713,2.3175982399727957,19.931344863766157,10.660951903874945,2.317598239972824,4.992259391591347,4.726991460115859,4.63519647994562,21.321903807749848,11.124471551869505,17.831956898612198
55,16,55,0,1.8518518518518463,11.043152607484654,51.75636786717509,4.585419536933216,7.562467635418592,13.877997785702002,14.78753367633573,7.393766838167849,30.48528164495524,23.000347384658554,17.42459424034618,5.502503444319842,11.922090796026339,1.3756258610799534,21.551471823586127,12.380632749719695,3.2097936758532626,4.9386479832479475,4.585419536933216,4.585419536933216,22.010013777279426,11.922090796026367,17.640461175360308
56,16,56,0,1.88552188552188,10.05620808033065,51.502620262460475,4.552231504557682,7.340252743933769,12.875655065615112,13.777552573195363,7.340252743933798,29.262033050513363,21.926450482675747,16.84325656686346,5.462677805469241,12.746248212761515,1.8208926018230898,20.02981862005379,10.925355610938425,2.731338902734592,4.642383454426291,3.641785203646151,4.097008354101916,20.940264920965348,10.925355610938425,17.677669529663707
57,16,57,0,1.9191919191919136,10.963225241337872,52.404074294395464,3.753866265111156,7.340252743933798,12.875655065615112,13.777552573195367,8.194016708203833,30.16862424099192,22.833877061168625,17.298479717319225,5.462677805469241,12.746248212761515,0.9104463009115591,20.940264920965348,11.835801911849956,2.731338902734592,4.902903378454592,3.641785203646151,4.097008354101916,21.850711221876907,11.835801911849984,17.677669529663707
58,16,58,0,1.952861952861947,9.149872083870546,51.38176920753656,4.642383454426291,8.244441902346518,12.875655065615112,13.927150363278901,7.283570407292302,29.262033050513363,21.019285069373456,16.388033416407666,6.3731241063807715,12.746248212761515,2.276115752278855,19.574595469598023,9.559686159571129,2.2761157522788267,4.902903378454592,4.552231504557682,4.552231504557682,20.940264920965348,10.925355610938425,18.412636936055424
59,16,59,0,1.9865319865319808,8.318903308077008,51.845834429831946,5.588046511951352,8.318903308077036,12.991944244099574,14.052936342021079,7.349353500640291,29.526319237654025,21.20912514978816,16.99537997023066,6.4306843130602545,12.861368626120509,2.296672968950105,19.75138753297074,9.646026469590339,3.215342156530113,5.810174097938767,4.593345937900182,4.59334593790021,21.129391314340822,11.024030250960436,17.837329108663617
60,16,60,0,2.020202020202014,8.332627686748102,51.931368765054,4.692040208791328,8.332627686748102,13.01337812256606,14.076120626373942,7.361478333288886,28.658992467989364,20.327546452844448,16.103233854069458,6.441293541627772,12.882587083255572,2.3004619791528,18.863788229052773,9.661940312441658,3.220646770813886,5.8197596197932455,4.6920402087913,4.600923958305543,21.16425020820556,11.042217499933344,18.768160835165272
61,16,61,0,2.053872053872048,10.147032832187596,51.845834429831946,4.593345937900182,7.575540190785707,12.991944244099574,14.052936342021079,7.4065477756902816,29.626191102761098,22.124483817734546,16.99537997023066,6.4306843130602545,12.861368626120509,2.296672968950105,19.75138753297074,10.564695657170375,2.2966729689500767,4.947184978354858,4.684312114007036,5.052680531690186,21.129391314340822,11.024030250960436,17.670954648725566
62,16,62,0,2.0875420875420816,10.163773226422226,52.053512490264204,4.692040208791333,7.418766966436277,13.01337812256606,13.924922679649175,7.418766966436274,29.675067865745135,22.256300899308858,17.023418645730573,5.521108749966686,12.882587083255572,1.840369583322257,20.24406541654443,11.042217499933315,2.7605543749833146,4.955346756113802,5.597265571666467,5.521108749966686,21.16425020820556,11.042217499933344,18.609585722927875
63,16,63,0,2.121212121212116,10.056208080330649,52.404074294395464,4.642383454426296,7.340252743933769,12.875655065615112,14.680505487867595,7.340252743933798,29.361010975735166,22.020758231801395,16.84325656686346,5.462677805469241,12.746248212761515,1.8208926018230898,20.02981862005379,10.925355610938425,3.6417852036461227,4.642383454426291,4.552231504557682,4.552231504557682,21.850711221876907,11.835801911849984,17.512784265561436
64,16,64,0,2.154882154882149,10.014909310026923,51.502620262460475,4.642383454426296,7.340252743933769,12.875655065615112,13.927150363278907,7.340252743933798,29.262033050513363,21.926450482675747,16.84325656686346,5.462677805469241,12.746248212761515,1.8208926018230898,20.02981862005379,10.925355610938425,2.731338902734592,4.642383454426291,5.538028645033305,5.4626778054692124,20.940264920965348,10.925355610938425,19.463118900820607
65,16,65,0,2.188552188552183,9.134363494395696,51.41532581864659,4.544515692910096,8.23046797312207,13.754200289702494,13.90354451878633,7.327811371485783,29.21243532350473,20.983658400474972,16.360256494476374,5.453418831492144,12.724643940148297,1.8178062771640384,19.995869048804423,9.997934524402211,3.635612554328077,4.634514839595471,4.634514839595443,4.99896726220112,21.81367532596849,11.815740801566278,17.647706737059078
66,16,66,0,2.2222222222222165,8.244441902346521,52.404074294395464,5.4626778054692124,8.244441902346518,13.777552573195337,13.777552573195363,7.340252743933798,29.262033050513363,21.019285069373456,16.84325656686343,5.462677805469241,12.746248212761515,1.8208926018230898,20.02981862005379,10.014909310026894,3.6417852036461227,5.75816799631097,4.642383454426291,4.552231504557682,20.940264920965348,10.925355610938425,18.412636936055424
67,16,67,0,2.2558922558922503,8.30454798537399,51.75636786717509,5.502503444319871,8.30454798537399,13.877997785702002,13.877997785701973,7.393766838167849,29.47536782913388,21.172526114494815,16.966052286652882,6.419587351706497,12.839174703412993,2.292709768466608,19.717304008812818,9.62938102755976,3.2097936758532626,5.800147905657426,4.676228739366414,4.585419536933216,21.09292986989277,11.922090796026339,18.704914957465647
68,16,68,0,2.289562289562284,8.244441902346518,51.38176920753656,5.538028645033309,8.244441902346518,12.875655065615112,14.680505487867595,7.283570407292302,29.262033050513363,21.019285069373456,16.84325656686343,6.3731241063807715,12.746248212761515,2.276115752278855,19.574595469598023,9.559686159571129,3.1865620531903573,4.642383454426291,4.552231504557682,4.552231504557682,21.850711221876878,10.925355610938425,17.677669529663707
69,16,69,0,2.3232323232323178,9.089031385820192,51.294679600400315,4.634514839595443,8.379672893529964,13.013512502067622,14.65562274297151,7.271225108656182,29.21243532350473,20.924521622294048,16.360256494476374,6.362321970074163,12.724643940148297,2.2722578464550622,19.5414174795134,9.543482955111187,3.181160985037053,4.634514839595471,5.528641955037156,5.453418831492115,20.90477218738647,10.906837662984259,18.538059358381773
70,16,70,0,2.3569023569023515,9.838699100999065,50.47771785649583,3.6878177829171452,8.246211251235334,12.806248474865704,14.56021977856105,8.049844718999253,29.637813684548327,21.484878403193246,16.546903033498438,6.260990336999413,12.521980673998826,1.3416407864998803,20.12461179749809,10.285912696499025,3.1304951684996922,4.560701700396541,4.560701700396546,4.472135954999601,21.466252583997985,11.627553482998906,18.242806801586212
71,16,71,0,2.390572390572385,10.828402248385004,50.92579912509571,3.720553852230588,7.441107704461197,12.91992714946301,14.689468128655195,8.121301686288774,29.900903018183673,22.57721147471729,17.144970226609587,6.316567978224612,12.633135956449195,1.3535502810481432,20.303254215721864,10.377218821368956,3.1582839891122774,4.601186197128926,4.511834270160421,4.511834270160421,20.754437642737926,11.73076910241707,17.520795047583384
72,16,72,0,2.424242424242419,10.828402248385004,50.92579912509571,3.720553852230588,7.441107704461197,12.91992714946301,14.689468128655195,8.121301686288774,29.900903018183673,22.57721147471729,17.144970226609587,6.316567978224612,12.633135956449195,1.3535502810481432,20.303254215721864,10.377218821368956,3.1582839891122774,4.601186197128926,4.511834270160421,4.511834270160421,20.754437642737926,11.73076910241707,17.520795047583384
73,16,73,0,2.4579124579124527,10.963225241337872,51.50262026246048,3.753866265111156,7.340252743933798,12.875655065615112,14.680505487867597,8.194016708203833,30.16862424099192,22.833877061168625,17.298479717319225,6.3731241063807715,13.656694513673074,1.8208926018230898,20.029818620053817,10.925355610938425,2.731338902734592,4.642383454426291,5.4626778054692124,5.4626778054692124,21.850711221876878,11.835801911849984,17.677669529663707
74,16,74,0,2.4915824915824865,9.894719048611703,50.55664784061086,4.567833086838951,8.11204737259555,12.82627309229328,14.582987010611827,7.1666061675774415,29.68415714583506,21.57434149395996,16.572776762522807,6.270780396630244,12.541560793260487,2.239564427367924,20.156079846311513,10.301996365892563,3.135390198315122,4.567833086838974,4.479128854735876,4.479128854735876,20.603992731785098,10.749909251366148,17.393790187411746
75,16,75,0,2.52525252525252,9.068674647644594,52.717071719509526,5.488883288289458,7.275114160727964,12.76139443208118,14.689468128655195,7.218934832256679,29.0023570637147,21.731871635189222,17.144970226609615,6.316567978224612,12.633135956449195,2.2559171350802387,19.400887361689797,10.377218821368956,3.1582839891122774,4.601186197128926,4.601186197128931,4.511834270160421,20.754437642737926,11.73076910241707,17.520795047583384
76,16,76,0,2.558922558922554,11.870767429420695,52.285306881091046,3.753866265111156,6.437827532807569,12.875655065615112,14.680505487867597,8.194016708203833,30.16862424099192,23.741534858841394,17.75370286777499,6.3731241063807715,12.746248212761515,1.3656694513673244,20.485041770509582,11.38057876139419,3.1865620531903573,4.642383454426291,4.552231504557682,4.552231504557682,20.940264920965348,10.925355610938425,17.677669529663707
77,16,77,0,2.592592592592588,9.068674647644594,51.82131866004088,4.601186197128931,8.171279399149968,12.76139443208118,14.550228321455924,7.218934832256679,29.0023570637147,20.832756553642167,16.24260337257752,6.316567978224612,12.633135956449195,2.2559171350802387,19.400887361689797,9.47485196733686,3.1582839891122774,4.859394225458256,4.601186197128931,4.511834270160421,20.754437642737926,10.828402248385004,17.35737300182928
78,16,78,0,2.6262626262626214,8.171279399149936,51.045577728324666,5.488883288289458,8.171279399149968,12.76139443208118,14.6894681286552,7.218934832256679,29.0023570637147,20.832756553642167,16.693786799593568,5.414201124192516,12.633135956449195,1.8047337080641626,19.852070788705873,9.926035394352937,3.6094674161283535,5.70706908756417,4.601186197128931,4.511834270160421,19.85207078870586,10.828402248385004,19.14209164812173
79,16,79,0,2.659932659932655,9.909507779128404,51.73503216385048,4.593524866897751,7.428717685677512,12.740145725168276,14.526001068018685,7.206914748457024,28.9540659002129,21.639504113755446,16.665990355806855,6.306050404899906,12.612100809799784,2.252160858892836,19.368583386478235,9.459075607349831,3.153025202449925,4.851302958926178,4.593524866897751,4.504321717785672,20.719879901813925,11.711236466242667,18.374099467590984
80,16,80,0,2.693602693602689,8.121301686288746,52.717071719509526,5.488883288289458,8.319411327536336,12.76139443208118,14.550228321455924,7.218934832256679,29.0023570637147,20.774045051591504,16.693786799593568,6.316567978224612,12.633135956449195,2.2559171350802387,19.400887361689797,9.47485196733686,3.1582839891122774,4.859394225458256,4.511834270160421,4.96301769717644,21.656804496770008,11.73076910241707,19.47942318687039
81,16,81,0,2.727272727272722,8.049844718999225,52.36792911697005,4.560701700396546,8.099382692526646,13.535139452550913,15.310127367203727,8.099382692526646,28.747173774129514,20.649455198624477,16.546903033498438,6.260990336999413,13.416407864998746,1.788854381999812,18.78297101099824,8.944271909999173,2.6832815729997606,5.656854249492372,4.560701700396546,4.472135954999601,20.571825392998065,10.733126291998985,19.120669444347396
82,16,82,0,2.7609427609427564,9.98283120182431,52.02169881429206,4.60850949279043,7.286693307862576,12.781705599783463,14.712848038445358,8.134227634263283,29.94849360547293,22.66726568941082,17.62415987423708,6.3266214933158835,13.557046057105453,1.8076061409473994,19.88366755042128,10.84563684568434,2.7114092114210564,4.867128487695034,4.608509492790425,4.519015352368456,20.787470620895007,11.749439916158053,18.43403797116182
83,16,83,0,2.79461279461279,8.17127939914994,51.821318660040845,4.511834270160421,8.171279399149965,13.65528835614866,14.550228321455924,8.171279399149965,29.002357063714697,20.832756553642167,16.693786799593568,6.316567978224612,12.633135956449195,1.3535502810481432,19.400887361689797,9.47485196733686,3.1582839891122774,4.859394225458256,4.601186197128931,4.511834270160421,21.656804496770008,11.73076910241707,18.249240235023652
84,16,84,0,2.828282828282824,8.049844718999225,51.26402247190518,4.560701700396546,8.099382692526646,12.649110640673522,13.535139452550913,8.049844718999253,28.67751732629587,20.591260281973987,16.546903033498438,7.155417527999333,12.521980673998826,1.788854381999812,18.78297101099824,8.944271909999173,2.6832815729997606,4.816637831516904,4.560701700396546,4.472135954999601,21.466252583997985,11.627553482998906,19.308029417835478
85,16,85,0,2.8619528619528576,8.134227634263283,52.02169881429206,4.60850949279043,8.332652588870044,14.573386615725124,14.573386615725154,8.134227634263283,29.048517515945704,20.807109237103827,16.720356803763366,6.3266214933158835,13.557046057105453,1.8076061409473994,18.979864479947594,9.03803070473694,2.7114092114210564,5.716152517901109,4.608509492790425,4.519015352368456,21.691273691368707,11.749439916158053,18.434037971161818
86,16,86,0,2.895622895622892,8.134227634263283,52.02169881429206,4.60850949279043,8.332652588870044,14.573386615725124,14.573386615725154,8.134227634263283,29.048517515945704,20.807109237103827,16.720356803763366,6.3266214933158835,13.557046057105453,1.8076061409473994,18.979864479947594,9.03803070473694,2.7114092114210564,5.716152517901109,4.608509492790425,4.519015352368456,21.691273691368707,11.749439916158053,18.434037971161818
87,16,87,0,2.929292929292925,8.049844718999225,51.36535797597442,4.560701700396546,8.099382692526646,13.535139452550913,14.42220510185597,8.099382692526646,28.747173774129514,20.649455198624477,16.546903033498438,6.260990336999413,12.521980673998826,1.3416407864998803,19.23018460649817,9.391485505499105,3.1304951684996922,4.560701700396541,4.560701700396546,4.472135954999601,21.466252583997985,11.627553482998906,17.36663467687393
88,16,88,0,2.962962962962959,8.112047372595578,51.56253609745995,4.567833086838951,8.112047372595578,13.556303807584161,14.444756525888824,8.062431938524611,28.792124577487836,20.68174392402695,16.572776762522807,6.270780396630244,13.437386564207685,1.791651541894339,18.81234118989076,8.958257709471809,2.687477312841537,4.824169415028896,5.449095433193015,5.374954625683074,21.499818502732282,11.645735022313318,18.467921378827942
89,16,89,0,2.9966329966329925,10.770329614269004,52.36792911697005,4.560701700396546,7.211102550927985,13.535139452550913,14.42220510185597,8.049844718999253,30.5286750449475,23.323807579381203,17.88854381999832,6.260990336999413,13.416407864998746,1.788854381999812,20.57182539299808,11.627553482998906,2.6832815729997606,5.656854249492372,4.560701700396546,4.472135954999601,21.466252583997985,11.627553482998906,17.36663467687393
90,16,90,0,3.0303030303030263,8.099382692526618,50.59644256269406,5.440588203494175,8.988882021697707,12.649110640673522,14.56021977856105,7.155417527999333,29.637813684548327,20.649455198624477,16.546903033498438,6.260990336999413,13.416407864998746,2.683281572999732,19.67739820199816,8.944271909999173,2.6832815729997606,4.560701700396541,4.4721359549995725,4.472135954999601,21.466252583997985,11.627553482998906,18.242806801586212
91,16,91,0,3.06397306397306,7.340252743933798,52.285306881091046,4.552231504557682,8.39390014723177,13.777552573195337,15.716739964743432,8.244441902346521,28.45781931396186,20.112416160661272,16.388033416407666,6.3731241063807715,12.746248212761515,1.3656694513673244,18.664149168686492,8.649239858659598,3.1865620531903573,5.75816799631097,4.552231504557682,4.552231504557682,21.850711221876878,11.835801911849984,20.358198187014256
92,16,92,0,3.0976430976430938,8.157673588125125,53.52377673696924,4.593524866897751,8.157673588125157,13.632551246843308,15.420313670264166,7.206914748457024,28.057260531417484,19.900743804199777,15.765126012249738,6.306050404899906,12.612100809799784,2.252160858892836,18.467719042921118,8.558211263792714,3.153025202449925,4.851302958926178,4.593524866897751,4.504321717785643,21.620744245371057,11.711236466242667,20.143939106994623
93,16,93,0,3.1313131313131275,7.495007287658144,54.00139212182024,5.453418831492115,9.134363494395696,13.754200289702494,15.557915676272444,7.271225108656182,29.21243532350473,20.078326590586002,16.360256494476374,6.362321970074163,12.724643940148297,2.2722578464550622,19.5414174795134,8.634579816529168,3.181160985037053,4.634514839595443,4.634514839595443,4.99896726220112,21.81367532596849,11.815740801566278,19.430129858114178
94,16,94,0,3.164983164983161,8.318903308077008,55.60794971251539,4.684312114007036,5.588046511951352,12.991944244099574,14.813095551380535,8.268022688220327,26.783579200279,21.20912514978816,16.99537997023066,5.512015125480218,12.861368626120509,0.9186691875800364,17.454714564020662,9.186691875800335,2.756007562740109,4.684312114007036,5.588046511951352,5.512015125480218,22.048060501920858,11.024030250960436,17.670954648725566
95,16,95,0,3.198653198653195,2.9315556558046465,40.24888196137377,6.555157726203113,7.474029747065558,9.453982920231718,10.239483701318987,5.863111311609248,17.31852325839288,9.984518783182729,10.660951903874889,6.489275071923856,12.051510847858594,3.7081571839565015,7.416314367912975,1.854078591978265,2.781117887967355,4.992259391591383,5.638959893756677,5.098716127940179,22.248943103738966,12.051510847858623,17.093760006058442
96,16,96,0,3.2323232323232287,1.2299369396748416,39.29066231976825,5.290158806517017,6.957574003807338,8.869201403169857,10.472535675724084,7.875439028946003,19.31040164858478,12.45216245262707,12.610602881900775,9.566664255235082,13.045451257138723,3.478787001903669,7.827270754283262,0.0,1.7393935009518202,5.500445210302039,6.087877253331413,5.653028878093465,21.74241876189788,13.915148007614647,16.728951012591782
97,16,97,0,3.2659932659932625,1.6327210643509602,39.21930581593423,3.3659407027449495,5.714523725228389,9.01699679806132,9.79632638610579,9.796326386105761,20.42533398936577,14.717148790118818,13.87812904698319,12.24540798263223,13.87812904698319,3.2654421287019204,7.347244789579349,0.8163605321755085,0.0,5.772540681943435,6.530884257403841,6.122703991316087,21.22537383656254,15.51085011133415,16.509870019596722
98,16,98,0,3.299663299663296,4.972359282333659,35.235829045350954,4.904704983204226,8.174508305340396,8.174508305340424,8.991959135874481,6.5396066442723395,24.5371453141366,16.369440124715904,13.896664119078707,12.261762458010594,14.714114949612735,6.948332059539325,11.03558621220958,2.861077906869184,2.043627076335099,5.780250255571953,5.722155813738311,5.722155813738311,21.253721593885075,14.714114949612764,16.53191993929881
99,16,99,0,3.33333333333333,0.8032970710906113,36.18405267785581,4.016485355453142,4.819782426543782,8.07303565127158,8.03297071090634,11.2461589952689,20.09848629744703,15.283769128099593,15.262644350722042,14.459347279631402,16.06594142181268,4.016485355453142,4.819782426543782,0.8032970710906397,0.0,5.680168062754807,6.426376568725061,6.02472803317977,20.08242677726585,14.45934727963143,17.836089507524807
100,16,100,0,3.367003367003364,2.560737598657932,38.13694048436761,4.85865798107352,6.528625492373762,8.944271909999147,10.527092292325904,12.146644952683687,21.116383197514246,14.598450400585655,15.790638438488827,17.005302933757207,19.434631924293967,6.0733224763419,2.83421715562622,4.45376981598406,1.21466449526838,5.725983343138682,5.668434311252412,5.66843431125244,20.244408254472916,13.766197613041584,18.107149208503714
101,16,101,0,3.4006734006733974,6.612407565228466,38.62635313789649,5.7411775214415,7.426939086152871,9.87613315972492,9.876133159724949,13.148296753591957,19.837222695685455,12.41139726974937,15.58319612962697,18.04370078167335,20.504205433719733,6.151261630115869,0.41008410867442535,6.9714298474646625,0.4100841086743685,6.763280381807209,5.741177521441529,5.741177521441529,20.50420543371976,13.942859694929439,18.210689746445667
102,16,102,0,3.434343434343431,2.4806946917841515,42.301320421491695,5.847053462046894,8.310224368801926,10.781433867501866,11.606069735308978,12.403473458920814,28.988650888612952,20.688987119580972,19.432108418975986,18.19176107308391,21.499353995462798,7.442084075352568,9.095880536541927,5.684341886080802e-14,1.6537964611894722,6.666666666666657,5.7882876141630675,5.7882876141630675,20.67245576486809,13.230371689515579,18.49000654084095
103,16,103,0,3.468013468013465,1.6537964611894722,41.477004235381806,6.666666666666656,9.13338948139205,9.95717325074237,10.781433867501862,12.403473458920843,29.814239699997184,20.688987119581004,19.845557534273354,18.19176107308394,21.499353995462826,7.442084075352568,9.922778767136606,5.684341886080802e-14,0.826898230594793,5.84705346204684,4.96138938356836,4.96138938356836,20.67245576486806,13.23037168951555,18.490006540840945
104,16,104,0,3.501683501683498,1.1467769256491998,40.74690617662718,6.487149925078597,8.956614111889008,10.572760848620632,11.467769256492168,12.190405934330755,28.485347895247955,19.52890734240979,19.05600290491836,17.028768553331275,21.083237256505384,6.892596795395946,9.32527801730049,0.4054468703173484,0.4054468703173484,5.733884628246086,5.733884628246112,5.676256184443787,22.705024737775062,13.785193590792005,18.132135265885488
105,16,105,0,3.5353535353535324,1.8132135265885705,40.83556535927311,5.6762561844437585,8.956614111889008,10.665641937451648,11.467769256492168,12.190405934330755,28.48534789524798,19.52890734240982,18.65055603460098,16.217874812696493,21.083237256505413,6.487149925078626,9.73072488761784,5.684341886080802e-14,5.684341886080802e-14,5.903395540351272,4.932474061586872,5.270809314126382,21.894130997140223,12.974299850157166,18.132135265885488
106,16,106,0,3.569023569023566,3.366277235118494,39.49420245719158,6.531537226120264,9.017898332462039,9.831265406653772,11.54623566040509,11.459311696464413,30.307494025528598,21.29020659709704,19.59461167836085,15.512400912035702,20.411053831625935,6.531537226120264,12.246632298975555,1.6328843065301157,0.0,5.943788594010281,5.715095072855263,6.123316149487778,22.860380291421023,13.063074452240585,18.25620154396925
107,16,107,0,3.6026936026936,3.335077620911296,40.73391099368763,6.471001082659228,8.934317887572602,9.740146444538567,11.439221866534588,11.353103538597978,30.02659555664483,21.092882911070514,19.413003247977684,15.36862757131567,20.2218783833101,6.471001082659228,12.13312702998607,1.6177502706648,0.0,5.888699871926567,5.662125947326842,5.662125947326842,21.839628653974927,12.942002165318456,18.086997879126
108,16,108,0,3.6363636363636336,6.427828458813508,41.36159026353399,5.681451364413623,8.98316336350919,10.568110428900885,12.07893128633542,10.445221245571958,31.428236061695284,22.511742864942757,19.283485376440524,14.462614032330379,20.08696393379222,6.829567737489327,14.06087475365456,3.6156535080826018,0.4017392786758194,6.625653919759817,5.681451364413626,6.02608918013766,21.69392104849561,12.052178360275349,18.75739578693036
109,16,109,0,3.6700336700336673,6.485601732483661,42.10841350988448,5.688249009506367,8.885328996594657,11.290851897396884,12.173384480792805,9.653278674479054,30.663830446276602,21.77938364146791,18.5021174594182,13.675478122178674,18.5021174594182,6.4355191163193695,14.479918011718581,4.02219944769962,0.804439889539907,5.8564107951712945,5.688249009506367,5.6310792267794625,21.719877017577886,12.871038232638739,19.721086305416424
110,16,110,0,3.703703703703701,7.054539489031868,40.167381422634925,5.542569678714135,9.535797438309407,10.219993512109717,11.861617098304011,9.406052652042519,31.441566925722004,21.961448829742565,18.420186443583248,14.109078978063764,18.028267583081487,6.662620628530107,15.284835559569075,4.311107465519484,1.1757565815053113,4.957425028653586,4.767898719154685,4.703026326021245,21.94745618809918,12.541403536056663,18.449348806093035
111,16,111,0,3.737373737373735,7.097952449486993,41.029992805975404,4.767898719154689,9.438656051889145,11.08513935742826,11.085139357428273,9.40605265204249,30.659980536329105,21.22160109210102,17.636348722579697,13.325241257060213,18.02826758308146,6.270701768028346,14.892916699067285,4.703026326021245,0.7838377210035503,3.2318457170410335,3.2318457170410304,3.1353508840141444,21.16361846709563,11.757565815053141,18.298875845610688
112,16,112,0,3.771043771043769,7.089029268427471,40.896073348745325,4.761904761904777,9.426790258548284,11.071203689887538,11.846705282850229,9.394227846020414,30.62143638439901,21.194922385774856,17.61417721128828,13.308489448528917,17.22275105103742,5.871392403762741,15.265620249783211,4.305687762759391,0.39142616025083043,3.2277828066884133,2.4755964043335044,2.3485569615050963,21.91986497404764,11.742784807525538,18.60818722978996
113,16,113,0,3.8047138047138014,6.311557186738357,41.075508535903914,5.535601844943778,10.20714546146632,10.987855927151335,11.846705282850225,8.64688650308406,30.691405483193467,20.48920600376465,17.22275105103742,12.525637128027228,18.005603371539138,6.654244724264487,15.265620249783154,4.305687762759334,1.1742784807525766,3.227782806688386,3.2277828066883893,2.739983121755955,21.91986497404764,10.95993248702382,18.608187229789923
114,16,114,0,3.838383838383836,7.059884170635959,40.906634961287935,5.512843347130169,9.388033933310677,11.025686694260362,12.571217013638226,8.611336593049554,30.56522403009219,21.179652511907847,17.541760114687065,13.253774308874682,18.711210788999523,7.406520937312308,14.423224983187112,3.5083520229374017,1.1694506743124862,4.1984564099914925,3.97536787233569,3.8981689143749065,21.829745920499448,10.914872960249738,19.287074616560417
115,16,115,0,3.8720538720538697,7.1143629103228125,42.00105518322032,5.555384095729389,9.46047821772985,11.110768191458819,11.889041148299606,9.42779943884679,31.514259805298586,22.054245147569038,18.46277390107494,13.356049205032946,18.85559887769358,6.678024602516473,15.32017408812601,4.321074742804768,1.1784749298558665,5.7196179940751595,4.778922097481999,4.713899719423409,22.783848643879736,10.99909934532127,18.67468620077032
116,16,116,0,3.905723905723904,7.895684311773644,41.33444701567894,5.5553840957294165,9.46047821772985,10.333611753919742,11.889041148299606,8.677787366641502,31.582737247094492,22.124103558657033,18.069948924456355,13.356049205032946,19.641248830930806,7.8564995323723394,14.927349111507397,3.9282497661861555,1.5712999064744793,5.7196179940751595,4.7789220974819715,4.713899719423409,22.783848643879764,10.213449392084044,19.435906451752114
117,16,117,0,3.939393939393937,4.7789220974819715,41.22229763558364,6.33411242293727,9.460478217729879,10.333611753919747,11.248795448822111,9.460478217729879,30.01964256235625,20.562427059562797,18.069948924456327,13.356049205032946,18.85559887769358,6.678024602516473,13.748874181651559,3.535424789567543,0.3928249766186127,5.7196179940751595,5.555384095729389,5.499549672660606,21.99819869064251,10.99909934532127,18.49200368694539
118,16,118,0,3.973063973063971,0.7844645405527615,41.16010017181501,6.324555320336734,9.543423027243573,10.318020084373673,11.871102599298734,11.010484513897177,27.634983403148773,18.11077027627485,17.65045216243658,13.335897189396519,18.82714897326568,5.099019513592793,11.374735838014658,1.1766968108290712,1.1766968108290712,5.710988059467877,5.547001962252298,5.49125178386916,22.749471676029344,10.98250356773832,19.406580961503373
119,16,119,0,4.006734006734004,1.7815154029329476,40.34257265865745,7.170461179057867,8.907577014664817,11.267292719881555,12.187440491158503,11.267292719881526,28.957161497295424,20.06084435402759,19.12122981082095,14.340922358115705,20.714665628389355,6.37374327027365,11.154050722978894,0.7967179087842169,0.7967179087842169,6.80716079661381,6.423345133303685,6.37374327027365,22.308101445957774,10.357332814194677,18.937768500810094
120,16,120,0,4.040404040404038,5.54700196225227,41.16010017181501,5.547001962252302,9.543423027243602,11.094003924504586,11.871102599298725,10.228166239135193,30.844523264019124,21.310885625751137,18.434916702989312,14.120361729949252,19.611613513818412,6.6679485946982595,13.728129459672886,2.7456258919345657,0.39223227027636653,6.702467972551353,6.324555320336763,6.275716324421893,21.180542594923864,10.198039027185558,18.4641023860646
121,16,121,0,4.074074074074072,7.0699901515967865,40.19155595862002,5.520734792451354,8.623663424701931,10.269160324198666,11.041469584902677,9.401472580446624,30.60897709524826,21.986114040605763,18.347620341711803,14.053496431949469,19.518745044374242,7.4171231168622285,13.663121531061961,3.5133741079873744,1.1711247026624676,7.198157507486934,5.520734792451327,5.855623513312253,21.080244647924175,10.93049722484956,18.37666781944693
122,16,122,0,4.1077441077441055,6.392781216486372,40.81841156162663,5.606840031594719,8.86519248802488,11.213680063189452,12.12944953634335,9.548104518996947,30.39093496439454,21.540775981027743,18.23731919389658,14.27268458652776,19.82317303684411,7.532805754000748,13.083294204317127,2.7752442251581897,1.9823173036843968,7.310425003911785,6.343415371790115,6.739878832527012,22.201953801265432,11.100976900632716,18.663283177137274
123,16,123,0,4.141414141414139,7.059884170635955,41.017925549533395,4.742327161826566,9.48465432365316,11.025686694260367,11.797999970613185,9.388033933310705,30.654581705323015,21.179652511907847,17.541760114687065,13.253774308874654,19.490844571874504,7.016704045874803,14.033408091749635,3.8981689143749065,1.5592675657499626,7.18786832162329,6.2370702629998505,6.626887154437355,21.82974592049942,10.91487296024971,18.350399854269472
124,16,124,0,4.175084175084173,6.303257201220906,40.92452352705981,5.52832227608559,8.635515453020984,11.05664455217116,11.831126325175026,8.635515453020984,29.095996582260494,20.4622617635299,17.200102348020977,13.290988178016192,17.98192518202191,7.0364055060085775,13.290988178016192,3.1272913360038217,1.5636456680018966,7.208050375798505,6.3032572012209345,6.6454940890081104,21.891039352026667,11.727342510014282,19.166622373358702
125,16,125,0,4.208754208754207,6.294606138842808,40.19155595862002,5.520734792451354,9.498231279549088,11.041469584902691,11.814888401102609,8.623663424701931,29.92421597327758,20.434177822598684,17.176495639049364,13.272746630174481,18.737995242599283,7.4171231168622,13.66312153106199,3.5133741079873744,1.9518745044373986,6.438227799796504,6.294606138842812,6.245998414199761,21.860994449699163,10.930497224849589,18.37666781944693
126,16,126,0,4.24242424242424,7.15332417844124,39.88282369122104,4.805093501373544,9.512287808133948,11.171615469558908,12.737601417048435,9.512287808133975,30.969765337415836,21.45997253532375,17.773931374500734,14.219145099600581,19.74881263833413,7.504548802566944,13.824168846833885,3.5547862749001524,1.974881263833396,7.283002243914756,6.319620044266912,6.319620044266912,21.32871764940083,11.84928758300046,18.593273740606723
127,16,127,0,4.276094276094274,10.23225996202838,39.434632317633906,4.708671088596276,9.547242688404046,10.32214977038428,11.875853891303771,8.668162014123046,33.10984181001721,23.59561600771462,18.44229509700216,15.695570295320977,19.61946286915122,9.02495291980955,15.303181037937975,4.316281831213274,3.531503316447214,5.713273826243182,3.923892573830244,3.923892573830244,21.973798413449387,11.771677721490747,19.239081777992453
128,16,128,0,4.309764309764308,8.668162014123046,39.36429003769571,4.708671088596304,10.232259962028383,11.014891351981928,12.65417332274161,8.668162014123043,32.2619383505224,22.029782703963853,17.657516582236127,14.910791780554945,18.049905839619157,7.847785147660517,15.695570295320977,3.9238925738302157,3.1391140590642124,3.2357247090957566,2.4816875654248056,2.7467248016811823,21.973798413449387,11.771677721490747,19.23908177799248
129,16,129,0,4.343434343434342,10.242572850160741,38.807092652331434,4.017467602489659,10.363077852702123,10.363077852702157,11.92294252462828,8.666792411674464,33.17569861672177,22.862396636431473,17.727529932970526,14.969914165619542,18.909365261835205,8.272847302052924,16.15174949448422,5.1212864250803705,3.545505986594094,2.491527638977716,2.4915276389777428,2.757615767350984,22.848816358050883,11.818353288647018,20.256594713813932
130,16,130,0,4.377104377104375,9.394227846020414,38.55895376387102,4.761904761904749,9.523809523809522,10.98785592715135,11.846705282850243,8.611375525518724,32.18275325633557,22.71621073841199,18.00560337153911,14.874194089532324,18.788455692040827,8.219949365267837,15.265620249783183,4.305687762759362,3.5228354422576444,3.227782806688386,2.8226141826848488,2.3485569615050963,22.702717294549345,11.742784807525524,19.366696840130423
131,16,131,0,4.410774410774409,7.951296395595762,37.506190085719965,4.054381547950249,10.458297560366214,10.36722211732938,11.953419530727905,9.541555674714914,31.894512227390752,21.48321984492739,17.492852070310647,15.902592791191495,19.0831113494298,7.951296395595733,14.312333512072343,3.1805185582383046,3.1805185582383046,4.0543815479502765,4.0543815479502765,3.5780833780180785,22.263629907668104,11.926944593393628,18.715129003381204
132,16,132,0,4.444444444444443,6.352408168042842,36.04851711764068,4.830023797716411,9.660047595432854,9.660047595432854,11.229577231219762,9.52861225206425,30.267825092222385,20.66059111498701,17.46912246211778,15.086969399101747,19.85127552513387,7.94051021005356,12.704816336085685,2.3821530630160623,2.3821530630160623,5.022019609518246,4.830023797716411,4.367280615529438,23.027479609155307,11.116714294074981,18.87437730197211
133,16,133,0,4.478114478114477,6.433357829627103,36.340040389331556,4.853800160174077,9.707600320348178,8.921462126203142,10.404123297914962,9.575517970982446,30.490002327995295,20.808246595829953,17.555116280134456,14.36327695647364,19.948995772880068,7.580618393694408,13.166337210100835,2.7928594082032134,1.9948995772880096,5.046741094029755,4.853800160174105,4.388779070033621,23.14083509654087,11.171437632812825,18.96728865286585
134,16,134,0,4.51178451178451,5.614788615609897,36.741488106738466,5.614788615609865,10.353158651983437,9.561640469822558,10.444110548295578,9.528612252064278,31.05947595595037,20.706317303966934,17.866147972620496,15.086969399101747,19.057224504128527,7.543484699550845,13.895892867593716,2.779178573518749,1.9851275525133758,5.780778690614378,5.61478861560987,5.161331636534811,23.027479609155293,11.910765315080326,18.87437730197214
135,16,135,0,4.545454545454544,5.602151639423653,37.125982330669245,4.868079725905009,10.526400064386015,9.736159451810014,11.318055467062283,10.4039959017868,31.304194664606285,20.823376642498776,18.006915983861774,15.205840164149947,20.007684426513066,7.202766393544692,13.60522541002888,2.4009221311815736,1.6006147541210396,6.094959398642006,5.659027733531143,5.602151639423653,22.408606557694625,12.00461065590784,18.249816076999142
136,16,136,0,4.579124579124578,5.659027733531143,36.33254465791536,5.65902773353114,9.636976972979467,9.636976972979467,10.434731554868769,9.636976972979467,30.57970194025997,20.946048552831687,18.006915983861745,15.205840164149919,20.007684426513038,8.003073770605226,12.804918032968345,1.6006147541210396,2.4009221311815736,5.06158827949288,5.659027733531143,5.201997950893372,23.208913934755145,11.204303278847306,18.249816076999142
137,16,137,0,4.612794612794612,5.563459910038692,35.96078642365872,5.563459910038724,9.474230833939147,9.571738351260928,10.348633636877056,9.441504550194878,29.99112575609436,20.517026390787414,17.70282103161543,14.162256825292332,20.456593192088917,7.867920458495746,12.5886727335932,1.5735840916991606,2.3603761375487124,5.727932553796736,4.785869175630473,4.720752275097453,22.81696932963763,10.228296596044459,20.426309543816163
138,16,138,0,4.646464646464645,6.392781216486401,37.67863248736044,4.823186167205334,10.338502187243394,9.646372334410668,11.213680063189438,9.515123057685173,31.01550656173021,20.677004374486817,17.444392272422846,14.27268458652776,19.82317303684414,7.532805754000776,13.876221125790892,2.7752442251581897,1.9823173036844253,5.772595122497909,5.606840031594733,5.154024989579483,22.994880722739182,11.100976900632702,18.081515795278005
139,16,139,0,4.680134680134679,6.4197518633304185,39.52516151370738,4.881228261009821,10.55483155042711,11.348625190239794,12.063754054632259,10.462915447056968,32.25885387246492,21.72602336926429,18.456786607074974,16.049379658326046,20.061724572907565,7.623455337704883,14.043207201035301,2.8086414402070545,2.0061724572907735,5.674312595119897,5.617282880414123,5.617282880414109,22.469131521656507,12.037034743744556,19.074469972364643
140,16,140,0,4.713804713804713,6.270701768028346,38.607489115168214,5.542569678714139,9.535797438309404,9.438656051889172,11.001686682277462,9.438656051889145,30.73003770739889,21.221601092101025,18.02826758308146,14.892916699067285,18.81210530408501,7.446458349533657,13.717160117562003,3.527269744515934,1.9595943025088616,6.463691434082071,5.542569678714139,5.486864047024795,21.16361846709563,11.757565815053127,17.68418504172092
141,16,141,0,4.7474747474747465,6.319620044266941,38.996779738245024,4.805093501373544,9.610187002747088,11.087511773012581,11.171615469558908,10.269382571933733,30.899161644413823,21.34334138622306,18.168907627267373,15.009097605133917,19.74881263833413,7.109572549800305,13.429192594067189,2.369857516600092,2.3698575166001206,6.514115239070759,4.805093501373544,5.134691285966866,22.118670154934193,11.84928758300046,18.776956701343227
142,16,142,0,4.78114478114478,7.218483261992999,39.26308550933742,5.636688430776893,10.393539915891209,10.393539915891237,11.188507070859679,9.565777470811469,32.77044809792981,22.377014141719414,18.732980880339113,15.942962451352429,19.92870306419053,8.370055286959996,14.747240267501013,3.5871665515543327,2.790018428986656,5.803325930325947,4.848862731051906,4.782888735405734,21.522999309325783,11.957221838514329,17.984481388696185
143,16,143,0,4.814814814814814,8.757784135354115,39.141717342384915,4.8428655624520305,9.685731124904061,11.174668905704987,11.968942229508265,9.553946329477242,32.72991696449967,23.10242648583626,18.709811561892906,16.71940607658516,19.904054853077582,8.757784135354115,14.330919494215863,3.1846487764924234,3.184648776492395,5.796148262906878,5.6297168638880635,5.57313535886172,21.496379241323766,12.738595105969637,18.73943245139526
144,16,144,0,4.848484848484848,8.668162014123016,39.364290037695724,4.773621344202018,8.668162014123043,11.098444190411593,11.79780800385731,9.41734217719258,31.479304367101165,22.81263538187669,18.44229509700216,16.48034881008701,19.61946286915122,8.63256366242652,13.341234751022853,3.1391140590642124,3.139114059064184,5.549222095205811,4.773621344202009,5.49344960336235,21.189019898683327,12.556456236256778,18.471492461359933
145,16,145,0,4.8821548821548815,7.966563277296862,38.97163697002815,4.756216043442947,9.545404220714559,11.210508723689196,11.210508723689168,9.545404220714559,31.797160950535556,22.252224451164633,18.23216149986459,16.646756152050273,19.817566847678904,8.719729412978722,13.475945456421641,3.170810695628603,3.1708106956286315,6.3909732748049475,5.6052543618445965,5.548918717350091,21.40297219549322,12.683242782514498,19.433344927236618
146,16,146,0,4.915824915824915,7.943014707895372,39.841959081727296,4.831547224279376,9.564656284586032,10.32591912026399,11.940969424156638,9.531617649474441,31.81174911417901,22.25462061688003,18.268933828159362,16.680330886580293,19.85753676973843,8.737316178684921,13.503125003422127,3.1772058831581376,3.971507353947686,6.403863187357886,5.6165595630173115,5.560110295526755,20.65183824052798,13.503125003422142,17.76112083313471
147,16,147,0,4.949494949494949,8.150579149789394,39.199117123126356,5.763329787413733,9.814596970412115,10.627055039420291,11.439882986274503,9.780694979747267,33.457109812970025,23.65072808215813,19.561389959494505,17.931274129536632,20.376447874473456,9.373166022257777,14.263513512131397,3.6677606174052073,3.6677606174052357,6.571206990351006,6.5712069903510075,6.112934362342031,21.19150578945238,13.855984554641935,18.09722261982534
148,16,148,0,4.983164983164983,7.22431461451427,38.56310934120659,5.618911366844429,10.465948713529357,10.435121109853952,11.266454175592335,9.632419486019046,32.92055416602123,22.475645467377745,18.863488160120625,17.65943572436825,19.264838972038064,8.829717862184111,14.44862922902854,3.210806495339682,3.210806495339682,6.471587386334916,5.618911366844429,5.618911366844429,20.067540595872984,13.645927605193634,18.739258091355524
149,16,149,0,5.016835016835016,7.22431461451427,38.56310934120659,5.618911366844429,10.465948713529357,10.435121109853952,11.266454175592335,9.632419486019046,32.92055416602123,22.475645467377745,18.863488160120625,17.65943572436825,19.264838972038064,8.829717862184111,14.44862922902854,3.210806495339682,3.210806495339682,6.471587386334916,5.618911366844429,5.618911366844429,20.067540595872984,13.645927605193634,18.739258091355524
150,16,150,0,5.05050505050505,1.593840551082053,38.28536383804996,6.375362204328297,10.390569154123748,10.359963582033458,11.185309085446612,11.156883857574485,29.496817422032276,19.126086612984835,18.32916633744381,17.532246061902782,19.126086612984835,7.172282479869324,11.156883857574485,0.0,1.5938405510820814,5.6350773090011765,5.578441928787228,5.97690206655777,19.92300688852586,14.34456495973862,18.60429115647185
151,16,151,0,5.084175084175084,1.136033612550947,38.566626182420144,6.426376568725061,10.44286192417826,10.442861924178231,12.076202949584394,11.246158995268871,28.929849311677383,18.49328736985609,18.074184099539252,17.672535563993932,18.475832635084572,6.828025104270381,10.84451045972358,0.4016485355453199,0.4016485355453199,6.476388035585997,5.680168062754802,6.02472803317977,20.082426777265866,14.45934727963143,18.753158947505906
152,16,152,0,5.117845117845118,2.523290214316735,39.13134214555928,6.383475419884263,9.57521312982638,10.37314755731191,11.19954338630075,10.37314755731191,28.73671967509448,19.167042684696163,17.953524618424467,16.756622977196173,18.35249183216723,7.1814098473697925,11.17108198479744,0.7979344274855293,0.7979344274855293,6.433153020629404,5.58554099239872,5.58554099239872,19.15042625965276,14.36281969473957,18.507951010440458
153,16,153,0,5.151515151515151,3.9896721374276467,38.30916343456429,6.383475419884263,9.608402876241513,10.373147557311924,11.171081984797453,9.57521312982638,29.53435474623288,19.94836068713829,17.953524618424467,17.554557404681702,18.35249183216723,8.378311488598086,11.570049198540204,1.196901641228294,2.7927704961993527,5.642248446172246,5.58554099239872,5.58554099239872,19.948360687138276,15.1607541222251,18.507951010440454
154,16,154,0,5.185185185185185,5.633449324821925,38.63774899846513,5.633449324821953,10.493027539418971,10.462120174669309,11.295604170434151,9.657341699694769,31.39667650145135,20.924240349338646,18.107515686927684,18.50990492441497,19.314683399389537,9.254952462207484,12.474066362105702,2.0119461874363935,3.621503137385531,5.690643170074814,5.633449324821925,5.633449324821925,19.314683399389523,14.486012549542139,17.8689820117072
155,16,155,0,5.218855218855219,7.181409847369764,39.13134214555928,5.585540992398734,9.608402876241513,10.403792077715352,11.99558473889731,9.57521312982638,31.92734972178598,22.34216396959488,18.751459045909996,17.554557404681702,19.15042625965276,8.777278702340851,13.564885267254027,3.1917377099421174,3.1917377099421174,6.43315302062939,5.58554099239872,5.58554099239872,19.150426259652747,14.362819694739557,18.507951010440454
156,16,156,0,5.252525252525253,7.128503233062958,38.026933597063575,5.544391403493421,10.327145649439764,9.504670977417291,11.117034528716378,9.504670977417305,32.48395028854723,22.177565613973684,18.61331399744222,18.217286040049828,19.009341954834582,9.108643020024914,13.860978508733524,2.772195701746682,3.564251616531493,6.385758936059236,6.336447318278189,5.940419360885798,19.009341954834596,14.257006466125944,19.157276808177727
157,16,157,0,5.286195286195286,7.2465271400562585,38.656531021286376,5.636187775599325,10.467205868970183,9.662036186741688,11.27237555119865,9.662036186741688,33.011956971367454,22.54475110239727,18.921487532369127,17.71373300902644,18.518902691254908,8.454281663399001,14.895639121226765,3.623263570028115,3.6232635700281435,6.491485509241608,5.636187775599325,5.636187775599325,19.32407237348339,15.298223962341012,17.786779640614895
158,16,158,0,5.31986531986532,7.252171219946149,39.48404330859577,5.640577615513678,10.47535842881112,11.281155231027356,11.281155231027356,9.669561626594884,33.03766889086583,22.56231046205471,18.936224852081637,18.533326450973533,18.533326450973533,8.863764824378649,14.504342439892298,3.2231872088649425,4.0289840110812065,6.496541512222082,5.640577615513678,5.640577615513678,18.533326450973533,15.310139242108562,19.406156810350467
159,16,159,0,5.353535353535354,8.120425618901578,40.60212809450799,5.684297933231136,10.556553304572077,10.556553304572077,12.180638428352381,8.969303257398431,33.30364652322845,22.75168787193797,18.676978923473683,17.864936361583517,17.864936361583517,8.932468180791773,15.428808675913018,4.060212809450803,4.060212809450803,6.546896436547139,5.684297933231136,5.684297933231136,18.676978923473698,14.616766114022894,19.64068930964142
160,16,160,0,5.387205387205388,8.060323502739493,39.4955851634236,5.642226451917679,9.672388203287426,11.28445290383533,12.090485254109268,9.705914779390008,33.0571545625976,23.388831138759823,19.344776406574823,18.538744056300885,18.538744056300885,8.866355853013488,14.50858230493111,4.0301617513697465,4.030161751369775,5.699509407344421,5.699509407344405,5.642226451917651,18.53874405630087,15.314614655205062,17.805836600615446
161,16,161,0,5.420875420875421,8.86635585301346,41.1076498639715,5.642226451917679,9.672388203287397,10.478420553561364,12.090485254109268,8.902918300307725,33.0571545625976,23.38883113875985,18.941760231437883,17.732711706026947,17.732711706026947,8.866355853013488,15.314614655205048,4.8361941016436845,3.2241294010958086,6.498440561375448,5.642226451917651,6.04524262705462,18.53874405630087,15.314614655205062,18.608701829622184
162,16,162,0,5.454545454545455,7.3132070727558585,40.628928181976974,5.688049945476791,9.750942763674459,11.376099890953554,12.188678454593088,9.784741626764694,32.51329819105532,22.766705489330256,19.09559624552918,17.87672840006988,17.87672840006988,8.12578563639542,14.626414145511689,4.062892818197696,3.2503142545581625,5.745798125963443,5.688049945476791,5.688049945476791,18.689306963709413,15.438992709151265,18.84761921523606
163,16,163,0,5.488215488215489,8.125785636395392,41.44150674561652,4.875471381837258,8.938364200034925,10.563521327313993,11.405083631917828,10.594728252989977,32.51329819105532,23.578784158578458,19.501885527348946,17.87672840006985,17.87672840006985,7.3132070727558585,14.626414145511717,4.875471381837258,2.4377356909186005,6.551217820804194,5.688049945476791,5.688049945476791,18.689306963709413,15.438992709151265,18.84761921523606
164,16,164,0,5.5218855218855225,7.428888880442088,42.930405200422705,5.778024684788278,9.905185173922774,11.585491581293141,13.206913565230366,9.905185173922774,33.017283913075914,23.11209873915314,19.397654298932082,16.508641956537957,17.334074054364862,7.016172831528621,16.09592590762452,5.36530863587484,1.2381481467403432,6.654846326399233,5.778024684788278,5.778024684788278,18.984938250018644,14.857777760884161,18.234391031344654
165,16,165,0,5.555555555555556,7.243006274771062,42.683617369077844,5.633449324821953,8.889068794955431,10.493027539418971,11.295604170434151,9.690816121382442,31.386360524007955,22.54816376380063,18.912294161902253,16.095569499491262,17.7051264494404,7.243006274771062,14.486012549542124,4.828670849847384,1.6095569499491091,6.488331495527551,5.633449324821953,5.633449324821953,18.509904924414954,14.486012549542139,17.778137589910916
166,16,166,0,5.58922558922559,7.301645444437497,43.83991029282547,5.679057567895796,8.924233320979141,10.546821197520813,12.19642222400277,9.735527259249977,31.640463592562412,22.71623027158327,19.065407549364522,15.414584827145774,17.037172703687446,6.490351506166633,15.414584827145802,5.679057567895825,1.622587876541644,6.54086083997165,6.540860839971634,6.490351506166633,18.65976058022912,14.603290888874966,18.73017502130112
167,16,167,0,5.622895622895624,8.055091903887103,43.5049540600903,4.833055142332256,8.897139810505525,11.27712866544195,12.082637855830654,9.699615100152053,31.41485842515968,22.568636839728036,18.52671137894032,15.304674617385473,16.110183807774206,6.041318927915341,15.707429212579825,6.041318927915313,1.2082637855830853,6.494222711537081,5.69581010831943,5.638564332720975,18.52671137894032,14.499165426996768,17.794279621011054
168,16,168,0,5.6565656565656575,7.30838305701144,43.85781661016368,5.684297933231107,8.96930325739846,11.368595866462243,12.20767650474801,9.778287311005178,31.66965991371626,22.751687871938003,19.083000204418767,15.428808675913046,16.240851237803213,6.090319214176191,15.83482995685813,6.090319214176191,1.2180638428352495,6.546896436547153,6.546896436547138,6.496340495121274,18.676978923473683,15.428808675913046,17.93860651479689
169,16,169,0,5.690235690235691,8.120425618901606,44.66234090395881,5.684297933231136,8.932468180791744,11.397560488861798,12.18063842835241,9.74451074268191,32.4817024756064,23.549234294814653,19.48902148536385,16.240851237803213,16.240851237803213,6.496340495121302,16.240851237803184,6.496340495121274,0.8120425618901663,7.353358146475188,6.496340495121274,6.902361776066357,17.86493636158353,14.61676611402288,18.74745833965673
170,16,170,0,5.723905723905725,9.595088571655253,43.18530155554163,5.597135000132226,8.795497857350654,10.425387415744586,12.79345142887368,9.595088571655282,33.582810000793415,24.78731214344276,19.989767857615135,15.991814286092108,16.791405000396708,6.796521071589126,17.191200357549008,7.596111785893754,1.1993860714568996,6.593593944681921,6.39672571443684,6.39672571443684,18.39058642900592,15.192223571787494,18.459985114954584
171,16,171,0,5.757575757575759,9.74451074268191,44.66972249906812,4.8722553713409695,8.932468180791744,10.556553304572077,12.207676504748008,9.74451074268191,33.293745037496535,24.36127685670479,19.48902148536385,15.428808675913018,16.240851237803184,6.090319214176191,17.458915080638434,7.714404337956523,1.218063842835221,6.546896436547139,5.742008021246305,5.684297933231136,17.864936361583517,14.616766114022866,18.83518674738242
172,16,172,0,5.791245791245792,9.666110284664512,43.49749628099035,5.638564332720961,8.860601094275808,11.27712866544195,12.109458394616691,8.897139810505525,33.03569862825265,24.178697137695554,19.332220569329024,16.110183807774177,16.110183807774177,7.24958271349837,16.91569299816291,7.249582713498398,1.6110183807774092,6.494222711537081,5.638564332720961,5.638564332720961,17.72120218855163,14.499165426996782,18.596623745770614
173,16,173,0,5.824915824915826,8.120425618901606,43.85029834206864,5.684297933231107,9.74451074268191,11.397560488861794,12.18063842835241,10.5877396452025,34.11545340306649,24.37480714203379,20.301064047253988,17.864936361583517,17.864936361583517,7.30838305701144,16.240851237803184,6.496340495121274,1.6240851237803327,6.546896436547139,5.684297933231136,6.090319214176191,18.676978923473683,15.428808675913032,17.93860651479689
174,16,174,0,5.85858585858586,8.120425618901606,41.422131092926534,5.684297933231107,9.74451074268191,10.556553304572105,12.20767650474798,9.74451074268191,33.293745037496535,23.549234294814624,19.48902148536382,17.864936361583517,18.676978923473655,8.52644689984669,15.022787394967935,5.278276652286024,3.65419152850572,6.54689643654717,5.7420080212462725,5.684297933231107,18.676978923473683,15.428808675913032,17.93860651479689
175,16,175,0,5.892255892255894,8.047784749745631,38.63774899846514,6.438227799796522,9.65734169969474,10.462120174669309,11.266898649643878,9.65734169969474,33.80069594893163,24.143354249236893,20.119461874364077,18.50990492441494,19.31468339938951,9.254952462207484,14.888401787029409,4.4262816123601,3.621503137385531,6.438227799796493,6.438227799796522,6.035838562309237,18.50990492441494,14.486012549542124,18.579753870436797
176,16,176,0,5.925925925925927,8.051696822284725,37.04655619311804,5.636187775599325,10.467205868970183,9.662036186741716,11.30109502590085,10.467205868970183,34.622296335824416,24.155090466854233,20.12924205571187,19.324072373483403,20.12924205571187,9.259451345627468,14.895639121226765,3.623263570028115,3.6232635700281435,6.491485509241596,6.441357457827792,6.038772616713544,19.324072373483403,15.298223962341027,17.87766822238549
177,16,177,0,5.959595959595961,8.095267175076325,37.06217725835909,6.444073523109665,10.502554902789848,9.666110284664512,11.277128665441921,10.471619475053245,35.44240437710326,24.983773607688843,20.943238950106462,20.137729759717757,20.943238950106462,10.068864879858864,14.901920022191149,3.624791356749199,3.624791356749199,6.494222711537084,6.444073523109665,6.041318927915313,18.52671137894032,15.304674617385473,18.544214180556626
178,16,178,0,5.993265993265995,6.494222711537081,35.44240437710323,6.444073523109665,10.50255490278982,8.860601094275808,10.471619475053217,11.27712866544195,34.636895186714526,24.178697137695583,20.943238950106462,20.943238950106462,20.943238950106462,9.666110284664512,13.693656236608064,2.4165275711661423,4.0275459519435515,6.494222711537081,6.444073523109665,6.444073523109665,19.332220569329053,16.110183807774206,17.794279621011054
179,16,179,0,6.026936026936029,3.27593845404823,35.216338381018474,6.55187690809646,10.646799975656762,9.008830748632647,10.646799975656734,12.312038424253936,32.76962024907155,22.127745749030336,20.474615337801424,20.474615337801424,20.474615337801424,8.189846135120575,12.284769202680877,0.8189846135120717,2.4569538405361584,6.602865046024879,6.55187690809646,6.55187690809646,18.83664611077735,15.560707656729107,18.09196144752451
180,16,180,0,6.060606060606062,2.4370116946244025,35.752068101002855,6.498697852331702,8.935709546956076,8.935709546956076,9.748046778497553,12.185058473121956,30.056477567034136,21.12076802007806,19.90226217276586,19.496093556995135,20.308430788536583,7.717203699643903,10.154215394268277,0.4061686157707243,2.03084307885365,6.549272139226551,5.6863606207902535,5.6863606207902535,18.683756325453672,16.246744630829284,17.136272672260436
181,16,181,0,6.094276094276096,1.6384638410380887,36.04620450283777,6.5538553641523265,9.011551125709445,9.011551125709445,9.830783046228476,12.288478807785594,29.492349138685455,20.48079801297601,19.66156609245695,19.66156609245698,19.66156609245698,7.373087284671385,9.830783046228476,0.0,1.6384638410380887,6.604858898858139,5.734623443633268,5.734623443633268,18.023102251418877,16.384638410380802,18.041711551421557
182,16,182,0,6.12794612794613,2.4180970508218422,35.46542341205385,6.448258802191617,8.86635585301346,8.060323502739521,9.672388203287397,11.31320314891259,29.02835734493997,20.16692296074892,18.941760231437883,20.15080875684879,20.15080875684879,8.86635585301346,8.86635585301346,0.8060323502739379,2.4180970508218422,6.498440561375434,5.642226451917651,6.04524262705462,17.73271170602692,15.314614655205062,18.556258225588465
183,16,183,0,6.161616161616164,3.197443067909745,35.171873747007,5.595525368842004,8.79296843675175,8.79296843675175,8.79296843675175,12.017027323215205,29.587148578772577,20.798746583025622,19.18465840745833,19.984019174435787,19.984019174435787,7.99360766977432,9.592329203729179,0.0,2.398082300932316,6.444652537249678,5.595525368842033,5.995205752330747,18.385297640480914,15.987215339548627,18.402666843826097
184,16,184,0,6.195286195286197,2.4173904066487353,35.46421489722753,7.252171219946149,9.669561626594856,8.863764824378649,9.669561626594884,11.309897074376838,30.630879238726894,20.966207223404012,19.742021654297872,20.144920055406004,20.95071685762224,9.26666322548678,10.07246002770296,0.402898401108132,2.0144920055406317,6.496541512222068,5.640577615513678,6.04347601662181,18.533326450973533,16.115936044324812,18.603263780428485
185,16,185,0,6.228956228956231,2.4370116946244025,36.56420027456305,7.311035083873179,9.748046778497553,8.935709546956105,9.78183560348082,11.372721241580479,30.868814798575613,21.12076802007806,19.90226217276586,21.12076802007806,21.93310525161951,10.154215394268306,9.341878162726829,0.4061686157707243,2.8431803103951268,6.549272139226551,6.498697852331702,6.498697852331702,18.683756325453658,16.24674463082927,17.945115980155787
186,16,186,0,6.262626262626265,2.4350841870505064,37.346779261426796,7.305252561151548,9.740336748202054,8.928642019185219,10.58320445939376,12.17542093525256,31.65609443165667,21.915757683454615,20.69821558992936,21.10406295443778,21.915757683454615,9.334489383693636,10.146184112710472,0.40584736450841774,2.840931551558924,6.493557832134698,5.681863103117863,6.08771046762628,17.857284038370423,15.422199851319917,18.7394279941948
187,16,187,0,6.2962962962962985,3.995399947366508,38.36416234162023,7.191719905259731,10.388039863152954,9.588959873679642,10.388039863152954,10.388039863152954,31.963199578932148,21.575159715779193,19.577459742095925,20.77607972630588,21.575159715779193,10.787579857889597,10.787579857889597,0.3995399947366707,3.5958599526298656,7.235977060859555,5.5935599263131195,5.99309992104979,18.378839757885984,15.981599789466074,18.44819411661634
188,16,188,0,6.329966329966332,5.638564332720961,37.05342275788067,7.249582713498398,10.471619475053245,9.699615100152053,11.277128665441921,10.471619475053217,33.83138599632582,23.359766521272576,20.54048435491211,21.748748140495167,21.748748140495167,11.27712866544195,12.082637855830654,0.8055091903887046,4.833055142332256,5.695810108319432,4.833055142332256,5.235809737526608,17.72120218855163,15.304674617385487,17.794279621011054
189,16,189,0,6.363636363636366,7.191719905259731,36.76636414188625,6.392639915786447,10.388039863152954,8.789879884206357,10.418728378647344,10.418728378647344,34.36972991917181,23.98571398663311,20.376539731569267,22.374239705252506,21.575159715779222,11.58665984736291,12.385739836836223,1.9976999736832681,5.194019931576463,4.860613818679294,4.074524459245892,3.995399947366508,18.378839757886,15.981599789466088,17.597911306307857
190,16,190,0,6.3973063973064,8.055091903887075,35.45155670892192,6.444073523109694,10.471619475053245,9.666110284664512,11.277128665441921,9.666110284664512,34.636895186714526,24.16527571166128,20.13772975971773,22.55425733088387,21.748748140495167,12.485392451025007,12.485392451025007,2.0137729759717615,6.041318927915313,2.4165275711661423,3.3211994743784228,2.8192821663604946,18.526711378940334,16.110183807774206,17.739499769253
191,16,191,0,6.4309764309764335,8.860601094275808,36.25686256492923,6.444073523109694,9.666110284664512,9.666110284664512,11.277128665441921,9.666110284664512,34.636895186714526,24.970784902050013,20.54048435491211,22.55425733088387,21.748748140495167,12.485392451025007,12.485392451025007,2.01377297597179,6.041318927915313,4.107307080170359,3.3211994743784228,3.222036761554847,18.526711378940334,16.11018380777419,18.544214180556626
192,16,192,0,6.464646464646467,8.123372315414656,36.56420027456307,7.311035083873151,10.560384010039002,9.781835603480818,11.401696374506919,9.748046778497581,35.74283818782439,25.182454177785388,21.12076802007806,22.745442483160986,21.93310525161951,12.59122708889268,13.403564320434128,2.8431803103951268,6.092529236560978,4.941254473986599,4.0616861577073,4.0616861577073,17.871419093912195,16.24674463082927,18.701407492664234
193,16,193,0,6.498316498316501,8.866355853013488,35.47458168810376,7.254291152465555,10.478420553561364,9.672388203287426,10.478420553561364,8.902918300307723,35.47458168810376,25.00000000000001,20.55382493198576,22.56890580767063,21.762873457396694,13.299533779520203,13.299533779520203,2.0150808756848733,6.045242627054648,4.902903378454592,4.836194101643699,4.836194101643713,17.732711706026933,15.314614655205077,17.80583660061548
194,16,194,0,6.531986531986535,7.99360766977432,34.38180661626265,7.194246902796891,11.191050737684037,9.592329203729179,10.391689970706608,9.592329203729179,35.97123451398443,24.78018377630039,20.783379941413216,22.382101475368074,21.582740708390645,12.390091888150181,13.988813422105068,1.9984019174436014,5.19584498535329,5.595525368842004,4.796164601864575,5.19584498535329,16.786576106526056,15.187854572571197,18.402666843826097
195,16,195,0,6.565656565656568,8.123372315414656,34.93994546124294,6.498697852331702,10.591581667401515,9.748046778497553,10.560384010039002,10.56038401003903,35.752068101002855,25.182454177785388,21.12076802007806,22.745442483160986,21.933105251619537,11.778889857351231,13.403564320434128,2.03084307885365,5.280192005019529,6.549272139226551,5.6863606207902535,5.6863606207902535,17.871419093912195,16.24674463082927,18.754261316829393
196,16,196,0,6.599326599326602,6.55187690809646,35.22586017066956,7.416221097560317,11.465784589168805,9.008830748632619,10.678252924463548,10.646799975656734,36.04462843638856,24.583184359429808,21.293599951313496,22.93156917833761,22.11258456482554,11.875276895924856,13.513246122948942,2.0474615337801367,4.5044153743163236,6.602865046024879,6.55187690809646,6.142384601340439,18.836646110777338,16.379692270241165,18.09196144752451
197,16,197,0,6.632996632996636,6.494222711537053,34.646260306579244,7.249582713498398,11.27712866544195,9.666110284664512,10.471619475053217,10.471619475053217,35.45155670892192,24.178697137695554,20.943238950106462,22.55425733088387,21.748748140495167,11.679883260636302,13.290901641413711,2.0137729759717615,4.430300547137904,6.49422271153707,5.638564332720961,5.638564332720961,17.721202188551615,15.304674617385487,19.399230200304135
198,16,198,0,6.66666666666667,5.6863606207902535,34.12783303589626,7.311035083873151,11.372721241580479,8.935709546956105,10.591581667401515,10.591581667401543,34.93994546124292,23.571781368072163,20.714599404307307,22.745442483160986,21.93310525161951,11.778889857351231,12.591227088892651,1.2185058473121728,4.467854773478081,7.35602649365627,6.498697852331716,6.498697852331716,18.683756325453658,16.24674463082927,18.701407492664234
199,16,199,0,6.700336700336703,4.979852167880196,34.394416281042965,7.368143879969011,11.461557146618475,9.042645464537394,10.64287449328856,11.461557146618475,35.2128723721461,23.75590797125788,21.285748986577175,23.741796946566836,22.92311429323695,11.870898473283432,11.870898473283404,0.4093413266649293,5.321437246644308,6.600430565206527,5.730778573309237,6.140119899974195,18.8297010265875,15.554970413267938,18.90075675464144
200,16,200,0,6.734006734006737,4.904704983204255,35.15988967033984,6.539606644272311,11.444311627476594,9.02903953704805,10.626860796942566,12.26176245801065,35.15038571296381,23.706074085487217,21.253721593885075,23.706074085487217,22.88862325495319,11.035586212209552,11.853037042743608,0.4087254152670141,4.4959795679372405,6.590499292326155,6.5396066442723395,6.5396066442723395,18.801369102282976,15.531565780146806,18.872317917035087
201,16,201,0,6.767676767676771,5.016124967600134,35.45977218943494,6.597166918964632,11.545042108188113,9.071104513576387,10.720396243317538,11.545042108188142,34.644942146307294,23.10480534265104,20.6161466217645,22.26543835150568,22.26543835150568,10.720396243317538,12.369687973058689,0.8246458648705755,4.123229324352906,7.467485908975542,5.772521054094071,6.184843986529344,19.79150075689391,15.668271432541019,19.03842818367269
202,16,202,0,6.801346801346805,4.979852167880192,35.2128723721461,7.368143879969011,10.642874493288588,9.8241918399587,10.642874493288588,11.461557146618475,34.39441628104295,23.75590797125788,21.285748986577175,22.92311429323695,22.104431639907034,11.052215819953517,11.870898473283432,0.4093413266649577,3.6840719399845057,6.600430565206525,6.5494612266391385,6.5494612266391385,18.829701026587486,15.554970413267924,18.085290929074816
203,16,203,0,6.835016835016838,3.995399947366508,35.159519536825385,7.191719905259731,10.388039863152954,9.588959873679642,10.388039863152954,11.187119852626267,32.76227956840546,22.374239705252506,20.376539731569267,21.575159715779222,21.575159715779222,10.388039863152954,11.187119852626239,0.7990799894732845,3.1963199578932233,6.44238883664147,5.593559926313134,5.99309992104979,18.378839757885984,15.182519799992775,18.44819411661631
204,16,204,0,6.868686868686872,6.446506431869888,36.78986303482725,6.396725714436826,10.394679285959853,9.595088571655282,10.394679285959882,11.222790479609912,34.4195708888879,24.040968379072034,20.789358571919706,22.388540000528934,21.588949286224306,10.794474643112181,12.393656071721352,1.1993860714568996,4.397748928675355,5.597135000132241,5.597135000132241,5.597135000132241,18.390586429005907,15.991814286092094,18.459985114954584
205,16,205,0,6.902356902356906,8.057968022162413,36.26980829246064,6.446374417729913,10.506304902225432,9.703078405175221,10.475358428811091,10.506304902225429,35.491667525436476,24.992694212036557,20.95071685762224,22.56231046205474,21.756513659838475,11.684053632135488,13.295647236567959,2.0144920055406033,5.237679214405574,4.0289840110812065,3.2231872088649567,3.223187208864971,19.339123253189754,16.115936044324798,18.550835502068797
206,16,206,0,6.93602693602694,10.654306155545697,36.070040528819355,6.60752018117641,10.654306155545697,9.83474414358065,11.473868167510744,10.6857812792306,38.55427376819055,27.913276305177792,22.537955329038994,23.767298346986564,22.94773633502149,12.703211185458343,15.161897221353485,3.6880290538427403,6.14671508973791,3.2782480478602167,3.2782480478602167,2.868467041877693,18.849926275196225,16.39124023930107,18.921058325214208
207,16,207,0,6.969696969696973,11.473868167510744,36.070040528819376,7.4214496629303435,11.50310100002919,9.868833480262502,12.320718626326268,9.868833480262506,40.233734084838034,28.731464365738095,22.94773633502149,23.767298346986564,22.94773633502149,13.52277319742339,16.80102124528358,5.327153077772834,6.966277101702957,3.2782480478602167,3.2782480478602167,2.868467041877679,19.669488287161286,17.210802251266117,19.737666960524976
208,16,208,0,7.003367003367007,11.566693386808367,37.18783609708446,6.66097595571354,12.420394985832624,10.740501002036353,11.566693386808396,10.772230763931825,41.3839097518362,28.963905983643688,23.133386773616763,23.959579158388806,23.133386773616763,12.805981963966417,17.763136272598615,5.370250501018177,6.196442885790191,5.783346693404184,4.130961923860127,4.544058116246148,19.828617234528664,18.176232464984608,19.89734748302064
209,16,209,0,7.037037037037041,10.775173192493654,37.197993932864485,6.611344469927502,11.56985282237315,9.917016704891239,11.569852822373122,10.775173192493655,39.702485972955515,28.14678484415659,22.726496615375794,23.9661237034872,23.13970564474627,12.809479910484526,16.11515214544832,3.718881264334243,6.198135440557024,5.784926411186575,4.958508352445634,5.3717173818161115,19.834033409782506,18.181197292300624,19.851242986477743
210,16,210,0,7.0707070707070745,8.90639080318968,35.51588959218195,6.450773887304024,11.288854302782056,9.709700483796881,11.288854302782028,10.5134751603827,37.12699185306043,25.853443100601623,21.36818850169459,23.384055341477108,21.771361869651088,12.09520103869508,14.51424124643404,3.2253869436519835,5.644427151391056,5.701732449517234,4.838080415478032,4.838080415478032,18.545974925999076,16.93328145417307,20.174788886924933
211,16,211,0,7.104377104377108,7.314897736412547,35.77095705654124,7.314897736412576,11.407720253608746,9.787003658578382,10.597177537118245,10.597177537118245,36.61059381294938,25.20886459708195,21.538310001659198,21.94469320923767,21.131926794080726,10.97234660461885,15.036178680403594,2.84468245304933,4.470215283363217,4.1443118108781505,4.0638320757847595,3.6574488682062736,19.50639396376684,17.88086113345294,19.523319254555187
212,16,212,0,7.138047138047142,6.446374417729913,33.84346569308208,6.446374417729913,11.281155231027356,8.900316586973391,10.475358428811091,11.281155231027356,35.45505929751454,24.173904066487182,20.95071685762224,21.756513659838475,21.756513659838475,10.47535842881112,13.698545637676062,1.6115936044324712,4.0289840110812065,4.0289840110812065,3.223187208864971,3.223187208864971,20.144920055406004,17.727529648757283,19.406156810350495
213,16,213,0,7.171717171717176,5.684297933231107,33.293745037496564,7.30838305701144,12.18063842835241,8.932468180791773,9.744510742681939,11.368595866462243,36.5419152850572,24.36127685670479,21.519127890089237,22.737191732924487,22.737191732924487,11.368595866462243,13.804723552132714,1.6240851237803042,4.060212809450803,4.9394620684728485,4.060212809450789,4.060212809450789,20.301064047254002,16.2408512378032,19.556574622010324
214,16,214,0,7.2053872053872094,5.6906431700748294,33.00573038643394,7.287579041777548,11.295604170434153,8.8525632247202,10.462120174669309,12.071677124618446,36.223972253234585,24.94813272421146,22.13140806180047,21.729018824313187,22.533797299287755,10.059730937182024,14.083623312054868,2.011946187436422,2.8167246624109623,6.488331495527565,5.633449324821925,6.035838562309209,20.119461874364077,16.900347974465816,18.579753870436765
215,16,215,0,7.239057239057243,4.752335488708638,31.68223659139096,7.128503233062958,11.088782806986842,7.960063428560107,9.504670977417305,12.672894636556407,35.642516165314845,24.553733358328003,22.177565613973684,22.177565613973684,22.177565613973684,9.504670977417277,13.464950551341161,1.584111829569565,3.1682236591391018,7.1723713593158696,6.336447318278189,6.336447318278189,19.80139786961935,15.84111829569548,19.157276808177727
216,16,216,0,7.272727272727277,3.9896721374276467,32.71531152690679,7.979344274855322,11.17108198479744,8.813473819620329,9.57521312982638,12.766950839768498,35.907049236848906,24.735967252051466,22.741131183337643,23.140098397080408,23.140098397080408,10.37314755731191,12.766950839768498,0.7979344274855293,3.1917377099421174,7.225603555860665,6.383475419884249,6.383475419884249,20.74629511462382,15.95868854971063,20.091475512248085
217,16,217,0,7.306397306397311,4.715064004645058,32.229186070326975,6.2867520061934385,11.001816010838525,7.858440007741791,9.430128009290144,13.359348013161082,35.3629800348381,24.361164023999578,22.00363202167705,22.00363202167705,22.789476022451225,9.03720600890307,12.966426012773951,1.1787660011612502,2.750454002709631,7.897634465384528,6.286752006193453,6.679674006580541,20.431944020128682,15.716880015483596,18.142617588529667
218,16,218,0,7.340067340067344,4.678371461638562,31.968871654530034,7.017557192457787,10.136471500216828,8.577014346337336,9.356742923277096,13.25538580797587,35.08778596228905,24.95131446207222,22.612128731252938,22.612128731252938,22.612128731252938,9.356742923277068,12.47565723103611,1.5594571538795208,2.339185730819281,7.951702458243498,7.017557192457815,7.017557192457815,21.05267157737343,16.374300115734897,18.859118283007067
219,16,219,0,7.373737373737378,3.8943833646454777,31.933943590092937,7.009890056361854,10.90427342100736,8.567643402220057,9.346520075149158,13.240903439794664,35.04945028180936,24.145176860801996,22.197985178479257,22.587423514943822,22.587423514943822,9.346520075149158,12.462026766865534,0.7788766729290728,2.3366300187873037,7.827613687129881,7.0098900563618685,7.0098900563618685,20.250793496156504,15.577533458581925,19.719582315982674
220,16,220,0,7.407407407407412,3.8619539076388776,32.47717251054838,6.9515170337500365,10.041080159861139,7.723907815277784,9.268689378333363,13.13064328597224,33.98519438722229,23.944114227361155,22.01313727354173,21.626941882777828,23.17172344583338,9.268689378333363,11.58586172291669,0.7723907815277755,2.3171723445833265,7.762431285254546,6.951517033750022,6.951517033750022,20.082160319722277,14.675424849027806,18.031644352833048
221,16,221,0,7.441077441077446,2.296239669715362,31.465838776377623,6.931111526247354,10.715785125338328,7.692307692307701,9.216795719484105,13.777438018292173,33.6868785771424,22.97515004259515,21.81427686229594,21.431570250676714,23.727809920392076,8.802252067242222,11.098491736957556,0.38270661161922703,1.9135330580961352,7.056761239846759,6.888719009146087,6.888719009146087,20.666157027438246,13.777438018292159,18.62330749803859
222,16,222,0,7.474747474747479,3.202080144171674,33.53877183086464,6.212948073464844,10.125866505982795,8.578031806557156,10.125866505982797,14.000689281670448,33.47577126462,23.350272442959515,21.745318257126968,20.968699747943873,24.07517378467628,8.542803601014185,10.87265912856347,2.842170943040401e-14,2.3298555275493413,7.160068871770171,6.212948073464844,6.601257328056391,20.96869974794386,13.979133165295906,19.039036782155772
223,16,223,0,7.508417508417513,2.310017163491267,36.321097225172856,6.972698363707113,10.039646298861198,8.504991175553398,9.272096717604617,13.860102980947744,33.14604088104622,23.113001500736722,21.94516305316722,20.020148750257817,23.10017163491287,7.700057211637585,11.550085817456448,0.7700057211637841,0.7700057211637272,7.099101978639174,6.160045769310102,6.54504862989198,20.790154471421587,13.86010298094773,17.975964558003113
224,16,224,0,7.542087542087547,2.2924821597026153,36.87817782917154,6.16086068496617,9.201713582084327,8.440431026458814,9.201713582084324,13.754892958215663,31.367843499982826,22.173832147754432,21.014419797273916,19.104017997521737,22.924821597026096,7.259526839058253,10.31616971866174,0.3820803599504359,1.1462410798513076,7.792940844591297,6.877446479107832,6.877446479107832,20.63233943732348,13.754892958215649,18.733630323818403
225,16,225,0,7.575757575757581,0.7648085694282258,36.07594806810537,6.883277124854004,9.971883730672145,9.209514723440815,9.97188373067216,13.024220624764705,30.63055933516133,20.66398964250899,20.267427089847956,19.120214235705618,22.17944851341852,7.64808569428223,9.942511402566907,0.7648085694282258,0.7648085694282258,7.799547639354995,6.883277124854018,7.265681409568117,20.64983137456207,14.531362819136262,17.854635829095248
226,16,226,0,7.609427609427614,1.528321439801715,36.87817782917154,6.919769626138743,9.9634368062783,9.963436806278272,10.72550681088612,12.22657151841392,30.604612981810828,20.646485712168385,19.868178717422637,19.104017997521765,22.924821597026096,8.787848278859997,9.552008998760897,1.1462410798513076,1.910401799752151,7.792940844591297,6.877446479107832,7.2595268390582675,20.63233943732348,14.51905367811652,19.347004143873672
227,16,227,0,7.643097643097648,3.8797010448594165,38.86678232912294,6.983461880746972,10.117022553245912,10.117022553245912,10.863162925606389,10.890839818681012,31.851376819697656,21.740177510797256,19.78647532878304,19.39850522429711,21.72632585121275,9.69925261214857,11.25113303009232,0.3879701044859303,2.715790731401597,7.026437436407242,6.255829961999962,6.595491776261014,20.174445433269,13.96692376149393,18.114506570843613
228,16,228,0,7.676767676767682,4.627723405124442,38.68757084663094,6.170297873499294,10.056355184433318,9.255446810248912,10.825532205449816,10.056355184433318,30.8900296565611,20.839033525164712,18.510893620497853,18.510893620497853,21.596042557247472,10.026734044436353,10.798021278623708,2.842170943040401e-14,3.8564361709370587,6.984302957695785,6.984302957695773,6.555941490592971,19.282180854685237,13.883170215373369,17.889873971602185
229,16,229,0,7.7104377104377155,6.227048132616716,38.95017362537471,6.227048132616744,10.925098185948476,10.118953215502188,10.897334232079288,9.340572198925088,32.70126782401241,21.794668464158548,18.681144397850204,19.459525414427276,21.016287447581448,10.89733423207926,12.454096265233488,1.5567620331542003,4.6702860994625155,6.275508382027157,6.22704813261673,6.227048132616744,19.459525414427276,14.789239314964732,18.054413026973805
230,16,230,0,7.744107744107749,7.108223032422504,38.47163302406537,6.328645921245706,10.23478162061191,10.204634922960267,10.989606840111051,9.452313582067163,32.96882052033317,22.777715575148353,19.231811970194343,19.62429792876975,20.409269845920534,10.597120881535659,12.952036632988012,1.962429792876975,4.317345544329356,3.2365221275563063,3.2365221275562996,3.1398876686031514,18.83932601161895,14.914466425865001,18.985937763737162
231,16,231,0,7.777777777777783,7.159581773895428,38.741533526097555,6.32514833079145,10.308730552839751,10.278366037536088,11.885978686744778,8.732943350106343,32.426025756172116,22.13801915777003,18.580123221699836,19.766088533723234,19.766088533723234,11.069009578885016,12.650296661582871,1.5812870826978553,4.743861248093566,3.2599068331940333,3.259906833194037,3.1625741653957107,19.76608853372325,15.022227285629668,19.123116052147836
232,16,232,0,7.811447811447817,6.374372017382623,38.7496004774658,6.374372017382595,11.097210922881704,10.278366037536088,11.85965312023393,8.697078954838247,32.426025756172145,21.347375616421118,18.18480145102538,18.97544499237432,19.766088533723263,10.673687808210559,13.045618432257328,1.976608853372312,4.348539477419138,3.9532177067446383,2.371930624046783,2.371930624046797,19.76608853372325,15.022227285629668,19.123116052147836
233,16,233,0,7.84511784511785,6.375362204328269,38.26047357829172,6.375362204328269,10.390569154123748,10.35996358203343,11.98033869214298,9.563043306492432,32.68344839220683,22.31376771514897,19.126086612984835,19.92300688852586,20.719927164066917,10.758423719803972,12.352264270886025,1.1953804133115398,4.383061515475703,4.847476791695945,3.285786471252017,3.1876811021641345,19.92300688852586,15.14148523527966,18.484427931526547
234,16,234,0,7.878787878787884,6.32514833079145,37.98381917965071,6.325148330791421,10.308730552839751,10.278366037536088,11.069009578885016,8.697078954838247,31.63562315448077,21.347375616421118,18.18480145102538,18.184801451025407,19.766088533723263,10.278366037536102,12.650296661582843,1.581287082697827,3.953217706744681,4.8092969081395625,4.031506845634288,4.348539477419109,19.76608853372325,14.23158374428074,18.338840167756132
235,16,235,0,7.912457912457918,6.468039429126833,39.64972797165086,6.468039429126861,10.541614550827306,10.541614550827335,11.347907440070232,8.893554215049392,32.35030187862429,21.829633073303086,18.595613358739683,19.404118287380527,21.021128144662214,11.319069000971979,12.127573929612822,0.8085049286408434,4.042524643204274,5.716993176646947,4.917943485498014,4.851029571845132,20.21262321602137,14.553088715535381,18.874737606174065
236,16,236,0,7.946127946127952,6.421612990679364,38.56310934120659,6.421612990679364,10.435121109853952,10.465948713529356,12.067251414511535,8.866129224339131,32.11809715640786,21.6878035942386,18.462137348203157,19.264838972038064,20.870242219707904,11.237822733688859,12.040524357523822,0.8027016238349347,4.013508119174588,5.675957614831239,4.816209743009523,5.21756055492699,20.067540595872984,14.448629229028555,18.618525305084766
237,16,237,0,7.979797979797985,6.468039429126833,38.034120550575295,6.518375125472322,10.510564072331107,10.510564072331107,11.347907440070232,8.893554215049392,32.35030187862429,21.844600255776815,18.595613358739683,19.404118287380527,21.021128144662214,11.319069000971979,12.127573929612822,0.8085049286408434,4.8510295718451175,6.518375125472292,4.8510295718451175,5.2552820361655534,20.21262321602137,14.553088715535381,18.753131956141768
238,16,238,0,8.01346801346802,6.315680131138151,37.96802052696523,6.364830134130498,9.473520196707227,10.262980213099482,11.080599358517109,8.684060180314958,30.79906025851649,21.3300350623697,18.157580377022214,18.157580377022214,20.52596042619902,10.657710221295645,11.447170237687914,1.1841900245884176,4.342030090157465,6.36483013413047,4.736760098353614,5.131490106549748,19.736500409806723,13.420820278668572,18.311388511124978
239,16,239,0,8.047138047138052,6.315680131138151,37.96802052696523,6.31568013113818,9.506357453562423,10.293299275351604,11.080599358517109,8.719870889687183,30.82939918584493,21.3300350623697,18.157580377022214,18.157580377022214,20.52596042619902,10.657710221295645,11.447170237687914,1.1841900245884176,4.342030090157465,6.36483013413047,5.582325310666163,5.5262201147458825,18.947040393414454,13.420820278668572,17.528857034007274
240,16,240,0,8.080808080808085,5.569958676743539,37.4321385892771,6.365667059135461,10.374768000658795,9.581597743710295,11.139917353487078,8.788886347921013,31.073405678464038,20.703714371594042,17.9034386038185,18.30129279501449,19.892709559798362,10.344208971095156,11.935625735878972,1.591416764783844,3.978541911959695,6.415206071325478,5.569958676743539,5.569958676743539,19.892709559798348,13.527042500662873,18.456318279579175
241,16,241,0,8.114478114478118,5.569958676743539,37.432138589277116,6.36566705913549,9.581597743710299,9.581597743710299,11.168299354527141,9.548500588703206,31.042826626597275,21.484126324582235,18.69914698621045,19.097001177406412,20.688417942190284,10.344208971095128,11.139917353487107,0.7957083823919504,3.9785419119596384,5.626507930363151,4.774250294351603,4.774250294351603,19.097001177406412,13.527042500662873,18.456318279579175
242,16,242,0,8.14814814814815,5.534504789442508,37.98381917965072,6.374372017382627,9.48772249618716,10.278366037536074,11.069009578885016,8.697078954838219,30.05485597526534,20.57193113968103,17.789479680350922,18.18480145102538,19.766088533723263,10.278366037536102,11.069009578885016,1.5812870826978553,3.9532177067446526,6.374372017382611,5.590694095891744,5.534504789442508,19.76608853372325,14.23158374428074,18.33884016775616
243,16,243,0,8.181818181818183,6.320606175199714,37.99763446214911,6.320606175199686,9.513772131745721,9.513772131745718,11.061060806599471,9.480909262799543,31.61290528051253,22.122121613198942,18.961818525599085,18.171742753699135,20.541970069399014,9.875947148749532,12.24617446444941,1.9751894297498893,3.5553409735498462,6.36979451374343,5.586679359616591,5.5305304032997356,18.961818525599085,14.221363894199314,18.325670853606066
244,16,244,0,8.215488215488216,6.36566705913549,37.4321385892771,6.365667059135461,9.581597743710295,9.548500588703206,10.374768000658825,8.752792206311284,31.04282662659727,21.484126324582235,18.30129279501449,18.30129279501449,19.892709559798362,10.344208971095128,11.935625735879029,1.5914167647838724,3.9785419119596668,6.415206071325464,5.626507930363153,5.569958676743539,19.097001177406412,13.527042500662873,18.456318279579175
245,16,245,0,8.24915824915825,6.4263765687250896,38.59171560902422,6.426376568725061,9.63956485308762,9.67297765640469,11.27481167608975,8.872706154245199,31.338882760741324,21.70389169316503,18.4758326350846,18.4758326350846,20.08242677726585,10.44286192417826,12.049456066359511,1.606594142181251,4.016485355453199,6.476388035585997,5.623079497634436,6.0247280331797555,19.279129706175226,13.65605020854079,18.632336601174377
246,16,246,0,8.282828282828282,7.229673639815701,36.98657473971223,5.62307949763445,9.63956485308762,9.63956485308762,11.27481167608975,9.63956485308762,32.13188284362539,22.49231799053777,18.87748117062992,19.27912970617524,20.88572384835649,10.44286192417826,12.049456066359511,1.606594142181251,4.81978242654381,6.476388035585997,5.623079497634436,5.623079497634436,20.082426777265866,14.459347279631416,18.632336601174377
247,16,247,0,8.316498316498315,6.375362204328269,37.48914911388182,6.375362204328269,10.390569154123748,10.390569154123748,11.156883857574485,8.766123030951405,31.886770969086964,21.516847439607943,18.32916633744381,18.32916633744381,19.92300688852586,10.35996358203343,12.750724408656566,1.5938405510820814,3.984601377705161,6.424976666256927,5.578441928787242,5.976902066557756,19.92300688852586,14.344564959738634,17.694501668745016
248,16,248,0,8.350168350168348,7.177070005460109,37.51417326222836,5.5821655598022915,10.366878896775688,9.602596363262341,10.397504898200744,9.602596363262341,32.70526471720684,22.342897919481736,18.74012723647914,19.138853347893587,20.733757793551376,10.366878896775688,12.7592355652624,1.5949044456578179,3.987261114144502,6.429265362400202,5.5821655598022915,5.5821655598022915,19.936305570722496,14.35414001092019,17.70631281530724
249,16,249,0,8.38383838383838,7.055189726946082,36.85210709822183,5.543080553868034,10.19082960558876,9.439526040927207,10.97473957524943,9.40691963592809,32.14986721243461,21.963473081885727,18.421884287025847,19.59774924151685,20.38165921117752,10.582784590419095,12.150604529740463,1.9597749241517022,4.311504833133711,6.320084226865256,5.487369787624729,5.487369787624729,19.59774924151685,14.110379453892136,18.18265613729105
250,16,250,0,8.417508417508413,7.110681947099664,36.37782040925267,6.369794513743417,9.480909262799543,9.480909262799543,11.851136578499421,8.726672131567987,31.603030875998485,22.122121613198942,18.566780639649096,18.961818525599114,20.541970069399014,11.061060806599471,11.851136578499421,1.5801515437999285,4.7404546313997855,6.36979451374343,5.5305304032997356,5.925568289249711,19.75189429749905,14.221363894199328,18.444504610102957
251,16,251,0,8.451178451178446,7.055189726946082,36.09392555445867,6.320084226865242,10.19082960558876,9.406919635928062,11.002700740503643,8.658568619874464,32.14030875608765,21.949479150498888,18.421884287025847,18.81383927185618,20.38165921117752,10.97473957524943,12.542559514570797,1.5678199393213674,4.703459817964045,6.4642872117713965,5.543080553868044,5.879324772455064,19.59774924151685,14.110379453892136,17.528759804010637
252,16,252,0,8.484848484848479,7.1722824798692955,36.69296502335297,6.375362204328297,10.359963582033458,9.563043306492403,10.390569154123721,8.80227214526707,32.68344839220683,22.327993899389906,18.727626475214322,19.126086612984835,20.71992716406689,11.156883857574485,12.750724408656566,1.5938405510820814,4.7815216532461875,5.6350773090011765,5.578441928787242,5.578441928787242,19.92300688852586,14.344564959738634,17.694501668745016
253,16,253,0,8.518518518518512,7.911630099812186,37.193077144560405,5.538141069868544,9.526864211930866,10.285119129755856,11.104502012581266,9.493956119774623,32.44733030413747,22.943727289455353,18.987912239549274,19.77907524953048,20.57023825951171,10.680700634746472,12.26302665470891,1.9779075249530536,5.142559564877928,6.378560107388297,5.5943672938168145,5.9337225748591464,19.779075249530493,14.240934179661963,18.350889152818976
254,16,254,0,8.552188552188545,7.124704998790975,37.24046408403042,6.3330711100364,10.321643103217186,9.499606665054614,11.111111111111123,8.707972776300068,32.46664207541437,22.165748885127442,18.60339638573194,19.790847218863775,21.374114996372867,11.874508331318253,11.874508331318282,1.5832677775091213,5.5414372212818535,6.382356453427098,6.333071110036414,5.937254165659141,19.79084721886379,14.249409997581921,18.361811104508824
255,16,255,0,8.585858585858578,7.115791872140363,37.16865659320601,6.374372017382627,10.278366037536074,9.48772249618716,11.097210922881704,8.732943350106344,32.416385195306106,22.13801915777003,18.580123221699864,19.766088533723234,20.556732075072176,11.464331349559473,12.254974890908414,1.9766088533723405,5.139183018768023,6.374372017382613,5.534504789442508,5.929826560116965,19.76608853372325,14.23158374428074,17.555135552653855
256,16,256,0,8.61952861952861,7.974522228289004,37.4887370473507,6.379617782631215,10.366878896775688,9.569426673946793,11.164331119604583,8.771974451117899,33.492993358813806,23.126114462038117,19.138853347893615,19.93630557072251,20.733757793551405,11.563057231019059,13.157961676676848,1.9936305570722368,5.183439448387844,6.4292653624002005,5.582165559802306,5.5821655598022915,20.733757793551405,15.1515922337491,17.70631281530724
257,16,257,0,8.653198653198643,7.888870133438254,36.92706805871744,6.32864592124571,10.234781620611914,9.419663005809497,10.989606840111065,8.634691088658684,32.97816410009288,22.764185597372887,18.839326011618937,19.62429792876972,21.19424176307129,11.774578757261821,12.559550674412634,1.569943834301597,5.4948034200555185,6.3286459212457205,5.494803420055533,5.4948034200555185,19.62429792876975,14.914466425865001,18.207287825617477
258,16,258,0,8.686868686868676,7.906435413489277,37.16865659320601,6.32514833079145,10.278366037536102,9.48772249618716,11.097210922881706,8.697078954838219,33.20702873665505,22.928662699118945,18.975444992374292,19.766088533723234,20.556732075072176,11.464331349559501,13.045618432257328,1.976608853372312,5.139183018768051,6.374372017382613,5.534504789442508,5.929826560116979,18.97544499237432,14.23158374428074,18.338840167756132
259,16,259,0,8.720538720538709,7.854318214880578,36.94870312411493,6.283454571904457,9.425181857856671,9.425181857856671,11.024060948787936,9.425181857856671,32.98813650249838,23.562954644641707,19.63579553720143,20.421227358689464,21.992091001665585,11.781477322320853,11.781477322320853,1.5708636429761214,5.498022750416396,5.5538416713390655,6.283454571904457,5.890738661160427,19.635795537201403,14.923204608273068,18.217955227161287
260,16,260,0,8.754208754208742,7.115791872140363,36.403962477878245,6.32514833079145,11.069009578885016,9.48772249618716,11.069009578885016,8.697078954838219,33.20702873665505,22.13801915777003,18.580123221699864,19.766088533723234,21.347375616421118,11.859653120233958,12.650296661582871,0.7906435413489419,5.534504789442508,6.374372017382611,6.325148330791436,5.929826560116965,19.76608853372325,15.022227285629668,19.04121796252881
261,16,261,0,8.787878787878775,8.043357953508803,37.03440119628496,5.630350567456162,10.487255703284088,10.487255703284088,11.28939086583053,9.68548555282575,33.78210340473697,23.339601803733956,19.304059088421127,20.108394883772007,21.717066474473768,11.260701134912324,12.869372725614085,1.6086715907017606,4.826014772105282,6.484762498301497,5.630350567456148,6.032518465131588,20.108394883772007,15.282380111666725,19.454287494904506
262,16,262,0,8.821548821548808,7.1814098473697925,37.51140579546872,5.585540992398705,10.403792077715352,9.608402876241513,11.199543386300736,9.608402876241513,32.71531152690679,22.35640825792082,18.751459045909996,19.94836068713829,20.74629511462382,10.772114771054675,12.367983626025733,1.196901641228294,4.38863935117044,7.225603555860665,6.43315302062939,5.984508206141484,20.746295114623805,15.160754122225086,19.216805752483026
263,16,263,0,8.85521885521884,6.333071110036428,37.24046408403041,6.3330711100364,10.321643103217186,9.499606665054614,10.291240553809189,9.532534343215067,32.4569894389366,22.179880699687118,18.999213330109228,19.790847218863775,21.374114996372896,11.082874442563735,11.874508331318253,1.5832677775090929,4.749803332527335,7.1685497510738925,6.3823564534270965,6.333071110036414,20.582481107618335,15.041043886336467,19.932832000617246
264,16,264,0,8.888888888888873,6.333071110036428,37.24046408403041,6.3330711100364,10.321643103217186,9.499606665054614,10.291240553809189,9.532534343215067,32.4569894389366,22.179880699687118,18.999213330109228,19.790847218863775,21.374114996372896,11.082874442563735,11.874508331318253,1.5832677775090929,4.749803332527335,7.1685497510738925,6.3823564534270965,6.333071110036414,20.582481107618335,15.041043886336467,19.932832000617246
265,16,265,0,8.922558922558906,4.8221251435388615,38.06037647496129,6.391374907061433,10.30578237334737,10.30578237334737,11.098534863604868,10.336227882434036,31.720007468566788,21.418992807573847,19.02605976617977,19.81881225643724,20.61156474669474,9.90940612821862,11.494911108733618,0.39637624512874936,3.5673862061586874,7.178679118499109,5.549267431802434,5.945643676931184,19.026059766179756,15.062297314892305,19.882131306757454
266,16,266,0,8.956228956228939,4.0105027596028435,37.75316645636781,7.07871871056895,10.255022231932038,9.438291614091924,11.01134021644063,10.224815915266277,31.460972046973154,21.250716405019606,19.269845378771066,20.449631830532553,20.449631830532553,10.224815915266277,11.011340216440601,0.0,3.146097204697327,6.341161641367843,5.505670108220301,5.898932258807463,18.87658322818389,15.730486023486577,18.158323542883302
267,16,267,0,8.989898989898972,3.270658365139174,38.87740092966038,7.139260537824043,11.105516392170756,10.342729882122446,11.898767563040082,10.312265221301402,31.739960925574707,20.639779635401524,19.038028100864125,20.624530442602804,19.83127927173348,9.91563963586674,11.502141977605419,0.39662558543466275,3.5696302689120216,6.395395398688216,6.3460093669547035,6.3460093669547035,19.038028100864153,16.658274588256134,18.262013378742115
268,16,268,0,9.023569023569005,3.173004683477359,39.67049026208309,7.139260537824043,10.312265221301402,10.31226522130143,11.105516392170756,10.342729882122422,30.94696387968047,20.639779635401524,19.038028100864125,20.624530442602804,19.83127927173348,9.91563963586674,10.708890806736065,0.39662558543466275,2.776379098042696,7.183194863500309,6.3460093669547035,6.3460093669547035,18.244776929994813,15.865023417386794,18.262013378742115
269,16,269,0,9.057239057239038,3.298378954056305,39.20690781452034,7.199769611058628,11.199641617202275,9.632967413008556,11.199641617202275,10.430390081181832,32.03894980121103,20.860780162363664,19.199385629489626,20.799334431947102,19.99936003071838,9.99968001535919,11.599628817816637,0.3999872006143619,3.599884805529314,7.244076303777065,6.399795209829875,6.399795209829875,18.399411228260888,16.799462425803426,18.41679376518276
270,16,270,0,9.09090909090907,3.149508665761971,39.40034082071618,7.086394497964477,10.266142234521082,10.266142234521082,11.836874304663453,10.266142234521086,30.748061295040976,20.48694260037289,18.89705199457194,20.471806327452924,18.89705199457194,9.44852599728597,11.023280330166955,0.0,2.3621314993214924,7.086394497964477,5.567597337415243,5.905328748303731,16.534920495250432,17.32229766169094,18.109674828131432
271,16,271,0,9.124579124579103,1.574022626344373,39.42133304336718,7.909365809795494,10.261372091507614,10.261372091507628,11.831374324049937,10.261372091507642,29.99948383988709,19.73814331798651,18.888271516132477,21.24930545564905,18.888271516132477,9.837641414652325,9.837641414652325,0.39350565658608616,2.75453959610266,6.345088057621077,5.509079192205306,5.902584848791392,15.74022626344373,18.10126020296029,18.1183610666731
272,16,272,0,9.158249158249136,1.111866338573231,39.4360040775451,7.07587405000379,9.434498733338387,9.467200733415844,11.006915188894752,11.118663385732427,28.40160220024755,19.015840128542536,18.475893352787637,20.441413922233153,17.296581011120367,7.862082277782008,9.434498733338359,2.842170943040401e-14,1.5724164555564073,6.289665822225587,6.33861337618085,6.289665822225572,15.724164555563945,18.868997466676745,17.314440159926477
273,16,273,0,9.191919191919167,0.7854318214880607,39.39705973615813,7.1123876433231565,9.457851563641533,10.24077803953527,11.024060948787936,11.107683342678133,28.449550573292598,18.997061365656997,18.457647804969326,20.421227358689464,17.27950007273725,7.85431821488055,9.4251818578567,2.842170943040401e-14,1.570863642976093,6.283454571904443,5.553841671339053,5.8907386611604124,14.923204608273068,18.850363715713357,18.08199843737424
274,16,274,0,9.225589225589202,1.5949044456578179,40.071478266084135,6.429265362400186,8.80814769510366,10.397504898200728,11.192775321423476,12.067641895668713,28.884948027917883,20.079333909233,19.138853347893587,21.5312100163803,17.543948902235798,7.575796116874557,9.170700562532346,0.39872611141444736,1.9936305570722652,6.3796177826312,5.638838744346018,5.980891671216753,15.151592233749113,19.1388533478936,17.56206346452362
