,video_id,frame_seq,gap,time_seconds,m1,m3,m4,m5,m6,m7,m8,m9,m10,m11,m12,m13,m14,m15,m16,m17,e1,e2,e3,b1,b2,b3,label_measures
0,60,5,1,0.166833333333333,22.19472605904871,156.7859694166714,16.0753286557225,28.131825147514405,42.24555387000703,46.216569885202034,44.20715380323668,110.53615041756431,82.41056079141231,71.3342709097684,70.32956286878573,66.31073070485513,24.11299298358369,42.19773772127155,12.056496491791904,10.047080409826547,16.0753286557225,18.196036524963056,18.084744737687856,54.25423421306334,60.28248245895918,50.275574308290814,{}
1,60,6,0,0.2001999999999996,18.11054389589104,152.0507218478414,15.999800003749897,29.99962500703112,40.04946817377839,44.04488053352482,46.04288220045489,110.07132736354328,80.09893634755645,70.99911251664025,71.99910001687465,67.99915001593718,23.999700005624845,39.999500009374856,7.999900001874948,9.999875002343742,15.999800003749897,15.999800003749897,15.999800003749897,53.99932501265596,59.99925001406223,48.04104808850924,{}
2,60,7,0,0.2335666666666662,11.926985353525914,147.17642356702115,17.64705882352939,27.450980392156907,39.26467528333468,43.18179518734349,47.05882352941183,103.94006494665554,76.49572236522026,70.58823529411768,74.50980392156862,68.62745098039215,24.509803921568505,32.35294117647072,2.941176470588289,8.823529411764639,15.686274509803866,15.686274509803866,15.686274509803866,52.941176470588175,56.86274509803917,52.94117647058829,{}
3,60,8,0,0.2669333333333328,11.811050216944553,145.74580901841117,17.47552225210552,29.12587042017583,38.88300670935146,42.76205061866286,46.64182772776044,104.85313351263312,75.72726309245729,69.90208900842208,71.84381370310052,66.01863961906531,22.329833988801624,35.92190685155015,4.854311736695877,8.737761126052874,13.59207286274875,13.73006698804471,14.562935210087971,50.484842061638176,54.36829145099495,54.368291450994775,{}
4,60,9,0,0.3002999999999994,9.758442226567254,145.649198107084,15.310303795549205,26.793031642210963,40.37140154800991,44.18322635491525,49.7952773496814,101.5029553682793,74.73580953576256,69.85326106719299,72.72394302885846,65.06879113108391,19.13787974443641,32.5343955655419,5.741363923330937,7.655151897774544,11.482727846661874,11.482727846661874,12.439621833883734,47.844699361091045,55.49985125886565,57.445526844339234,{}
5,60,10,0,0.333666666666666,9.433017834296152,143.69183268452366,17.083921900894147,28.36187056909029,41.67643498454673,45.31777280125753,45.27848560462155,100.0611563045373,71.71575497554379,66.97442662350272,71.6909355406508,62.25791770635465,21.69594101888117,33.01556242003653,2.829905350288868,8.489716050866605,13.340301755368834,13.20622496801468,13.20622496801468,49.051692738339966,54.7115034389177,58.515131750543695,{}
6,60,11,0,0.3670333333333326,9.529941211783791,138.6195134212574,16.82077714694219,26.165653339687765,39.42607584870535,43.148644008254976,44.85540572517925,97.20468165910516,71.04564658821577,66.34862096849429,71.02105906486713,61.67618287212144,21.493215243315035,30.83809143606061,2.8034628578236607,8.410388573471096,13.08282666984394,13.08282666984394,13.08282666984394,48.59335620227756,54.20028191792494,56.10039809592361,{}
7,60,12,0,0.4003999999999992,7.634644457518214,141.16504114597328,16.6650593889093,24.071752450646727,40.90479940519303,42.749196940594,46.32885029962045,94.50792327848994,70.46097317683358,66.66023755563708,70.36358408650574,59.25354449389965,18.51673265434374,29.62677224694972,3.703346530868657,5.5550197963031,13.093307225304743,14.81338612347497,14.81338612347497,49.99517816672778,57.40187122846527,57.431729160902336,{}
8,60,13,0,0.4337666666666658,5.7226422016351295,137.9619728255719,16.286925232230715,28.95453374618785,39.85359127788666,41.77920750601812,43.46948548591119,94.17181119823904,65.24816004939565,62.4332133902177,66.95735928805959,56.09940913323908,18.096583591367448,32.57385046446143,3.6193167182735806,5.4289750774102,14.47726687309398,14.47726687309398,15.382096052662291,52.48009241496567,56.099409133239135,57.93733650430711,{}
9,60,14,0,0.4671333333333324,9.024459931519308,138.60248901389073,14.158737627831895,24.84091908057004,37.33486218296294,39.09709216175917,42.47621288349569,90.33133129034464,65.50807394928526,61.05955602002507,65.48416152872244,53.09526610436956,16.81350093305025,30.97223856088237,6.194447712176498,6.194447712176384,15.928579831310913,15.928579831310913,15.928579831310913,54.86510830784852,56.63495051132753,61.94447712176452,{}
10,60,15,0,0.5004999999999991,7.395630799096821,140.32222835302247,16.143335445572006,25.11185513755663,37.71046575992249,39.62421511508881,43.08624714852829,91.54921516597798,66.46393197040038,62.77963784389146,68.16074965908217,57.39852602870076,19.73074332236581,28.69926301435044,3.5874078767938045,7.174815753587609,16.14333544557212,16.143335445572063,16.143335445572063,55.60482209030391,57.398526028700815,62.77963784389158,{}
11,60,16,0,0.5338666666666656,9.227483286174593,143.52313625346656,14.47726687309398,23.595058254958666,41.779207506018345,43.76979638317056,43.43180061928183,90.55527535980946,66.98180966655868,62.4332133902177,66.95735928805959,54.289750774102345,17.19175441179914,29.859362925756272,6.333804256978624,8.143462616115357,16.387153410433033,16.286925232230715,17.191754411799025,56.099409133239135,59.71872585151266,63.36388955823986,{}
12,60,17,0,0.5672333333333321,5.69687291895896,141.0824568643757,14.52423309011468,25.2211315502185,39.67412899051712,39.79664331916225,43.23622551466031,88.34746082186743,63.15568837112642,60.35056478088006,66.6558476684346,54.04528189332541,17.11433926621976,27.92339564488475,2.702264094666248,6.305282887554654,16.2135845679976,16.2135845679976,17.1143392662197,54.045281893325466,57.648300686213815,63.05282887554631,{}
13,60,18,0,0.6005999999999987,12.567684472133893,137.26995473824596,12.441372879682262,24.88274575936441,39.26270143015218,41.225070243535065,41.033056762631006,90.8009767245718,65.97735110502055,59.54085592419381,63.9842033812231,53.32016948435262,17.7733898281175,31.992101690611435,7.109355931247023,8.886694914058808,15.996050845305774,15.996050845305774,16.88472033671161,53.320169484352505,56.874847449976016,63.9842033812231,{}
14,60,19,0,0.6339666666666652,7.327360735833363,140.94459791216605,14.217168127456262,23.10289820711648,39.25843865245077,41.02860177626914,40.91297373486613,85.37702440448885,62.3015789946617,58.645818525757136,65.75440258948538,53.314380477961095,18.66003316728643,25.76861723101445,2.665719023897964,7.997157071694232,17.771460159320384,15.994314143388351,16.88288715135434,55.091526493893184,58.64581852575725,60.449093392442016,{}
15,60,20,0,0.6673333333333318,17.302889726559783,161.5111453753612,15.572600753903773,25.95433458983973,42.09974771783984,45.51679635909412,43.2572243163994,102.08704938670267,76.13271479686296,67.48126993358312,70.94184787889503,57.09953609764728,20.76346767187169,38.06635739843159,13.842311781247872,12.112022808591746,17.302889726559727,17.38918896378962,17.302889726559783,57.09953609764722,55.36924712499126,65.75098096092711,{}
16,60,21,0,0.7006999999999983,16.08559913177232,156.81321303070138,17.763572599498502,26.64535889924776,41.20229935158203,43.22063752498469,46.32173008625695,106.59623754631538,79.95581156452889,71.94246902796885,72.83064765794381,60.39614683829484,20.428108489423263,39.96803834887157,15.099036709573738,7.993607669774292,17.763572599498502,19.62050723164761,18.651751229473348,56.84343231839512,56.84343231839512,71.05429039799378,{}
17,60,22,0,0.7340666666666649,15.743139969457472,150.15985638444462,17.385389720370995,24.339545608519416,40.32511070565101,44.01629110254581,45.23543435943294,102.573799350189,78.23425374166959,70.41082836750263,73.01863682555825,59.110325049261405,20.86246766444515,36.50931841277918,13.90831177629684,8.692694860185497,19.202790588599424,17.385389720370995,17.385389720370995,53.894708133150175,57.37178607722439,67.80301990944702,{}
18,60,23,0,0.7674333333333314,15.881142534365903,149.90449349608937,17.53778805882189,26.30668208823284,38.94020890135344,42.41825029957644,45.59824895293684,105.2413421615362,78.93953029073643,71.0280416382285,73.65870984705191,57.87470059411214,20.168456267645183,39.46002313234919,14.907119849998594,7.892004626469884,15.784009252939654,17.53778805882189,16.66089865588077,54.36714298234784,57.874700594112255,64.91351120488962,{}
19,60,24,0,0.800799999999998,16.021585064510298,151.643575487191,17.692880888118452,28.363845784578377,37.82305931483635,43.04863716771029,46.03550250621959,107.94107480467774,79.61796399653281,71.65616759687953,77.84867590772092,58.38650693079069,22.11610111014795,39.80898199826652,13.26966066608884,9.731084488465058,15.923592799306562,17.692880888118395,16.808236843712507,53.07864266435524,58.386506930790745,63.718939904484216,{}
20,60,25,0,0.8341666666666645,10.353544610215769,129.90807934480824,17.021122489402956,25.53168373410449,34.21203279007277,36.1072534069911,39.29631274763656,91.92982039041765,66.4041960749828,61.27604096185087,71.48871445549264,59.57392871291052,26.38273985857461,26.382739858574723,2.553168373410472,12.765841867052243,15.319010240462717,17.021122489403012,17.021122489403012,57.87181646397028,61.27604096185087,59.59823964177927,{}
21,60,26,0,0.867533333333331,10.300334319227773,134.29992853660227,18.883946251917564,27.46755818460747,34.71856164572786,36.41718122807234,42.91805966344907,99.56989841920188,72.10234023459441,66.95217307498046,77.25250739420835,66.95217307498058,29.18428057114545,27.46755818460736,1.7167223865378674,13.733779092303736,17.25284646070036,18.883946251917564,18.883946251917564,58.36856114229073,58.36856114229073,58.36856114229079,{}
22,60,27,0,0.9008999999999976,10.396365840895086,125.34040409678585,15.382368143092322,22.21897620668892,31.18909752268509,34.353530354748976,44.56923173162672,92.43652846330538,70.2625720902252,64.94777660416764,76.91184071546172,64.94777660416764,26.491856246436896,21.364400198739304,0.8545760079496176,16.23694415104194,17.176765177374488,18.80067217489062,17.94609616694106,59.82032055647022,59.82032055647022,56.40201652467192,{}
23,60,28,0,0.934266666666664,5.059644256269394,126.89523237694948,15.178932768808297,23.67183042258364,32.22145592958549,35.57777083767014,43.85025022100149,87.71671575145885,64.08882724607918,61.55900511794448,72.5215676731948,62.40227916065601,23.61167319592392,20.23857702507769,1.6865480854230557,11.805836597961957,15.272342467494797,16.949598487542094,16.022206811519766,55.656086818963445,55.656086818963445,60.73915083736716,{}
24,60,29,0,0.9676333333333308,10.666245292459848,137.17176656741802,15.99936793868983,24.88790568240632,35.7314795111959,39.27084331769783,42.70200068324221,94.23526941699512,69.35338177856457,63.9974717547592,72.8860094984758,63.9974717547592,25.776759456777995,25.776759456777995,0.8888537743716824,13.332806615574782,15.99936793868983,17.86573975559799,17.777075487433194,62.219764206015896,60.44205665727259,60.46819376407574,{}
25,60,30,0,1.0009999999999972,12.387440446318353,131.1441141407612,15.926709145266614,24.77488089263693,35.56921021415503,37.33047749792554,40.74004218633552,93.80731370024488,69.03842352151571,62.82201940632922,69.0157396294884,61.93720223159221,24.774880892636816,28.31414959158508,3.539268698948149,12.387440446318353,14.157074795792482,15.926709145266557,15.9267091452665,61.93720223159221,60.167567882118135,60.193586291067085,{}
26,60,31,0,1.0343666666666638,7.263622553011724,132.23220168165605,19.37855959514991,28.186995774763545,37.1628329539042,38.91694304027436,40.5570858928856,95.13111073982668,66.94411496506314,63.42074049321775,70.46748943690864,65.1824277291405,27.30615215680212,27.30615215680212,0.8808436179614318,11.450967033497705,17.61687235922716,17.704737604339563,17.61687235922716,61.65905325729506,59.89736602137231,65.20622996755618,{}
27,60,32,0,1.0677333333333303,8.927770783499,141.10397504125095,16.069987410298154,26.842764837303683,34.11296426544303,37.666306199254976,42.89048267430753,94.70172573732108,67.874548022097,63.38717256284281,66.06550379789246,62.49439548449288,21.426649880397576,30.354420663896462,5.356662470099309,7.142216626799268,17.855541566997942,16.06998741029821,16.069987410298154,57.13773301439346,58.92328717109325,62.49439548449277,{}
28,60,33,0,1.1010999999999969,3.975192699031068,135.40185576622423,19.55536241712741,26.666403296082763,35.73253818510406,37.71198920103093,42.66624527373256,92.460623694557,65.80114753158755,63.99936791059884,74.66592922903192,65.7771281303377,27.5552834059522,22.22200274673571,2.6666403296081853,11.555441428302515,14.222081757910871,16.09830347299518,16.88872208751917,60.4438474711211,58.66608725138229,63.99936791059895,{}
29,60,34,0,1.1344666666666634,0.0,124.6641575949926,15.31790081040333,23.888553690609253,32.51645378589593,34.20955509360459,46.07960322174912,85.11646713482568,61.36608533820056,61.27160324161321,73.18552609414905,62.97359222054695,22.12585672613818,17.019889789336958,5.10596693680111,8.509944894668592,15.317900810403271,17.019889789336958,16.168895299870087,56.1656363048121,56.1656363048121,68.07955915734806,{}
30,60,35,0,1.16783333333333,0.0,133.24544340899587,18.95689026911361,25.85030491242788,33.149369540123786,34.85267086865848,41.50385219914907,86.23658963623737,60.41577522235145,60.31737812899803,74.1042074156262,62.04073178982662,26.711981742842,18.09521343869949,6.031737812899792,11.201798795385344,15.510182947456656,17.233536608285192,16.371859777870895,58.59402446816961,58.59402446816961,58.59402446816955,{}
31,60,36,0,1.2011999999999965,3.432338561121128,127.73649821977487,15.445523525045132,20.665414705088185,32.787368068084284,33.01117522642494,43.21203834243699,82.4476015111288,61.99624411526434,60.065924819620136,75.51144834466538,61.78209410018076,25.74253920840863,13.729354244484623,5.148507841681749,12.013184963924118,15.44552352504519,17.161692805605753,17.161692805605753,56.63358625849901,56.63358625849901,65.21443266130188,{}
32,60,37,0,1.234566666666663,0.0,136.85362106320494,20.94452954467488,24.43528446878736,35.081652811145936,37.02504717450422,40.29516775661467,85.5947058909287,61.18786574257366,61.0882111719684,76.79660833047456,62.83358863402464,29.67141685495608,15.70839715850616,6.98150984822496,10.47226477233744,15.805065130344078,17.4537746205624,16.58108588953428,57.59745624785592,57.59745624785592,64.57896609608099,"{'neutral': (['m1', 'm3', 'm12', 'e1', 'e2'], 2.025204305870903, 80)}"
33,60,38,0,1.2679333333333296,3.939863838688698,133.31651620178397,15.857646057722036,24.66744942312312,37.37683020357129,39.12187583496322,45.81097750008576,89.87726679132147,65.21635083680626,63.43058423088803,81.05019096169019,63.43058423088803,26.429410096203355,17.619606730802275,3.5239213461604777,14.095685384641795,17.619606730802275,15.85764605772198,16.7386263942621,54.62078086548695,56.38274153856719,63.455051188106864,"{'neutral': (['m1', 'm3', 'm12', 'e1', 'e2'], 2.025204305870903, 80)}"
34,60,39,0,1.301299999999996,3.9225867319103567,141.6591569725673,19.29657527641882,21.050809392456813,38.95031842743807,40.689156855642246,43.89092356061545,87.7818471212309,66.75316067008711,64.90666229340866,80.69476933775127,61.39819406133245,27.190628798590183,16.66522410236155,2.6313511740571585,13.156755870285563,17.629834676509564,17.54234116038066,17.54234116038066,52.62702348114209,56.13549171321824,66.68397444247654,"{'neutral': (['m1', 'm3', 'm12', 'e1', 'e2'], 2.025204305870903, 80)}"
35,60,40,0,1.334666666666663,7.259680746545086,142.43433986995913,17.607312074275114,24.71304015711949,41.104683914621866,43.16485613633265,45.7790113931153,95.1446751197497,70.45125399933953,66.90778588224555,82.75436674909315,61.6255922599629,26.41096811141267,22.88950569655776,1.7607312074276251,14.085849659420091,15.84658086684766,17.607312074275114,16.72694647056136,51.06120501539789,54.58266743025291,63.4107733519901,"{'neutral': (['m1', 'm3', 'm12', 'e1', 'e2'], 2.025204305870903, 80)}"
36,60,41,0,1.3680333333333292,16.560171564266057,169.53157202292766,18.4001906269624,23.920247815051084,46.03726224027172,49.81662594702394,49.6805146927984,108.56112469907794,84.64087688402685,76.36079110189382,75.44078157054571,66.24068625706445,21.16021922100674,37.7203907852728,13.800142970221714,6.4400667194369134,16.662081274228967,18.4001906269624,17.480181095614284,55.20057188088697,60.72062906897571,66.34283078382464,"{'neutral': (['m1', 'm3', 'm12', 'e1', 'e2'], 2.025204305870903, 80)}"
37,60,42,0,1.4013999999999958,5.6920257924488045,158.89828046504488,18.08954095551365,23.468823566006243,41.750145868706994,43.53562588135441,50.43147700909912,97.26537937825218,73.82098828926556,71.09907571802341,75.59901721916412,62.99918101597007,18.89975430479103,27.899637307072453,4.499941501140711,6.299918101597086,18.08954095551368,18.08954095551365,17.099777704334713,53.9992980136887,61.19920441551386,66.69635928210135,"{'neutral': (['m1', 'm3', 'm12', 'e1', 'e2'], 2.025204305870903, 80)}"
38,60,43,0,1.4347666666666623,8.195327690166366,160.10281091853162,18.416708434014417,23.82290275702792,44.58740315488837,46.39597870691073,49.51226062447653,99.02452124895298,75.22310887433962,71.46870827108353,82.4638941589426,67.80364630846395,25.655433738337702,23.822902757027805,1.832530981309788,12.827716869168968,20.15784079440823,18.325309813098382,18.325309813098443,53.14339845798514,60.47352238322446,71.49219839769036,"{'neutral': (['m1', 'm3', 'm12', 'e1', 'e2'], 2.025204305870903, 80)}"
39,60,44,0,1.4681333333333288,5.239974833625752,126.35234713250784,15.719924500877257,22.70655761237822,35.10739689049488,36.84579673657773,43.805966749433935,87.40275230067991,64.72070137728029,62.0063688645713,75.10630594863574,62.87969800350902,25.326545029191152,18.33991191769008,4.366645694688145,11.35327880618911,13.973266223001986,15.719924500877257,15.719924500877257,55.89306489200794,59.38638144775842,59.48903732636252,"{'neutral': (['m1', 'm3', 'm12', 'e1', 'e2'], 2.025204305870903, 80)}"
40,60,45,0,1.5014999999999954,3.903414419342473,122.64426233737024,15.71093997480466,19.281444882341784,35.08733169726288,36.82473798267421,45.52124340966267,84.08211983481728,64.8013820993687,62.84375989921864,73.31771988242167,62.84375989921864,22.69357996360668,15.71093997480466,3.4913199944010103,10.473959983203144,12.21961998040365,13.965279977604157,14.838109976204407,55.86111991041656,59.35243990481757,57.6332232323549,"{'neutral': (['m1', 'm3', 'm12', 'e1', 'e2'], 2.025204305870903, 80)}"
41,60,46,0,1.534866666666662,3.5861461329971007,133.27973737766226,17.93073066498539,21.51687679798249,36.04032259578428,36.26265858865304,44.97004372594885,87.93373645782914,66.44055563385056,64.55063039394736,75.30906879293866,62.75755732744881,24.206486397730373,18.82726719823461,2.6896095997478824,9.86190186574197,14.34458453198829,17.93073066498539,17.93073066498539,57.378338127953214,62.75755732744887,61.06986806348006,{}
42,60,47,0,1.5682333333333285,3.922888544804996,136.2208572805838,17.543690908678286,22.80679818128169,37.504127566116416,38.95331535501517,42.25080266758956,86.1250502806918,63.3762040013844,61.402918180373945,77.19223999818439,59.648549089506105,26.31553636301737,17.543690908678286,3.5087381817355663,14.034952726942606,17.63119115676061,17.54369090867823,16.66650636324431,56.139810907770425,56.139810907770425,63.157287271241785,{}
43,60,48,0,1.601599999999995,5.425367286720984,132.46244067264442,18.17475547681456,21.701469146883824,36.21429841700736,38.14941609738205,43.40293829376765,88.63278405895005,66.93729733304812,64.2001795595313,74.14668625185311,63.29595167841114,25.31838067136448,19.893013384643496,1.808455762240328,10.850734573441969,16.27610186016284,18.084557622403167,18.084557622403167,56.06212862944994,61.48749591617087,66.93729733304824,{}
44,60,49,0,1.6349666666666616,8.240419241993681,137.85164824214803,16.583523829375622,22.188007849009217,37.582094048941045,39.77656428492778,49.75057148812687,95.9752399546369,73.79662353090637,70.01932283514157,86.60284666451719,66.33409531750249,26.717899502882915,19.347444467604987,0.9213068794097126,15.662216949965796,20.268751347014582,18.51803909390217,18.42613758819516,55.27841276458548,60.80625404104399,71.88555596570608,{}
45,60,50,0,1.668333333333328,1.709386100351594,132.728079413565,15.479149488462612,22.22201930457072,36.26155509673932,37.95453087784246,46.15342470949304,85.48639716953902,63.270381308342685,62.392592662833295,80.34114671652503,63.24728571300909,25.640791505274024,13.675088802812752,6.837544401406376,13.675088802812752,13.675088802812752,13.781511332393482,13.675088802812752,49.57219691019634,54.70035521125112,66.753661181352,{}
46,60,51,0,1.7016999999999949,7.138974827586056,131.24845529396066,15.58310149734507,22.508924385054115,35.01652491397142,37.01429568513385,45.01784877010812,90.05234461395379,67.548967658031,64.0638617113076,83.1098746525073,64.06386171130771,28.569019411799445,16.44882935830867,4.328639304818125,16.448829358308785,17.31455721927233,17.31455721927233,17.31455721927233,53.67512737974431,57.13803882359878,67.52677315516223,{}
47,60,52,0,1.7350666666666612,5.596458562240661,134.41989813412218,17.697555887431577,23.00682265366106,37.83305332188584,39.57293799989855,47.81616291629825,93.86380567532906,70.87865609332457,68.13559016661156,84.94826825967152,63.7112011947537,26.54633383114742,19.4673114761747,1.7697555887432372,14.15804470994533,15.927800298688451,15.927800298688396,15.92780029868834,53.09266766229473,58.40193442852421,67.25071237223995,{}
48,60,53,0,1.7684333333333278,7.388280345771855,152.69229543375823,17.91921191605445,25.08689668247621,41.56330205392105,43.3407915340842,46.62439826998328,96.76374434669412,71.67684766421792,68.0930052810071,73.46876885582333,62.71724170619064,21.50305429926528,28.670739065687144,3.583842383210936,8.959605958027169,16.12729072444904,16.226536527177455,16.127290724448926,51.96571455655794,55.54955693976882,62.74283535822766,{}
49,60,54,0,1.8017999999999943,1.7311962403445025,136.13852494151462,15.676648706014287,24.23674736482201,42.12182249344104,41.872050907626736,45.01110224895524,86.57712224877494,62.3471044082222,61.45746653222727,77.90383081549942,60.59186841205508,24.23674736482201,17.31196240344434,5.193588721033279,13.84956992275545,12.118373682411004,13.84956992275545,12.983971802583255,51.935887210332965,57.1294759313663,65.80823208863768,{}
50,60,55,0,1.8351666666666608,3.921568627451033,131.953646049976,15.881142534365903,22.79912447646848,38.74224011052057,40.48912784044022,40.37502016073338,82.59534818447543,59.86014714695586,57.87470059411214,66.6435946235232,56.12092178823002,21.045345670586244,21.045345670586244,1.7537788058822343,10.52267283529318,12.401088863405398,14.139416766525413,14.90711984999865,54.36714298234784,57.8747005941122,66.64359462352309,{}
51,60,56,0,1.868533333333328,3.9923420478581857,134.09753371919132,14.283437133506368,23.210585341947763,35.88669165845973,37.53650863353276,44.671435363019285,85.77498344218719,62.59197886039544,60.70460781740201,64.27546710077866,57.13374853402547,16.068866775194692,24.996014983636087,1.7854296416883244,5.35628892506486,16.068866775194692,16.068866775194635,16.068866775194635,58.91917817571374,62.49003745909033,67.84632638415519,{}
52,60,57,0,1.901899999999994,3.5233744718453863,132.41983171811378,15.952756414221016,21.21352346961464,35.409475208679105,38.91694304027413,40.55708589288559,81.2097689571746,60.00090519289775,58.13567878544961,66.94411496506325,58.13567878544961,22.021090449033977,18.49771597718859,2.642530853884068,9.689279797574956,14.093497887381716,15.855185123304407,15.855185123304407,56.37399154952686,58.13567878544961,65.18242772914061,{}
53,60,58,0,1.9352666666666605,5.64686812282948,137.78821069972656,16.170169470118378,23.21405438916281,37.66930875460749,41.109820464473934,41.07101930390365,85.78780334582376,62.60133383902921,59.8208324643814,67.85646667601463,58.92798421864427,22.3212061434258,22.3212061434258,0.8928482457370137,9.821330703107378,17.946027636386276,17.946027636386333,17.856964914740672,57.142287727170185,57.142287727170185,67.87995861602096,{}
54,60,59,0,1.968633333333327,3.619576025433048,141.34896239778843,16.388327473532296,23.527244165314528,39.85644660179328,41.664448934497415,43.47259987177049,86.94519974354087,63.44591261889962,61.53279243236136,68.77194448322734,61.53279243236125,21.71745615259806,21.71745615259806,3.619576025433048,9.048940063582563,14.478304101731965,16.38832747353227,17.192986120806836,56.10342839421179,61.532792432361305,70.5817324959437,{}
55,60,60,0,2.0019999999999936,7.462329046335499,137.84828492614093,16.288925755317905,23.528448313236936,39.8584864946525,41.66658136272701,41.62725470803457,88.70261758173295,65.18083540524233,61.535941742311934,70.58534493971081,61.535941742311934,24.433388632976857,22.62350799349701,2.7148209592197645,11.764224156618525,14.479045115838062,14.479045115838176,15.383985435577983,57.91618046335248,61.53594174231199,66.96558366075124,{}
56,60,61,0,2.0353666666666603,9.062686155626306,126.3911726708848,14.218711862493931,24.882745759364525,35.72407142765521,37.36641227146986,44.575434914628,92.57530751608624,67.74902876294108,63.09553388981715,71.09355931247,63.98420338122298,23.105406776552627,24.88274575936464,1.1368683772161605e-13,12.441372879682149,12.441372879682262,14.21871186249399,15.10738135389994,56.874847449976016,58.6521864327878,67.5622633386659,{}
57,60,62,0,2.068733333333327,8.67847501550276,128.05699929427942,17.019889789336958,25.52983468400544,39.29346683854049,40.98932252378463,40.88317822167942,91.90740486241975,66.37757017841432,62.12259773108008,69.78154813628169,59.56961426267958,23.82784570507169,27.231823662939178,1.7019889789337412,10.211933873602106,13.72187383292694,13.615911831469589,13.615911831469589,54.46364732587836,57.86762528374578,57.89264912287597,{}
58,60,63,0,2.102099999999994,5.17198140339849,132.92651824830767,17.239938011328263,25.859907016992565,36.57143122513801,38.084267849810175,46.54783263058653,94.81965906230585,68.95975204531328,66.37376134361398,68.95975204531328,62.063776840782,18.96393181246117,29.30789461925815,5.17198140339849,6.895975204531396,12.190477075045978,13.899282381201834,13.79195040906268,55.16780163625066,58.6157892385163,67.25785709711714,{}
59,60,64,0,2.1354666666666606,10.340121964971104,126.55800528883834,15.510182947456656,25.85030491242776,36.557851798635184,38.07012668828449,43.11829481811875,94.80011690246346,68.95568498902745,63.764085450655216,75.8275610764548,62.04073178982674,25.85030491242776,25.85030491242776,1.7233536608284794,13.786829286628176,13.894121405073417,15.510182947456656,15.510182947456656,53.423963485684055,56.87067080734107,62.04073178982662,{}
60,60,65,0,2.1688333333333274,3.552714519899723,144.0602739175538,17.85216952117111,28.42171615919756,35.70433904234221,39.24101446329522,44.72753293995898,94.21394328032862,65.82116789348831,63.94886135819456,65.72521861814437,58.61978957834492,17.763572599498502,31.97443067909728,3.552714519899723,3.552714519899723,16.08559913177242,15.987215339548584,15.09903670957368,56.84343231839512,58.61978957834498,60.422264092202255,{}
61,60,66,0,2.202199999999994,16.120175076997953,156.19849821924905,16.21937709071328,25.075827897552244,41.5449635859555,45.347803863259536,46.87837302977909,103.94731749221404,78.89111783669163,70.74965728237964,69.85409200032416,59.107308615658894,17.911305641108697,39.40487241043934,14.329044512887094,7.164522256443433,16.120175076997953,16.21937709071328,16.12017507699784,60.898439179769696,62.68956974388056,68.06296143621307,{}
62,60,67,0,2.235566666666661,10.661508271060256,156.7318270535893,17.769180451766942,26.653770677650414,42.977913833452085,44.98797162436873,44.42295112941747,99.50741052989508,72.85363985224467,67.52288571671454,71.07672180706788,60.41521353600774,21.3230165421204,33.76144285835721,7.1076721807068,8.884590225883585,15.992262406590273,15.992262406590273,15.992262406590273,58.63829549083107,60.41521353600774,67.54626217083938,{}
63,60,68,0,2.268933333333328,8.803656037137557,153.54747212661474,17.607312074275228,28.226668540512343,40.83985576648525,44.57815362554466,44.15891402701102,98.74233357696572,70.517229903293,66.02742027853185,68.66851708967306,58.10412984510799,19.36804328170274,35.21462414855023,8.803656037137557,7.042924829710046,17.60731207427517,17.69512963687254,16.726946470561415,59.86486105253539,61.6255922599629,61.65074043169329,{}
64,60,69,0,2.3022999999999945,14.379561038245305,152.11624583734965,16.05208533199277,26.753475553321323,39.60157055874319,41.17679638281133,46.50968591326456,103.46214655768688,76.71403291118084,69.5590364386353,71.34260147552334,58.85764621730675,18.72743288732488,38.34664829309384,11.593172739772513,6.2424776291082935,16.05208533199277,17.924606782905165,16.943867850436845,55.29051614353057,60.64121125419484,60.66743448190897,{}
65,60,70,0,2.335666666666661,12.558389992022066,153.24323607796578,15.984220903459343,26.699503357676388,42.95630294314355,46.48301066977661,44.43611991477581,99.47323060848332,72.81700633798141,66.60092043108057,72.81700633798141,60.38483452417972,22.20030681036019,32.85645407933305,7.992110451729673,11.54415954138733,16.082586268210132,15.984220903459343,15.984220903459343,56.83278543452212,60.38483452417972,56.83278543452195,"{'happy': (['m1', 'm3', 'm12', 'e1', 'e2'], 2.8690906339723417, 100)}"
66,60,71,0,2.369033333333328,6.925822887708932,137.48456230301184,15.58310149734507,25.971835828908524,41.87832692983118,42.128135952837816,45.01784877010812,93.49860898407064,67.52677315516212,64.06386171130771,70.98968459901664,57.13803882359878,19.046012941199592,29.43474727276293,5.194367165781728,6.925822887708932,12.120190053490717,13.95944230994369,13.851645775417865,53.67512737974431,60.60095026745324,67.61550745514474,"{'happy': (['m1', 'm3', 'm12', 'e1', 'e2'], 2.8690906339723417, 100)}"
67,60,72,0,2.4023999999999948,5.523576436306862,140.61814967275967,17.467082368765887,27.947331790025373,40.51459539039745,42.49924565854477,45.41441415879126,96.08483088189116,68.14401125398891,65.50155888287202,75.10845418569318,59.38808005380395,21.8338529609573,28.8206859084637,4.3667705921915285,9.606895302821158,14.082412016775162,15.817115808874467,15.720374131889288,55.89466358005075,61.13478829068049,62.88149652755715,"{'happy': (['m1', 'm3', 'm12', 'e1', 'e2'], 2.8690906339723417, 100)}"
68,60,73,0,2.435766666666661,5.518370103136658,143.95438183337242,15.802207139528855,26.17592774653508,37.01835202684821,39.02076921025024,47.40662141858657,94.249496482568,68.07978105273456,65.43981936633782,75.03765954006735,59.33210289214628,20.06821127234366,27.04845867141956,2.617592774653531,7.852778323960592,13.960494798152126,15.802207139528882,16.5780875728056,54.09691734283928,61.07716474191528,66.33530765742546,"{'happy': (['m1', 'm3', 'm12', 'e1', 'e2'], 2.8690906339723417, 100)}"
69,60,74,0,2.4691333333333283,5.286138444919857,134.3321857425302,15.858415334759457,24.73149623185266,39.12377369298277,41.13538151853414,49.36874723525293,95.15049200855684,70.50386806869687,67.8387767098045,72.24389208057096,61.67161519073136,17.62046148306615,28.19273837290564,5.286138444919743,7.048184593226551,14.206070212044573,15.956006504087918,15.858415334759457,54.62343059750481,63.43366133903788,66.98093444078927,"{'happy': (['m1', 'm3', 'm12', 'e1', 'e2'], 2.8690906339723417, 100)}"
70,60,75,0,2.502499999999995,7.105569173890913,134.30001204053409,17.319489942529923,27.57365857325624,38.5353593488569,40.562927699085584,43.11829481811874,94.80011690246346,67.23288341967044,63.764085450655216,79.27426839811187,58.594024468169664,25.85030491242776,25.85030491242776,1.7233536608284794,13.786829286628176,13.786829286628176,15.605631128021262,14.64850611704236,55.14731714651259,58.59402446816961,67.29911185479237,"{'happy': (['m1', 'm3', 'm12', 'e1', 'e2'], 2.8690906339723417, 100)}"
71,60,76,0,2.535866666666662,7.1076721807068,148.1676908140777,15.992262406590273,26.712935613220264,37.694123980715744,41.21530666790834,49.785425832572216,99.50741052989508,72.87530636271691,69.29980376189121,76.40747594259801,62.19213158118441,19.54609849694361,30.20760676800387,5.330754135530128,8.884590225883471,14.2153443614136,15.992262406590273,15.992262406590273,55.08445940047767,60.41521353600774,69.32258101928913,"{'happy': (['m1', 'm3', 'm12', 'e1', 'e2'], 2.8690906339723417, 100)}"
72,60,77,0,2.5692333333333286,2.4919095604624406,133.32298357621352,17.62046148306615,24.668646076292475,37.37864340693708,39.12377369298299,45.84707283646336,89.93342686635157,65.29088375332684,64.31468441319123,81.05412282210398,63.43366133903794,26.43069222459917,17.620461483066038,5.286138444919857,14.096369186452876,14.096369186452876,15.956006504087972,15.858415334759512,54.62343059750481,58.147522894118026,66.98093444078927,"{'happy': (['m1', 'm3', 'm12', 'e1', 'e2'], 2.8690906339723417, 100)}"
73,60,78,0,2.602599999999996,7.048389757655286,135.07370536144273,17.620974394138216,26.43146159120738,39.401696575076336,40.8715452810626,44.05243598534548,95.15326172834637,68.72180013713898,65.19760525831134,82.81857965244956,65.19760525831134,29.95565647003491,21.145169272965973,1.7620974394137647,17.620974394138102,12.459910485209583,14.09677951531063,14.096779515310573,54.62502062182841,56.38711806124224,65.29278429476382,"{'happy': (['m1', 'm3', 'm12', 'e1', 'e2'], 2.8690906339723417, 100)}"
74,60,79,0,2.635966666666662,2.4592926539139754,135.91903337014384,15.650842612543329,22.673557956253525,36.88938980870935,36.88938980870923,48.72255371340966,88.70515534754033,66.08133547518298,65.21184421893065,69.55930050019265,60.86438793766854,16.520333868795774,23.476263918815,0.8694912562523314,6.086438793766888,12.172877587533776,15.747156399216944,15.650842612543329,53.90845788764926,55.647440400154096,64.36584843651687,"{'happy': (['m1', 'm3', 'm12', 'e1', 'e2'], 2.8690906339723417, 100)}"
75,60,80,0,2.669333333333329,5.216158898211688,133.77975964507638,17.473916049010374,26.08079449105867,37.169580362152814,38.87895292613949,45.2401350105969,93.95523512235248,67.89917224039299,65.20198622764667,79.98110310591323,59.11646751306637,24.34207485832144,24.34207485832144,0.0,12.17103742916072,15.648476694635178,17.387196327372465,16.51783651100385,55.63902824759185,59.11646751306631,60.8551871458036,"{'happy': (['m1', 'm3', 'm12', 'e1', 'e2'], 2.8690906339723417, 100)}"
76,60,81,0,2.702699999999996,8.848171747370316,143.15455948941008,16.024720588164833,24.77488089263693,39.57022700742616,41.3125298584699,47.91103213983826,97.34597547673592,72.57658602655773,68.13092245475138,81.40318007580686,60.16756788211808,23.005246543162684,26.54451524211106,5.30890304842228,12.387440446318353,17.69634349474063,15.926709145266614,16.811526320003622,54.85866483369591,60.16756788211808,69.0157396294884,"{'happy': (['m1', 'm3', 'm12', 'e1', 'e2'], 2.8690906339723417, 100)}"
77,60,82,0,2.7360666666666624,8.691627682615945,136.9310703898576,17.469955431076293,27.81320858437107,38.870140666896425,40.58161826068679,43.45813841307972,97.36174957190904,69.55474713602761,65.18720761961958,78.2246491435435,59.10306824178849,25.20572027958633,28.68237135263257,2.607488304784738,13.03744152392403,13.90660429218542,13.906604292185534,13.906604292185534,55.62641716874202,59.10306824178838,69.55474713602761,"{'happy': (['m1', 'm3', 'm12', 'e1', 'e2'], 2.8690906339723417, 100)}"
78,60,83,0,2.769433333333329,1.7618410286580684,138.54838246138294,17.618410286580456,26.42761542987091,39.119219297675166,41.13059295212364,45.80786674510955,91.615733490219,65.18811806034807,64.3071975460191,79.28284628961251,61.66443600303205,24.66577440121273,21.142092343896707,3.5236820573161367,12.332887200606365,15.954149066670896,17.61841028658057,16.737489772251593,54.61707188839972,59.90259497437387,70.47364114632228,"{'happy': (['m1', 'm3', 'm12', 'e1', 'e2'], 2.8690906339723417, 100)}"
79,60,84,0,2.802799999999996,1.7315368338531698,127.5826607817322,17.315368338529765,24.241515673941763,36.52680952547546,36.73144311275168,43.323037741777625,84.91595042045982,60.70265350699436,60.60378918485424,76.18762068953106,58.87225235100129,24.24151567394165,17.31536833852988,5.194610501558827,10.389221003117768,13.852294670823769,15.679732911409792,14.718063087750352,57.14071551714829,62.33532601870724,67.61867497710337,"{'happy': (['m1', 'm3', 'm12', 'e1', 'e2'], 2.8690906339723417, 100)}"
80,60,85,0,2.8361666666666627,10.532033988209369,135.76202879186275,17.314557219272388,24.24038010698132,34.801829297693544,37.01429568513385,41.69897566915586,93.51463960724628,69.27986869292046,64.06386171130782,74.45259604287116,60.6009502674533,25.971835828908524,25.971835828908524,3.462911443854523,12.12019005349066,13.959442309943746,17.400914648846825,17.314557219272388,57.13803882359878,62.3324059893805,60.6998099584036,"{'happy': (['m1', 'm3', 'm12', 'e1', 'e2'], 2.8690906339723417, 100)}"
81,60,86,0,2.869533333333329,5.2142380872860485,144.52210897255304,17.467481412045174,26.07119043643001,42.038531420695,42.03853142069489,43.45198406071677,92.13460172477149,66.06988127956,63.43989672864643,66.04701577228946,57.35661896014608,18.249833305501056,30.416388842501647,4.345198406071631,6.083277768500352,15.642714261858032,15.738978027439874,13.904634899429311,55.61853959771736,57.35661896014602,62.59499238373844,"{'happy': (['m1', 'm3', 'm12', 'e1', 'e2'], 2.8690906339723417, 100)}"
82,60,87,0,2.9028999999999963,7.042924829710046,155.58329472211915,15.846580866847717,28.226668540512343,40.83985576648527,44.89001392432333,45.81285909562717,96.84021640851324,68.69108685760861,65.14705467481804,70.42924829710057,56.343398637680366,17.607312074275228,33.45389294112272,7.042924829710046,7.042924829710159,14.085849659420148,12.325118451992635,12.325118451992694,59.86486105253539,54.582667430252855,68.66851708967295,"{'happy': (['m1', 'm3', 'm12', 'e1', 'e2'], 2.8690906339723417, 100)}"
83,60,88,0,2.936266666666663,15.946725798445604,156.88910684853573,15.849191392375246,24.65429772147263,40.656333012093896,42.41100825525947,42.2645103796674,98.63291303678928,73.98385473297375,66.03829746823021,61.63574430368158,54.59165924040372,15.849191392375246,40.50348911384788,15.849191392375246,3.522042531638931,15.849191392375246,15.946725798445636,15.849191392375303,63.39676556950104,58.113701772042646,61.66089661825798,"{'happy': (['m1', 'm3', 'm12', 'e1', 'e2'], 2.8690906339723417, 100)}"
84,60,89,0,2.96963333333333,19.79619101948003,163.57774659435614,16.130366304739482,25.09168091848369,45.12802729591622,46.90800969150383,43.01431014597199,103.96669891381342,78.87993259576213,69.00212252583003,69.89825398720438,57.35241352796254,20.611023611611472,40.32591576184882,15.23423484336513,9.85744607511856,17.922629227488358,18.012019453972407,17.02649776611395,64.52146521895793,59.14467645071147,68.10599106445557,"{'happy': (['m1', 'm3', 'm12', 'e1', 'e2'], 2.8690906339723417, 100)}"
85,60,90,0,3.002999999999997,11.337200844528438,160.18184994472423,17.925688479747123,23.30339502367121,38.32074510172436,41.847941116947695,43.02165235139307,95.073768986055,71.79232641352374,66.32504737506429,69.91018507101376,55.5696342872161,19.71825732772185,32.266239263544776,8.962844239873561,7.1702753918988265,14.452152083942687,12.675375881466756,11.651697511835664,59.15477198316546,57.362203135190725,68.11761622303902,"{'happy': (['m1', 'm3', 'm12', 'e1', 'e2'], 2.8690906339723417, 100)}"
86,60,91,0,3.036366666666664,16.39465975271844,166.0182615640216,16.394659752718553,25.567779462059008,44.05932420735778,45.68621941891606,43.71909267391607,102.02747948615011,76.50841217935306,68.31108230299378,63.75701014946094,54.64886584239503,15.483845322011916,42.80827824320943,17.305474183425076,4.554072153532957,16.495550918843026,12.880861207103846,12.751402029892231,67.4002678722872,60.11375242663456,61.962164156883496,"{'happy': (['m1', 'm3', 'm12', 'e1', 'e2'], 2.8690906339723417, 100)}"
87,60,92,0,3.06973333333333,7.357997512131613,155.51435102843772,17.845765256206278,24.98407135868865,39.62402925331431,42.97829403270654,44.65009040582567,94.582555857893,69.59848449920435,66.02933144796305,67.8139079735837,58.89102534548056,18.73805351901649,31.23008919836093,8.030594365292814,6.246017839672163,14.276612204964977,14.27661220496492,13.384323942154651,58.89102534548061,58.89102534548061,66.0534429446396,"{'happy': (['m1', 'm3', 'm12', 'e1', 'e2'], 2.8690906339723417, 100)}"
88,60,93,0,3.103099999999997,14.558825557795071,161.21254154924085,16.252200575925144,27.08700095987524,43.67647667338488,47.26231058371956,45.14500159979218,102.9464427802886,75.86509726160877,68.62040243168417,70.42620249567574,57.78560204773396,18.96090067191267,38.82470137582129,11.737700415946051,8.126100287962572,19.863800703908566,18.058000639916884,17.155100607921042,61.397202175717325,55.97980198374228,59.61875644050686,"{'happy': (['m1', 'm3', 'm12', 'e1', 'e2'], 2.8690906339723417, 100)}"
89,60,94,0,3.136466666666664,21.46097235430217,158.97911425953308,14.257893978326932,21.460972354302285,44.87557464848513,46.64559956764255,48.12039217685356,105.21236554952998,83.7840849427898,73.07170663892566,74.85394338621666,64.16052290247137,21.386840967490457,35.644734945817504,14.257893978326932,12.475657231036053,16.04013072561787,14.25789397832699,14.25789397832699,53.4671024187262,51.68486567143532,58.84081005135305,{}
90,60,95,0,3.1698333333333304,17.80593782358767,169.2407322229983,14.244750258870113,24.92831295302267,48.20774752701947,51.759873589679685,46.32966787527693,103.28978818262644,78.36635783185015,69.44315751199179,62.32078238255679,56.97900103548045,13.35445336769078,43.62454766778967,18.696234714767,4.451484455897003,12.464156476511334,9.079282442029362,8.902968911793835,58.759594817839286,56.97900103548051,69.46598188648221,{}
91,60,96,0,3.203199999999997,7.264749963294102,152.18281895329258,19.38156740388252,28.2463783743102,37.66641705765177,40.86837300961402,42.616143266215,96.9238535201446,68.80676387942535,65.19254490396816,70.47842692320887,56.38274153856708,21.14352807696264,33.47725278852431,5.2858820192407165,8.80980336540108,21.21681608900806,21.21681608900806,21.143528076962696,65.19254490396827,72.24038759628917,79.36650101871436,{}
92,60,97,0,3.236566666666664,24.08470214007624,136.29766957470494,17.245224542369087,25.796595045632007,38.3701210022378,40.78799811060606,39.50445743039596,106.4451058778666,80.66855980436618,68.63855909271717,82.36627091126059,56.62681125149163,30.029369603063746,36.89322551233545,14.585693807202349,18.01762176183832,22.37343297634425,24.08470214007624,24.02349568245097,60.05873920612743,75.50241500198877,77.38978513689592,{}
93,60,98,0,3.2699333333333307,30.088201033227392,151.47854163438407,16.0270734393869,25.03008351094008,39.57603695939747,41.05238929366812,40.70756610377816,111.62968266742789,86.74287300741955,71.68071422621813,74.33555549385574,56.636613709604376,24.77851849795195,46.01724863905349,21.23873014110165,14.159153427401066,24.84164858370248,26.607343742621893,25.663465587164524,61.94629624487976,76.10544967228083,74.52494575110761,{}
94,60,99,0,3.303299999999997,10.88618520447094,148.58637783708323,21.55057477403433,27.08273983209728,36.50240857484916,38.25894205169771,41.16258993437236,100.477301083331,73.46404023732529,68.00775728287613,82.32517986874484,59.05936816670828,29.52968408335425,29.529684083354027,4.474194558083923,13.422583674251996,26.90475713847176,27.08273983209728,26.845167348503765,62.63872381317543,84.11485769197839,81.03110981281739,{}
95,60,100,0,3.336666666666664,9.428090415820634,153.51160205603986,20.422879745374274,26.47366051105704,37.71236166328262,38.11812499312445,46.22501635210233,102.11439872687112,75.89916837939501,71.18652518223769,86.90303074195253,62.86602223885927,28.65951013830363,26.810509484219324,4.622501635210142,13.867504905630769,27.79657483665161,27.980457160417945,28.65951013830352,66.56402354702749,85.05403008786845,81.69151898149708,{}
96,60,101,0,3.370033333333331,22.56463459830515,156.556828664031,18.83237055235183,26.50081936417177,40.451745139682494,42.73128725101079,48.721163606454525,116.422777584837,90.02480850999987,78.7034181335033,88.07287267320612,58.090618146157226,24.360581803227205,43.09949088263284,18.73890907940552,13.11723635558394,28.17075739980873,28.35711504866921,28.10836361910833,69.3339635938006,89.94676358114668,85.07134514600764,{}
97,60,102,0,3.4033999999999978,24.20623282167013,155.10666382638996,18.65792883800775,26.25534584034941,40.07704606763729,42.335473087123134,48.26986602388365,117.1971115899934,91.0458774573905,78.90266561596366,89.11359881332373,59.40906587554912,25.99146632055283,42.70026609805086,18.565333086109035,14.852266468887365,26.255345840349467,28.09444690770449,27.847999629163667,66.8351991099928,89.11359881332373,84.54873642158228,{}
98,60,103,0,3.4367666666666645,25.707851566966987,153.02429309611904,18.40743847259543,25.902857028184204,39.53899524745831,41.76710195570928,47.657033452821295,117.3516637956949,91.59874353828744,78.75916918395887,89.74882069799969,60.44308332722426,27.474128785101925,42.12699747048964,20.14769444240801,16.484477271061223,24.09104962268155,25.902857028184147,25.64252019942841,64.10630049857122,86.08560352665279,83.4136348749282,{}
99,60,104,0,3.470133333333332,29.10440823610569,153.12607203020266,18.24537940080261,25.67480829815483,39.1908939687845,40.95916579984395,47.23746097307308,119.94560401921066,94.4225764317686,79.88125663447568,90.77415526644972,63.54190868651483,29.955471237928464,42.66385297523118,19.0625726059543,19.06257260595453,23.87895204342429,25.67480829815483,25.416763474605887,59.91094247585676,83.51222284513369,82.97770745254681,{}
100,60,105,0,3.503499999999998,30.50889013273672,151.10691545954825,18.004791516500717,25.33625420878144,38.67411357980351,40.41906856064256,46.71774441182696,120.08689598687822,94.95181695274664,79.72369536598535,91.36872952056753,64.49557377922406,31.352015031567248,42.10127732810463,20.602752735029867,20.602752735029867,21.795069975241603,23.56407853900037,23.29006830916427,57.32939891486586,80.61946722403007,81.88354379380932,{}
101,60,106,0,3.536866666666665,32.011112247079964,149.46138798711334,18.10821963458724,24.922533982608886,38.33116704155795,41.79400267029542,48.237774689833614,122.53320109372594,97.66113634663714,81.68022312627829,92.33416527318424,67.47496693040387,31.961826440717687,42.61576858762339,21.30788429381176,21.30788429381176,21.60180003038797,23.35512173524007,23.083541318296056,55.045367759013686,79.90456610179405,79.40979622943857,{}
102,60,107,0,3.570233333333332,42.19733185948053,161.51683157047273,14.777594146611571,22.29861628572541,44.93495308108307,48.52952779528079,45.82337419605028,124.85503100399376,102.70979930124136,81.56560606896937,86.14794348857436,60.48685393878634,27.494024517630123,51.32217909957615,31.15989445331411,20.16228464626215,20.49283593215555,22.298616285725466,21.995219614104087,58.65391897094423,84.3150085207323,79.57977993244957,{}
103,60,108,0,3.6035999999999984,35.325107895988765,156.6530272295143,17.04694373189202,22.494063794319228,43.52030668569683,45.32880822061019,48.21603804530526,122.92725943057182,100.46047826039702,82.28052910674239,96.14803401237305,64.71502289294347,32.35751144647179,41.60251471689208,21.263507521967085,21.2635075219672,20.672455764868047,22.494063794319302,22.188007849009185,61.01702158477519,85.05403008786845,82.68982305947222,{}
104,60,109,0,3.636966666666665,18.972890642378363,146.7040801651712,16.847045936233847,24.257234940897423,36.55194454740906,38.354056075527815,57.70379414545263,117.34084821272886,93.09663768594058,83.72002466661024,106.04536457770632,74.4177997036536,32.55778737034848,26.9764523925744,6.511557474069605,21.39511741480044,22.402724336929147,20.549286595789567,21.395117414800325,59.534239762922766,81.85957967401885,81.05222435399055,{}
105,60,110,0,3.670333333333332,32.14253684653329,135.9242329177775,17.946027636386276,26.844904598150286,35.083369513629016,38.54788934822309,52.06155170289658,128.58254745824402,101.8473367584203,85.71343159075514,110.7131824713922,87.49912808222928,47.320957024062864,29.46399210932202,6.24993772015921,33.0353850922703,23.28263372435933,25.25356196524677,24.10690263489988,53.57089474422202,73.21355615043677,70.46151092046618,{}
106,60,111,0,3.703699999999999,35.047707214748726,174.15081130792987,20.59493062566827,27.875525803403075,46.963667562017335,48.77130044612218,46.088491478028,129.41746907313473,101.5812463122908,83.81403006501353,99.47159612111489,68.15646400891205,37.7623651941268,45.1306315734688,21.18376584060786,24.86789903027864,24.22860325703708,24.22860325703708,23.946865732860942,53.41993125022839,82.89299676759572,80.56804246755698,{}
107,60,112,0,3.7370666666666654,38.28780028577911,170.14744602850334,20.29249356651644,27.46617302627921,47.74561125312365,51.62435888407819,47.22530210085218,132.80658026521516,105.4116426408849,86.21325059064498,101.6408849068656,68.97060047251603,38.11533184007453,47.19041084961623,21.7801896228998,23.595205424808,22.080620223494112,25.6681996298022,25.41022122671643,49.00542665152449,78.0456794820575,84.19795508949518,{}
108,60,113,0,3.770433333333332,27.412044658632265,168.77517525211672,20.00799659664005,25.617614579418024,42.63620796422583,46.57194964916558,48.9423839335557,121.85208963630308,96.27929811982928,82.42046989053063,97.8177005294209,61.58892255556134,30.79446127778056,41.66309466993869,19.92582788562288,18.114388986929725,23.82575881015671,25.617614579417967,26.26586403104824,52.53172806209648,86.94906713726306,85.61803848594894,{}
109,60,114,0,3.803799999999999,18.09841449498108,146.78566877735108,19.841699461957194,26.856016919319394,38.31041169113179,40.46928509574519,42.62965002528544,107.2039511950362,80.35275860624542,70.98782205769146,101.1576464322104,63.88903985192235,39.93064990745154,23.95838994447081,2.66204332716336,25.7330854959132,25.097985179328795,25.097985179328827,24.845737720192005,51.4661709918264,79.86129981490302,77.05122326142897,"{'neutral': (['m1', 'm3', 'm12', 'e1', 'e2'], 4.377836819764282, 120)}"
110,60,115,0,3.8371666666666657,18.522763927263995,165.72241105467052,18.25365377913861,23.68173858203921,44.52729963035176,48.08926407824951,50.88900393650366,111.1662635169947,87.48490296858468,78.10117678007805,87.18270896380795,59.93811241261801,22.70383045932499,37.23428195329302,15.438604712340975,11.805991838848968,25.49307567196424,25.49307567196425,25.428290114444,52.672886665634,78.10117678007799,77.05935588815235,"{'neutral': (['m1', 'm3', 'm12', 'e1', 'e2'], 4.377836819764282, 120)}"
111,60,116,0,3.870533333333333,16.504805752246252,157.29307571378106,19.77337805534444,27.09060448341663,40.38869730884453,43.03926774297853,48.36847386362156,111.22300047090354,84.21542826309378,76.08339519590857,98.46086437117572,66.23730875879096,34.0137531464062,28.64316054434198,7.160790136085439,21.482370408256543,23.5463722783618,25.317216319399044,25.062765476299266,53.70592602064136,76.97849396291929,74.17987584898924,"{'neutral': (['m1', 'm3', 'm12', 'e1', 'e2'], 4.377836819764282, 120)}"
112,60,117,0,3.9038999999999993,16.60909597074798,166.78829315953658,18.43315840673463,29.40394691528343,42.819078775107634,46.76228739366423,49.522530998878665,113.8514517685504,84.45142825453242,76.1179643130913,86.2058872943444,62.3617057022916,24.76126549943933,39.43460801762569,11.922090796026396,11.922090796026396,22.086305214969364,24.12471102595399,23.84418159205273,55.02503444319859,78.86921603525133,75.75801411805772,"{'neutral': (['m1', 'm3', 'm12', 'e1', 'e2'], 4.377836819764282, 120)}"
113,60,118,0,3.937266666666666,19.154891893338004,147.5328550989549,17.500389187642227,22.70447587317195,38.937854886512085,40.98660085716659,45.40895174634389,104.71315161027007,82.01018488865536,72.2661830521389,90.5503980412342,60.947383296984526,30.473691648492263,28.732337840007062,9.57744594666906,18.28421498909529,22.704475873171933,26.35146479360668,25.24963022303649,48.75790663758761,69.65415233941087,68.46864999005193,"{'neutral': (['m1', 'm3', 'm12', 'e1', 'e2'], 4.377836819764282, 120)}"
114,60,119,0,3.970633333333333,11.032121796124324,148.5449698345113,17.530315772809637,24.482860908669817,35.960317473891244,37.65494438889365,47.12924497244292,99.56451721061244,75.08734731703136,69.77326460028155,81.98358590533076,57.56294329523223,22.676310995091512,29.653637455119565,8.72165807503518,12.21032130504932,24.42064261009847,24.482860908669817,24.420642610098525,52.32994845021108,73.26192783029552,64.9163269494785,"{'neutral': (['m1', 'm3', 'm12', 'e1', 'e2'], 4.377836819764282, 120)}"
115,60,120,0,4.004,5.391393780477923,134.08213149142875,13.639267287340772,22.424569010436823,35.14758730108615,35.14758730108615,46.15864384370165,87.36719935385239,64.98810304982251,62.2291569984925,86.95032895679776,59.6717943821161,27.278534574681657,13.639267287340772,3.4098168218353067,18.753992520093675,22.2292860262085,23.929529871158472,24.721171958305263,49.44234391661047,68.19633643670409,66.8402379105747,"{'neutral': (['m1', 'm3', 'm12', 'e1', 'e2'], 4.377836819764282, 120)}"
116,60,121,0,4.037366666666666,1.7743463119176113,141.2807582491791,14.30523730142273,19.83779484536897,34.45157358742969,34.86037386720953,49.80827451013641,82.10067387611397,62.32983367469926,62.98929407307514,88.71731559588034,60.32777460519867,24.840848366846444,7.097385247670445,8.871731559587943,14.194770495340777,21.36595893048716,23.134645488631435,23.06650205492889,51.45604304561061,69.19950616478667,67.79767738306948,"{'neutral': (['m1', 'm3', 'm12', 'e1', 'e2'], 4.377836819764282, 120)}"
117,60,122,0,4.070733333333333,3.8950775414194254,136.65006783480416,13.935453056394408,19.240263743242668,32.541968409211734,34.22352645393655,48.80518170672181,78.56092348637965,59.32805357039241,60.96760712172545,87.09658160246488,60.96760712172534,25.2580086647148,4.3548290801231815,9.580623976271111,16.548350504468317,22.71200977070868,22.71200977070873,22.645111216640885,50.51601732942965,66.19340201787332,66.39936297131467,"{'neutral': (['m1', 'm3', 'm12', 'e1', 'e2'], 4.377836819764282, 120)}"
118,60,123,0,4.1041,1.743469791033931,132.42338840536803,14.056302831688102,19.25725326453025,30.448390897314283,32.14799449676985,47.10595977093635,82.109838456583,62.86169728795473,61.89317758170603,80.19961038756276,59.27797289515502,22.66510728344156,12.204288537237858,3.486939582067862,13.947758328271677,22.73206491021364,24.65638624068022,24.4085770744756,47.073684357917216,66.25185205929091,66.61788717665958,"{'neutral': (['m1', 'm3', 'm12', 'e1', 'e2'], 4.377836819764282, 120)}"
119,60,124,0,4.137466666666667,2.5000732454063663,149.10584391174646,17.766358510849145,26.75195195886447,38.16196184878807,40.312469788181815,49.49892486811598,95.723753043292,69.03552891230909,68.06102169365954,86.6231185192031,60.10583733985516,23.865553061413152,22.09773431612325,0.8839093726448937,13.258640589673972,24.81251849150039,25.000732454063098,24.74946243405805,53.03456235869578,70.71274981159439,70.80108557347074,"{'neutral': (['m1', 'm3', 'm12', 'e1', 'e2'], 4.377836819764282, 120)}"
120,60,125,0,4.170833333333333,5.535888112417396,145.93130282279262,15.852371083982243,24.570863369164,40.86820423054624,41.20426638715357,47.298648766152944,92.8479180620026,68.29589961927199,65.64755740158455,85.77947500473715,59.52045204410331,25.383722195279347,20.131917603152715,0.8753007653543818,14.880113011025742,24.57086336916395,24.57086336916401,24.508421429924965,49.01684285984987,66.5228581669391,70.22072772612486,"{'neutral': (['m1', 'm3', 'm12', 'e1', 'e2'], 4.377836819764282, 120)}"
121,60,126,0,4.2042,1.7343992565117787,133.7288186703859,17.34399256511756,22.61379960926632,31.64981643026059,34.07553875526507,43.39465553381927,83.41360576324767,60.80300173375423,60.70397397791157,83.25116431256447,60.70397397791157,28.617587732444008,11.273595167326448,7.804796654302891,14.742393680350006,20.884932684673444,22.61379960926632,21.679990706397007,46.82877992581757,62.43837323442341,74.9011519039838,"{'neutral': (['m1', 'm3', 'm12', 'e1', 'e2'], 4.377836819764282, 120)}"
122,60,127,0,4.237566666666667,2.443001501556936,128.73945722568897,15.54716635379873,20.801408231276145,33.541262937625504,33.541262937625284,44.94724429753584,83.08001235729967,62.28456164087748,61.32493395109486,86.37314640999284,60.46120248699504,28.50313831529764,9.501046105099247,9.501046105099247,16.41089781789867,22.52336095283784,24.430015015569825,23.32074953069809,48.36896198959607,63.916128343394746,67.4595838755685,"{'neutral': (['m1', 'm3', 'm12', 'e1', 'e2'], 4.377836819764282, 120)}"
123,60,128,0,4.270933333333334,2.4549581149359407,140.6950181855524,15.623257775401612,22.832430300710303,35.4059094500725,37.913011144493424,45.13385579560486,85.21923088152441,62.51713641826075,61.62507233630652,83.3240414688089,60.75711357100647,26.906721724302884,13.019381479501362,6.0757113571006585,14.755299010101568,22.633595481444363,24.549581149359987,24.302845428402577,48.60569085680527,64.22894863220694,66.17011602630353,"{'neutral': (['m1', 'm3', 'm12', 'e1', 'e2'], 4.377836819764282, 120)}"
124,60,129,0,4.3043000000000005,0.0,129.21826629300193,17.519611040921177,22.842778087237715,32.72933440933136,32.72933440933136,47.43254717611622,87.75559004998762,64.91719237748632,64.82256085140853,91.10197741279046,63.070599747316464,29.78333876956617,10.511766624552592,8.759805520460645,17.51961104092129,21.09640533329066,22.84277808723776,22.775494353197644,49.05491091457941,66.57452195550064,63.45873017836245,"{'neutral': (['m1', 'm3', 'm12', 'e1', 'e2'], 4.377836819764282, 120)}"
125,60,130,0,4.337666666666667,2.465638624067972,131.64062855640768,17.434697910339764,22.73206491021369,32.14799449676987,34.25374648308909,43.7259999062801,85.71419524736554,62.98246915200832,61.89317758170591,87.17348955169848,61.02144268618895,30.510721343094588,11.33255364172078,6.102144268618986,16.5629630148228,20.994156384002828,22.73206491021364,22.66510728344156,43.58674477584924,62.764912477222936,56.22521132675232,"{'neutral': (['m1', 'm3', 'm12', 'e1', 'e2'], 4.377836819764282, 120)}"
126,60,131,0,4.371033333333334,3.919158505918978,131.3941361531655,17.527009667662355,22.85242471628689,34.031297006528284,34.031297006528284,47.614146858162265,91.56080325514368,68.71392554260302,66.60263673711711,84.12964640477946,63.09723480358457,26.29051450149348,17.52700966766247,1.752700966766156,14.021607734129816,16.15910448344157,17.614426717019064,18.40336015104549,43.817524169156,64.84993577035084,61.74385153615712,"{'neutral': (['m1', 'm3', 'm12', 'e1', 'e2'], 4.377836819764282, 120)}"
127,60,132,0,4.404400000000001,19.64207423139419,164.7540045786779,19.64207423139408,26.844102127868165,46.734752662412745,48.50905829377041,46.42672091056807,112.50968693071862,85.71086937335633,75.88983225765924,73.21136758974183,60.71186580612744,20.534895787366622,45.53389935459552,18.749252675421644,8.03539400375223,17.94549117875771,19.723072819285395,18.749252675421644,49.99800713445785,66.06879514196214,57.5852600598955,"{'neutral': (['m1', 'm3', 'm12', 'e1', 'e2'], 4.377836819764282, 120)}"
128,60,133,0,4.437766666666668,14.083257552553732,149.13672703279772,17.691873342921927,24.708492412920275,41.09711974661005,43.156912851214464,45.80442851958805,102.11879205245047,77.45791653904541,70.41628776276855,82.73913812125306,63.37465898649168,27.2863115080728,29.046718702142016,6.161425179242201,14.963461149588396,16.230152388659313,15.941165142244587,15.843664746622949,42.24977265766108,61.61425179242247,58.33299898724429,"{'neutral': (['m1', 'm3', 'm12', 'e1', 'e2'], 4.377836819764282, 120)}"
129,60,134,0,4.471133333333334,10.705648040830283,135.8160065073872,17.84274673471714,23.26409548567783,38.14343590251677,40.25507148409786,46.52819097135576,98.2809847271133,75.02445363462559,69.58671226539673,90.99800834705718,67.80243759192501,33.00908145922665,18.73488407145294,0.8921373367358001,20.519158744924653,13.588631071699986,12.616727211112632,12.489922714301995,37.469768142905934,58.88106422456645,52.23386015418006,"{'neutral': (['m1', 'm3', 'm12', 'e1', 'e2'], 4.377836819764282, 120)}"
130,60,135,0,4.504500000000001,9.350579741320956,135.0570398103578,15.627231604944882,26.10320047673477,36.83373813009751,38.55342793422732,43.547663860199776,94.16446678605888,68.07324804529733,63.37710595338774,83.34523522637289,64.24528548699573,30.386283676281664,19.968129272985152,4.3408976680401565,18.231770205769067,16.008439614022418,17.363590672161024,17.363590672161024,34.72718134432205,52.09077201648307,50.47401979936316,"{'neutral': (['m1', 'm3', 'm12', 'e1', 'e2'], 4.377836819764282, 120)}"
131,60,136,0,4.537866666666668,12.374731217028966,144.28043781814733,19.446006198188456,26.751951958864503,41.004249981125646,44.51253863429572,40.81326501192535,99.25007396600154,72.56675237871671,66.29320294836975,81.31966228333351,63.64147483043496,31.820737415217422,26.517281179347947,0.0,17.678187452898555,16.008279593018507,15.910368707608768,15.910368707608768,37.12419365108701,51.266743613405936,54.83088689582448,"{'neutral': (['m1', 'm3', 'm12', 'e1', 'e2'], 4.377836819764282, 120)}"
132,60,137,0,4.571233333333335,12.677285523447074,138.15333280286282,17.928389121334817,26.89258368200228,39.48318138090061,41.27425133634519,43.1772786499889,100.5429432754216,73.70290772156395,67.23145920500576,78.8849121338734,73.50639539747294,33.167519874469576,24.203325313802,4.482097280333846,17.031969665268207,21.58863932499446,21.58863932499445,20.617647489535045,43.02813389120365,50.19948953973756,44.82097280333721,"{'neutral': (['m1', 'm3', 'm12', 'e1', 'e2'], 4.377836819764282, 120)}"
133,60,138,0,4.604600000000001,19.64266140621476,137.49862984350307,17.85696491474073,26.78544737211098,39.325885882411576,41.07101930390354,42.893901672911824,107.15666925929398,80.3761807395501,70.53501141322567,76.78494913338488,76.78494913338488,33.92823333800732,30.35684035505915,1.7856964914740274,19.64266140621476,10.861967708823432,12.62678098262342,12.499875440318531,39.285322812429456,42.856715795377625,42.89390167291194,"{'neutral': (['m1', 'm3', 'm12', 'e1', 'e2'], 4.377836819764282, 120)}"
134,60,139,0,4.637966666666668,14.545454545454504,134.5577389969338,14.545454545454618,27.27272727272725,36.36363636363626,38.22508371205191,45.49089455707922,101.83441429047592,74.56762419785406,67.27272727272725,76.36363636363637,78.18181818181813,31.81818181818187,24.545454545454504,4.545454545454504,19.09090909090912,9.270944570168684,11.059568236905909,10.909090909090878,41.81818181818181,40.0,40.0,{}
135,60,140,0,4.671333333333335,5.423150679631135,133.9663364060601,16.269452038893178,20.21088928646547,38.00507126386112,39.81083492604856,48.84182088311849,90.40392002209472,70.5241308847485,67.7893834953885,70.50095883520407,77.73182640804555,25.308036504945107,16.269452038893178,5.423150679631135,10.84630135926227,10.99591258340708,12.782488736545194,11.750159805867384,47.00063922346942,41.57748854383834,38.00507126386112,{}
136,60,141,0,4.704700000000002,7.162727239639935,130.73203649199874,16.215313448591765,21.56266437455392,35.81363619819945,39.39499981801941,48.34840886756933,93.18430104089096,71.64965242268998,68.04590877657904,76.99931782612884,75.20863601621897,27.75556805360464,17.01147719414473,4.476704524774959,13.430113574324878,16.116136289189797,17.996129466598862,17.906818099099723,48.34840886756933,41.1856816279294,35.81363619819945,{}
137,60,142,0,4.738066666666668,8.999388884364864,127.0868822308587,17.737280414962978,24.77190798645902,37.10543093624537,37.105430936245256,45.92198786139824,97.32727301541712,72.5553927629215,67.94962661437512,77.65671613071447,75.89179076410733,30.8861939156252,20.296641715982105,4.412313416517918,16.766790982768043,12.479906950160652,14.229283212097094,13.236940249553584,49.4179102650001,42.358208798571525,44.123134165178726,{}
138,60,143,0,4.771433333333335,9.13004085314401,127.83361419413274,18.35115499796983,25.62924599599085,32.86814707131816,32.918830443091665,45.686709832741705,98.75649132927455,73.13157024214492,68.47530639857962,76.69234316640916,74.86633499578045,30.129134815375096,22.82510213285991,2.73901225594318,13.6950612797159,18.260081706287902,20.08608987691668,19.17308579160232,52.95423694823489,47.47621243634853,45.68670983274159,{}
139,60,144,0,4.804800000000002,7.0386301343330615,135.50505595177256,17.684339348280066,23.144681288383698,36.952808205248175,38.712465738831725,42.26842444048938,89.81151388028071,66.86698627616363,63.3476712089971,72.14595887691337,70.38630134333016,29.03434930412368,18.4764041026242,4.399143833958078,13.197431501874348,12.3176027350828,12.442657745627114,12.317602735082744,49.27041094033109,40.47212327241482,38.75243731967986,{}
140,60,145,0,4.838166666666669,8.859490168047863,126.8842883950153,15.733631806144388,26.06233456578412,34.7931895309391,36.4872683920978,41.73591729497304,92.10330541258828,66.04743864029395,61.680858472355794,72.9745367841956,69.499558842091,29.53731250788872,20.849867652627267,3.474977942104601,13.899911768418292,15.733631806144514,17.37488971052278,17.374889710522723,52.12466913156834,43.43722427630695,57.3634555944449,{}
141,60,146,0,4.871533333333336,10.476753890724922,132.70554928251534,19.28658816854633,27.992523618078422,34.96613886113176,36.668638617537,40.160889914445306,97.84537807068236,69.86684909943527,64.60664899280346,73.33727723507411,73.33727723507411,33.176387320628805,24.44575907835815,3.4922512969081936,15.715130836087267,15.715130836087326,19.20738213299564,19.20738213299564,50.637643805170285,45.399266859807824,61.139337259347386,{}
142,60,147,0,4.904900000000002,8.729547034465213,127.49921086498745,17.4590940689302,26.24677356361202,31.474829444338525,33.21819194149609,40.19385299086285,92.59905850147253,66.36752597827537,61.97978394470226,75.07410449639997,71.58228568261393,33.17227873096749,19.20500347582322,6.98363762757208,15.713184662037293,15.71318466203718,19.20500347582322,19.20500347582322,47.13955398611154,43.6477351723255,59.38658942251786,{}
143,60,148,0,4.938266666666669,3.8884831096442105,134.30755364657432,19.128807637552995,27.87801043745716,38.41537930638215,40.14752888160231,41.7717933917876,92.18247719833278,64.3423529626782,62.60337045017343,81.73217808772631,71.29828301269742,34.779650250096324,15.650842612543329,8.694912562523996,17.389825125048105,19.207689653191068,20.94012239519262,20.86779015005783,48.69151035013482,46.95252783762999,66.10421286395058,{}
144,60,149,0,4.971633333333336,4.010884264573615,129.34713095834934,19.7309417040359,26.90582959641256,34.12788805460157,35.919254519283925,43.08668035682263,93.27354260089692,66.36771300448436,64.57399103139016,77.1300448430494,69.95515695067263,30.493273542600942,19.7309417040359,7.17488789237666,12.55605381165924,19.812306757286585,19.7309417040359,20.627802690583,48.4304932735426,53.81165919282512,54.08004818540389,{}
145,60,150,0,5.005000000000003,5.672018811508375,129.59042496192106,18.02595777541021,26.90474756353205,35.91781000651401,37.70932835514677,43.04759610165115,93.338752591874,66.46192731752464,63.67456923369241,78.92059285302719,68.15869382761446,30.49204723866967,19.730148213256825,5.380949512706366,14.34919870055046,23.38633267033976,23.31744788839444,23.31744788839444,52.015845289495246,57.39679480220167,55.718744143395824,{}
146,60,151,0,5.038366666666669,11.912197634722476,115.27971098465626,17.017425192460678,23.82439526944495,32.73367093177425,34.70887325098509,44.27801922427593,97.01425001453327,73.19471335655624,67.21882951021973,88.49061100079564,71.47318580833496,35.73659290416742,17.017425192460678,5.105227557738203,22.12265275019888,18.79636048337056,20.420910230952813,19.57003897132978,42.543562981151695,52.7540180966281,48.132547007695045,{}
147,60,152,0,5.071733333333336,14.379561038245274,126.11709322708,19.619215405768955,24.96991051643317,32.54700773019842,34.30755848351118,42.80556088531398,101.6788512062915,76.71403291118084,69.5590364386353,94.52894695506848,76.69329658618756,42.80556088531398,16.05208533199277,5.350695110664219,26.75347555332121,19.94086332386836,23.25484295663229,22.294562961101065,41.021995848425945,55.290516143530624,54.56659756112495,{}
148,60,153,0,5.105100000000003,10.61035498817935,132.2244785649299,19.18764776507737,22.743301720049825,31.831064964538168,33.55288854557579,45.38615443246471,97.8226395211791,75.08734731703123,69.77326460028144,90.70524398036582,71.51759621528845,35.758798107644225,16.571150342566852,2.61649742251052,20.05981357258088,22.943100302238108,24.482860908669817,23.54847680259496,36.63096391514779,54.07428006521815,54.77312373919776,{}
149,60,154,0,5.13846666666667,9.097960863727124,134.37717336081488,17.93156014456171,25.2332033817943,36.39184345490836,38.516813319293455,42.970596963857766,95.16966173682694,69.9510638881947,65.12537766149035,90.99710303386324,66.01750612260673,35.68513844465224,16.058312300093462,5.352770766697859,21.41108306679132,21.70642230196349,23.46823572969548,22.30321152790765,37.46939536688484,58.88047843367622,50.74948636694575,{}
150,60,155,0,5.171833333333336,10.630691727137744,116.2039577833754,17.476749542968832,24.7158562298642,28.450087041295703,30.52183091645012,43.726813386282274,96.37599449661076,71.73987490790658,66.41164826328156,90.8790976234378,66.41164826328145,34.95349908593755,17.476749542968832,3.495349908593653,20.972099451562485,21.26138345427541,22.9870750648414,21.84593692871101,36.70117404023449,59.42094844609392,48.08488726854401,{}
151,60,156,0,5.205200000000003,10.630691727137725,126.82389581536358,17.563915916831817,26.447121087289283,28.823393743250268,32.64926252323227,41.94419890312509,96.37599449661076,69.99432737290981,64.66397330898462,89.13142266914087,62.91629835468768,34.07966160878925,20.098261974414072,2.6215124314453533,20.098261974414186,21.26138345427541,22.786893531129337,21.84593692871101,33.205824131640725,57.67327349179709,42.558666253829166,{}
152,60,157,0,5.23856666666667,9.490382310877854,129.98228246002702,19.385517279127725,26.49347515501776,31.22838557978928,33.4376663032329,40.68631090840648,95.57234039195544,69.09102611447469,64.3246709716509,89.87830738504647,61.68119134267897,35.24639505295943,19.385517279127725,3.5246395052959087,21.14783703177568,21.43954511562303,22.97783834039759,22.028996908099657,31.721755547663463,59.91887159003102,50.156499454849296,{}
153,60,158,0,5.271933333333337,12.39096965416138,127.93338637056064,15.868183623571085,21.318230267830256,32.73655724435649,34.42817037908179,43.94865757275164,93.46767215680948,72.18736882068504,65.71304000950681,91.12208214651616,61.332170675539714,32.41843307135673,16.64730346907504,0.8761738667934651,21.904346669835604,21.675344395170896,23.04853588055873,21.904346669835604,31.542259204563265,59.57982294195284,45.56104107325809,{}
154,60,159,0,5.305300000000004,11.190288805060762,125.32374089568292,17.78164708175784,23.069371362216128,27.46754348922613,31.352784944789853,42.61135026421575,94.3740156601911,71.32437622467953,65.46558055329035,90.23634076264352,61.92690052338276,33.6174602841221,17.69340014953798,1.769340014953741,19.46274016449172,23.2720344472371,23.06937136221612,22.116750186922445,33.6174602841221,58.38822049347527,47.0125328661708,{}
155,60,160,0,5.33866666666667,7.228375620775788,131.4035563352148,15.875345216129949,23.058938093374547,37.84506104819088,39.552609629490014,42.2211685035689,88.2858040003184,65.24408404522683,61.35985097137859,89.41006855829448,59.60671237219629,32.43306408487149,13.148539493866792,6.135985097137791,21.914232489777987,19.98885547580317,19.60068540875121,18.407955291413543,31.556494785280336,59.60671237219623,48.899683736190006,{}
156,60,161,0,5.372033333333337,11.01414887360051,137.82859395450362,16.29643428765337,23.608834134288102,36.93148285987871,39.087963012403314,41.80360012734023,92.6300592078644,69.02126068270208,63.375022229762976,86.91431620081778,63.375022229762976,33.49822603573182,17.201791748078563,2.716072381275467,20.823221589779223,22.39730662964404,23.608834134288102,22.63393651062961,32.59286857530668,54.3214476255111,47.94122084112692,{}
157,60,162,0,5.405400000000004,7.863267106419022,148.73843120790917,17.670495081174312,26.60760420950957,35.862015662917635,35.862015662917614,49.26322722158491,100.7756754115148,74.18191351827866,70.33119910076437,80.88087896587899,63.29807919068787,22.85763970774849,28.13247964030564,3.516559955038133,10.54967986511474,21.172494645293146,23.126562367256703,21.97849971898881,38.68215950542032,58.0232392581305,57.59541230286276,{}
158,60,163,0,5.438766666666671,4.003003379224291,127.45653279305633,19.69217287423509,23.34132013915999,27.79133925896176,31.26445584523979,46.85395329541698,88.3748559985199,65.06573849183788,65.34220999178035,89.50987670106895,66.23730875879096,31.32845684537415,9.846086437117492,9.846086437117606,17.006876573203158,21.77869296355503,23.34132013916006,23.27256794227793,39.384345748470366,57.28632108868413,51.2634559200734,{}
159,60,164,0,5.472133333333337,1.816980905357127,139.05543735612454,19.986789958928625,23.690532576823173,34.95032554726801,34.95032554726812,43.75869483943556,89.19877387689968,65.51217820804183,64.50282214017875,85.398102551786,69.04527440357163,33.614146749107135,11.810375884821497,9.993394979464256,17.261318600892878,23.89865252696937,25.50254229003843,24.5292422223215,41.79056082321444,54.50942716071444,49.59392714609531,{}
160,60,165,0,5.505500000000004,2.525381361380515,129.1776383314773,17.85714285714289,21.428571428571445,32.58622784088318,34.348900110127424,46.4628993973489,87.57285596599449,66.16788326303178,65.17857142857144,83.92857142857144,71.42857142857144,31.25,9.821428571428555,9.821428571428555,16.96428571428578,23.21428571428572,25.063694370746795,24.10714285714289,44.64285714285711,51.78571428571428,54.31037973480563,{}
161,60,166,0,5.538866666666671,5.523418452073102,129.35888466236344,15.816663410876249,22.70655761237822,34.97680475697754,34.97680475697743,42.0651016997305,85.65751812250137,62.976659815928336,60.25971058669597,73.35964767076041,68.11967283713466,28.819861584941577,14.846595361939649,7.859962250438571,14.846595361939537,22.70655761237822,20.959899334503007,21.833228473440613,47.15977350263171,47.15977350263171,45.44669239401999,{}
162,60,167,0,5.572233333333338,3.537019489768795,136.2211779291975,21.22211693861334,28.351367982199235,35.37019489768886,37.13870464257332,42.481061852812346,95.49952622375996,67.22663614335121,65.43486056072447,74.27740928514663,77.81442877491554,33.60168515280441,19.453607193728885,8.842548724422272,14.148077959075522,14.148077959075522,14.25818139363614,15.03233283151775,51.28678260164884,45.98125336699548,42.48106185281223,{}
163,60,168,0,5.605600000000004,12.644337658940003,139.8363835516862,18.153431540543146,25.3531051683358,39.780378789237496,43.50228223037477,43.38963046881789,99.36478718108089,74.05969200236302,67.73752317289302,72.25335805108591,86.70402966130314,36.1266790255429,19.86967346404868,9.031669756385668,18.06333951277145,16.357049616908125,16.357049616908125,16.25700556149434,59.60902039214585,43.35201483065151,39.90322121891676,"{'neutral': (['m1', 'm3', 'm12', 'e1', 'e2'], 3.953536237087877, 60)}"
164,60,169,0,5.638966666666671,12.59869078058255,128.7287838044245,16.134196459413868,25.007687157669203,35.812207916137325,37.58550762626642,44.57871866145192,98.05958509257128,73.07240652737856,66.81464763766746,71.26895748017864,81.95930110220536,32.07103086608038,21.380687244053547,5.345171811013415,14.253791496035774,14.253791496035715,12.598690780582494,13.362929527533424,58.79688992114734,39.19792661409821,41.32677849747966,"{'neutral': (['m1', 'm3', 'm12', 'e1', 'e2'], 3.953536237087877, 60)}"
165,60,170,0,5.672333333333338,5.647262050457242,129.02479933691288,19.64403168560512,27.024376449117565,33.977562975124066,35.7610389044839,43.19324909047974,95.25309068806568,68.23612698061008,65.18246877496256,71.43284249310966,82.14776886707602,33.930600184227046,17.858210623277387,8.929105311638637,14.286568498621932,17.947279557971807,19.966086455078543,18.751121154441307,57.14627399448767,39.288063371210285,41.42181061058922,"{'neutral': (['m1', 'm3', 'm12', 'e1', 'e2'], 3.953536237087877, 60)}"
166,60,171,0,5.705700000000005,10.747659983547637,135.9483402602335,21.27634665137014,26.738115664128085,33.9870850650583,37.481702853265446,42.40570601274101,100.96123380638385,74.29407618442775,68.90927227070426,70.67617668790172,91.87902969427228,38.87189717834599,19.435948589172995,12.368330920382846,15.902139754777863,23.037615052714827,21.276346651370083,21.20285300637056,61.84165460191406,37.10499276114842,39.5091838659836,"{'neutral': (['m1', 'm3', 'm12', 'e1', 'e2'], 3.953536237087877, 60)}"
167,60,172,0,5.739066666666671,12.773105499581185,134.9955391780345,21.127230258511904,26.55072017631295,35.26543514274698,40.695810494968576,40.39210617229967,100.25364169715552,73.77338224984956,67.54905752974526,68.42631801714458,89.48056971472761,38.59946144556864,21.054251697583027,10.527125848791457,17.545209747985723,21.127230258511904,21.34466888825421,21.05425169758297,59.65371314315166,33.335898521172965,44.73168343752895,"{'neutral': (['m1', 'm3', 'm12', 'e1', 'e2'], 3.953536237087877, 60)}"
168,60,173,0,5.772433333333338,5.631122499824578,128.22401025261908,19.668665318673018,25.18314539847257,34.020556024161536,36.012778438610425,48.21109132314502,98.52050740895582,73.35604297658621,70.33833288732365,73.00940881975362,94.37801627919372,35.61434576573345,14.245738306293449,14.245738306293331,16.026455594580057,23.21771285756886,23.421679113994514,22.25896610358336,60.54438780174689,33.83362847744678,41.57126367020445,"{'neutral': (['m1', 'm3', 'm12', 'e1', 'e2'], 3.953536237087877, 60)}"
169,60,174,0,5.805800000000005,5.167615545541821,126.02815052959603,20.74211044616007,24.662998234958103,33.133689900520466,34.83618556815323,43.201046178542434,93.58949802141592,69.09505444296019,66.31773283445432,70.62407912240587,93.01707981975414,38.75711659156423,11.196500348674135,16.364115894215956,16.364115894215956,22.656456827504176,22.656456827504176,21.53173143975789,58.566309516141416,31.005693273251325,52.38896368568133,"{'neutral': (['m1', 'm3', 'm12', 'e1', 'e2'], 3.953536237087877, 60)}"
170,60,175,0,5.839166666666672,1.76991150442484,126.01223016869068,21.53190276211752,27.074439895182955,30.553409737401925,32.63555560103674,46.05172329648739,96.16338199791949,69.23046801985113,68.1415929203539,72.56637168141594,95.57522123893808,38.05309734513276,11.504424778761065,16.81415929203547,15.04424778761063,21.5319027621176,23.2795512176388,23.00884955752213,63.71681415929203,33.62831858407077,50.34146071974488,"{'neutral': (['m1', 'm3', 'm12', 'e1', 'e2'], 3.953536237087877, 60)}"
171,60,176,0,5.8725333333333385,1.810677817176952,134.94106043529527,23.60835036157335,29.475699343160063,33.04176954229749,34.82908322534637,47.3899736016734,102.18705882844718,72.78834741020198,71.5217737784875,72.42711268707592,99.5872799447294,38.92957306930328,15.39076144600358,15.390761446003694,13.580083628826742,25.414074231623072,25.60685126139675,24.444150531888056,63.37372360119139,36.21355634353796,44.05569272306315,"{'neutral': (['m1', 'm3', 'm12', 'e1', 'e2'], 3.953536237087877, 60)}"
172,60,177,0,5.905900000000005,0.0,132.62806986918744,19.841699461957155,27.147621742471586,32.3851548090003,36.19682898996216,49.72315633326799,96.42331032749452,69.4175970447901,69.2131265062493,69.2131265062493,97.60825532932586,33.719215477403395,12.42286886009606,17.74695551442278,12.422868860095946,23.13919901493,25.09798517932885,23.958389944470863,63.889039851922405,35.49391102884579,44.93170257733494,"{'neutral': (['m1', 'm3', 'm12', 'e1', 'e2'], 3.953536237087877, 60)}"
173,60,178,0,5.939266666666672,1.7816532392845374,130.35323196157842,19.679003235338847,29.003213446772754,32.852062494127345,36.3387385342705,48.23643123494835,98.5722901191174,69.68974849668497,68.59364971245463,69.48447633209685,92.64596844279572,32.960584926763886,16.92570577320305,15.144052533918511,9.7990928160649,25.00669486788398,26.78412118965253,25.833971969625736,62.35786337495864,33.8514115464061,54.508107801405686,"{'neutral': (['m1', 'm3', 'm12', 'e1', 'e2'], 3.953536237087877, 60)}"
174,60,179,0,5.972633333333339,10.643499916577534,122.85902336679013,14.10718226200994,26.766496389046694,30.55860457167964,33.65770201219709,45.62869578439687,97.01425001453312,70.34030988533127,64.74188248378994,68.24144369912995,90.98859159884,34.12072184956492,16.622915772864985,11.373573949854972,16.622915772864985,21.07014867939496,21.286999833155047,20.99736729204,59.49254066077998,33.24583154572997,46.689970106912064,"{'neutral': (['m1', 'm3', 'm12', 'e1', 'e2'], 3.953536237087877, 60)}"
175,60,180,0,6.006000000000006,3.461873750773975,128.34637229476107,20.843240094890945,28.17761085759723,33.29523558457703,36.71871607175852,41.686480189782,94.0458003385972,65.98026222994606,64.04466438931661,67.50653814009047,90.00871752012063,37.215142820819096,14.71296344078894,14.71296344078894,14.71296344078894,24.29485677906198,26.19382799144699,25.098584693110524,62.31372751392968,32.88780063235174,42.11551187166053,"{'neutral': (['m1', 'm3', 'm12', 'e1', 'e2'], 3.953536237087877, 60)}"
176,60,181,0,6.039366666666672,5.254019014584628,133.0211367843485,17.600745869193304,25.07536803795799,35.20149173838648,36.944550843872754,45.568498622528615,93.23313943080656,68.39200050977833,65.67523768230785,71.80492653265651,92.82100259099502,36.7781331020924,10.508038029169256,17.513396715282056,17.513396715282056,23.035276894295308,24.76768315797236,23.643085565630827,64.79956784654371,31.524114087507712,43.32575071227206,"{'neutral': (['m1', 'm3', 'm12', 'e1', 'e2'], 3.953536237087877, 60)}"
177,60,182,0,6.072733333333339,2.494913029529912,133.99564474778816,21.462053392998424,26.696735237723143,35.6781286588254,37.42369544294775,44.10424804128081,93.91616198668122,67.24704736717293,66.15637206192116,72.3309667877005,93.50100584751522,38.81173827632699,10.585019529907411,19.40586913816344,15.877529294861006,23.204032486949128,24.949130295298552,23.816293942291622,61.74594725779304,31.755058589722125,43.24915725176382,{}
178,60,183,0,6.106100000000006,3.930608390046882,132.78244409150452,21.166973972708384,24.859350205431667,33.44483517184223,35.33177509162711,42.33394794541675,92.01318334411232,67.166265611875,65.03939589276206,70.3128604246076,86.13325402014436,36.03534096761143,13.18366132961387,13.183661329613985,14.941482840229128,26.60066634632598,26.60066634632597,25.48841190392028,59.76593136091657,28.12514416984311,39.6582609270674,{}
179,60,184,0,6.139466666666673,5.383710653905496,139.8498795452615,23.60388595610846,28.936575289364804,37.85650022007675,39.84592523382053,41.31410898986382,99.10837964077272,70.19499888771178,67.29638317381875,71.78280871874006,93.31765133436215,41.27511501327547,16.1511319617166,16.151131961716487,16.151131961716487,25.18799330320392,27.156775198709926,26.02126816054323,66.39909806483462,35.891404359370085,47.20777191221715,{}
180,60,185,0,6.172833333333339,5.342151864860057,135.54522429172044,19.90902452659046,27.23973660349727,32.250161735151,36.31964880466299,48.21109132314513,100.49621228512896,73.35604297658634,70.33833288732365,73.00940881975373,96.15873356748044,36.50470440987681,15.136096950436697,15.136096950436809,15.136096950436809,26.770050760906088,26.94714233316584,26.71075932430012,62.32510509003356,35.61434576573345,53.54010152181228,{}
181,60,186,0,6.206200000000006,2.5477190211938803,141.90817818040915,23.48880878058809,27.55779469916894,36.07519755034124,38.00288235038403,43.38609156373123,96.3091708481198,68.83557738550564,67.55660236665665,73.86188525421142,93.67848861509732,40.53396141999406,11.70981107688715,17.11433926621976,17.11433926621976,25.285389314363083,25.285389314363016,25.2211315502185,63.05282887554631,34.22867853243946,52.522573143889126,{}
182,60,187,0,6.239566666666673,5.209224442921027,128.18879530128388,17.45068591128598,23.16657418402885,35.1166815256423,35.11668152564228,45.27998469004071,90.892300659765,67.91997703506111,65.11530553651153,67.7199177579721,86.82040738201545,32.123550731345745,13.023061107302285,13.023061107302285,13.023061107302285,20.90912293719633,22.838883360360573,21.70510184550386,62.51069331505107,36.46457110044645,40.53685636651467,{}
183,60,188,0,6.27293333333334,5.4935415888968615,131.68467235773707,19.18811585604639,26.288763406191546,31.7011146963586,35.13290575553942,41.7292254086007,92.48096220382564,66.21939732550341,63.40817902247659,66.01399459874278,85.12330882469473,33.875602491460086,16.503498649685753,13.029077881330863,13.029077881330863,22.650452229745223,22.650452229745188,22.583734994306724,62.53957383038795,33.00699729937145,42.58823606649212,{}
184,60,189,0,6.306300000000007,4.030710079936558,140.4747279937955,19.910239060931755,22.296786465860336,38.02564284291197,38.5349375322331,48.66988537619159,88.98654063969448,66.91464342793147,67.59706302248821,73.90612223792061,95.53718240511682,36.05176694532713,3.6051766945327017,21.631060167196324,16.22329512539727,23.50287657817818,25.492448880797816,25.23623686172897,64.89318050158886,36.05176694532713,45.63789176285436,{}
185,60,190,0,6.339666666666673,3.429971702850139,127.84411463598488,17.489492643904153,22.55711704566357,32.98841151249405,36.38034375544995,46.33636610190113,89.59057198296762,67.08203932499369,65.16946235415332,66.88444820557845,82.31932086840425,28.297266548514017,14.577379737113231,11.147408034263094,9.432422182837968,20.65116433122584,24.25356250363329,23.15230899423869,61.73949065130319,36.01470287992686,40.03674782584852,{}
186,60,191,0,6.37303333333334,3.784716946281932,123.27956597768116,15.326935465414069,22.581792048897743,32.55736621560548,34.52193002485531,47.422367413124256,88.59795220649025,66.20550734812714,64.31792119286172,67.70307493985445,86.32142054831445,29.62009528618637,11.001749677726366,14.386903424719094,12.69432655122273,22.068502449375693,23.93665169857608,22.84978779220092,62.62534431936536,35.54411434342359,39.83852815896789,{}
187,60,192,0,6.406400000000007,1.7347091177347238,129.53527269549565,19.160488465187,23.143906297794352,33.14157115995762,34.86722174411757,45.235679410653965,89.08031130363338,66.12405345817871,65.05159191505402,67.65365559165605,85.00074676900385,31.22476411922593,12.142963824143408,12.142963824143408,12.142963824143408,22.81653611101653,24.347802723469204,24.28592764828681,60.71481912071704,34.69418235469544,47.63348250187799,{}
188,60,193,0,6.4397666666666735,3.480729180368712,129.53738357513882,17.49044766675603,21.17244903646268,31.51934328979253,34.850773759183824,47.27901493468862,89.37072958830667,68.23028293728412,66.13385442700621,71.35494819755945,85.27786491903441,31.326562623318864,10.442187541106136,10.442187541106364,12.182552131290665,24.612472069126323,26.16341669066721,25.23528655767342,60.912760656453145,33.06692721350311,47.78877646166295,{}
189,60,194,0,6.47313333333334,1.81374655993352,134.99928990011998,20.033485548147777,23.64836187189396,36.32024655824914,36.45585467113667,47.2967237437879,92.78514762324114,69.13682142009252,68.01549599750888,72.54986239734285,87.05983487681146,32.64743807880427,12.696225919534982,12.696225919534982,12.696225919534982,25.650249837656045,25.45714608873428,25.39245183907002,65.29487615760866,39.90242431853864,49.27252092951085,{}
190,60,195,0,6.506500000000007,1.779747576279874,134.6623396386092,21.65156374076858,23.74479428166916,34.00202970228467,35.77248355720819,46.41013871974947,89.8552233234867,66.23435277750228,66.74053411049533,72.96965062747495,90.76712639027367,35.59495152559748,7.118990305119496,17.79747576279874,14.237980610238992,23.408924543908824,24.97994761301541,24.91646606791824,62.29116516979559,33.815203949317606,57.64294410942692,{}
191,60,196,0,6.539866666666674,2.470524709859065,138.89974547543036,22.77711239538668,26.435768821084068,36.726990178714594,38.59082962899297,43.81265047411182,91.44279363937594,65.01283293975064,65.50967907863651,73.37084056807282,89.09316354694568,37.558882671751576,9.608086264866644,18.342710142018177,14.848860591157631,21.03575990537958,22.977208002390466,22.710022080593944,61.14236714006074,34.93849550860614,53.44562111218696,{}
192,60,197,0,6.573233333333341,5.342151864860057,132.7440835437969,17.895987263660793,21.66336079648876,35.79197452732157,35.79197452732157,44.66016238489416,89.4799363183037,67.87780381204769,64.9961810224637,67.66725695489367,83.69371254947373,31.162552545016865,13.355379662149971,9.793945085576752,13.355379662150083,23.217712857568863,24.993558169620385,24.039683391870085,62.32510509003362,37.39506305402017,43.32672159297778,{}
193,60,198,0,6.606600000000007,5.206723038024848,134.04432931781955,19.40431108839628,24.849642928159323,34.884612617182675,36.611980937697375,43.42405626362885,92.57300412882388,67.88736270543103,65.08403797531037,71.15854818633932,81.5719942623889,32.97591257415729,15.620169114074429,10.413446076049697,13.884594768066222,20.899082635984264,21.114173200892,19.959104979095173,62.48067645629794,34.7114869201655,45.95176858050147,{}
194,60,199,0,6.639966666666674,1.7497806076698907,138.93963208255684,23.01477061087489,26.47898540484432,35.03932936239171,36.911662355754245,43.77949681684595,93.33074540478276,66.85902314174105,66.49166309145994,73.49078552213996,87.4890303835,36.74539276106998,12.248464253689916,15.74802546903004,13.998244861360035,24.55934116524027,24.55934116524026,24.49692850737995,64.74188248379,36.74539276106998,61.64097362264564,{}
195,60,200,0,6.673333333333341,3.510629575690928,137.63279866089414,19.38808553056118,26.56273274748422,35.15015123404278,38.776171061122135,44.02307091498638,93.44475604629795,66.90950527716906,64.94664715028387,70.21259151382037,84.25510981658442,33.35098096906472,15.797833090609515,14.042518302764051,14.042518302764051,21.13678903339446,22.88650477362047,22.81909224199165,59.6807027867473,36.861610544755706,56.416374348014216,{}
196,60,201,0,6.706700000000008,3.9720947536631392,133.41745366004437,17.852345559840824,23.36456228842916,33.937592452053465,37.346140993624566,42.66998639420648,87.49434737401094,64.17115463408993,62.173117175826405,67.50224150518295,74.60774061099164,28.42199642323488,15.987372988069636,8.881873882260834,10.658248658713092,23.16109343037678,23.16109343037677,23.092872093878384,65.72586672873075,42.632994634852366,51.78977934354639,{}
197,60,202,0,6.740066666666674,1.79453409792427,136.396397076669,18.034844481999176,19.821276969225927,37.685216056409445,37.685216056409445,45.006686207690045,83.03478173548774,63.217541965094895,62.80869342734911,71.78136391697035,73.57589801489462,27.81527851782596,9.869937538583486,11.664471636507642,11.664471636507642,18.034844481999176,21.6090520650227,20.637142126128992,59.21962523150052,41.27428425225793,52.07241989087883,{}
198,60,203,0,6.773433333333341,5.396161322063108,140.3001943736416,18.07691670607928,21.659462307348043,35.97440881375428,37.77312925444198,39.571849695129686,84.61636738925795,62.98090618842191,60.25713476303838,68.35137674613316,68.35137674613316,28.77952705100347,16.188483966189324,5.396161322063222,12.591043084814032,21.659462307348107,23.383365728940248,22.4840055085964,59.35777454269453,48.565451898568256,59.357774542694415,{}
199,60,204,0,6.806800000000008,7.046748943690773,132.13828675384156,17.61687235922716,24.726458656487093,31.71037024660881,35.23374471845432,40.67170812585264,90.00135778934663,65.27758460860417,61.65905325729511,72.22917667283139,70.46748943690864,30.829526628647383,18.49771597718859,6.165905325729455,13.212654269420227,21.1402468310726,21.213523469614508,21.140246831072545,52.85061707768148,47.56555536991334,52.85061707768136,{}
200,60,205,0,6.840166666666675,5.235185549307062,130.9843005956491,21.013327309835795,26.234031986169114,35.07530908268334,38.43100072684584,40.13642254468709,92.55410600198994,66.33530765742546,63.69475751656876,76.7827213898363,71.54753584052924,34.02870607049567,18.3231494225746,7.852778323960479,16.578087572805543,17.450618497690073,20.940742197228133,19.195680347459074,50.60679364330127,43.62654624422521,54.12505618341193,{}
201,60,206,0,6.8735333333333415,5.348143768801947,137.26902339924925,19.609860485606987,25.021591629452136,35.654291792012714,39.260216305668216,42.78515015041535,92.71829856113789,67.74315440482428,65.06908252042331,78.43944194242806,78.43944194242806,35.654291792012714,14.261716716805154,10.69628753760378,17.827145896006414,21.39257507520768,23.175289664808304,22.28393237000796,51.69872309841856,42.78515015041535,49.94783255317834,{}
202,60,207,0,6.906900000000008,13.610984243065786,131.0499073958537,17.098587340480986,25.577245015921417,35.76931958150456,37.46885428499208,40.83295272919736,97.037941668404,71.47791884721936,64.65217515456254,76.56178636724508,73.15904030647857,34.027460607664466,22.11784939498193,3.4027460607663897,18.715103334215428,17.09858734048092,20.48724425916605,19.56578984940711,52.74256394187995,45.93707182034706,56.17108246670863,{}
203,60,208,0,6.940266666666675,0.0,126.90354723877935,19.37123392401429,24.71711132065556,33.644264043280465,33.50571466657557,45.92181628697332,89.96733460275789,65.25290774265738,65.15778683532062,81.00697822769587,75.72391443023741,32.57889341766031,11.446638227826613,11.446638227826613,16.72970202528495,19.37123392401424,21.20550412762973,20.25174455692394,52.83063797458419,45.78655291130633,52.83063797458419,{}
204,60,209,0,6.973633333333342,8.848171747370316,138.04282260281474,15.9267091452665,24.77488089263693,37.162321338955394,38.931955688429525,44.24085873685158,93.79062052212532,69.0157396294884,64.59165375580324,77.86391137685871,79.63354572633273,34.50786981474414,15.041891970529605,9.732988922107324,20.350795018951658,19.46597784421465,19.54625025835636,18.58116066947764,54.85866483369591,47.78012743579967,46.044511939835616,{}
205,60,210,0,7.0070000000000086,10.52937090906828,128.20054705346956,15.675033896028069,20.844215933991823,32.93486197401141,36.392567577031016,43.31005438154549,90.0129315494928,69.26235092062483,64.04766283329297,77.89580614859949,72.70275240535955,32.02383141664643,14.713652272513286,6.0585627004466005,18.1756881013398,24.23425080178652,25.96526871619983,25.099759758993173,51.93053743239972,46.73748368915972,45.03974227894104,{}
206,60,211,0,7.040366666666675,3.493316555750539,134.6740361218113,15.719924500877257,22.70655761237822,34.97680475697743,36.721387388471584,45.44669239401999,87.35037873023217,64.64995546284685,62.87969800350902,78.59962250438616,71.6129893928852,29.693190723879297,12.226607945126716,10.479949667251503,15.719924500877257,19.292471252790705,20.959899334503007,20.086570195565344,48.90643178050698,45.413115224756496,57.66618161661531,{}
207,60,212,0,7.073733333333342,0.0,145.20638096726196,19.209395533391444,24.51061040632721,38.77434529735205,38.57721974331883,45.43759625500339,89.13019931192134,64.63701579768454,64.61342133958954,83.8228168729811,75.09127344871217,34.05301935464854,9.604697766695722,13.097315136403267,18.336241190964643,22.70201290309905,22.70201290309905,20.95570421824528,52.38926054561318,47.150334491051865,59.40017074364899,{}
208,60,213,0,7.107100000000009,1.7618410286579549,141.34314062893856,19.460170216420806,26.42761542987091,35.28083910446869,38.920340432841634,45.80786674510944,93.39419418164428,66.97313719566856,66.06903857467705,84.5683693755866,73.9973232036383,33.47497954450296,14.094728229264549,12.332887200606365,15.856569257922388,21.215375379382724,22.90393337255477,22.02301285822574,52.85523085974165,47.569707773767504,59.90259497437398,{}
209,60,214,0,7.140466666666676,0.0,142.2784303364239,21.0526315789474,21.12560452419704,35.26272147761724,38.636343062360034,45.74878880843958,87.73684035122797,66.7589389138261,66.66666666666663,82.45614035087715,75.43859649122805,33.33333333333337,8.771929824561425,12.280701754385971,15.78947368421052,21.125604524197044,22.807017543859672,21.929824561403564,56.140350877192986,50.87719298245611,59.64912280701765,{}
210,60,215,0,7.173833333333342,2.4916194774735247,141.04635103388804,19.460170216420806,22.90393337255466,37.1660772152103,37.040586444280194,45.841735782450094,89.87116375291907,66.97313719566867,66.06903857467705,81.04468731827058,75.75916423229637,32.59405903017398,11.451966686277387,11.451966686277274,16.73748977225148,21.21537537938272,22.90393337255477,22.90393337255477,51.093389831083584,45.80786674510944,54.617071888399664,{}
211,60,216,0,7.207200000000009,1.8011440898610545,146.07045373163527,21.61372907833197,25.216017258053967,36.20254815764003,37.86688598682251,46.86437092251099,91.8760051613695,66.66666666666661,67.54290336978738,88.25606040318883,81.05148404374484,37.82402588708089,7.20457635944399,16.21029680874892,19.81258498847092,25.21601725805391,25.21601725805391,24.31544521312344,50.43203451610793,45.02860224652494,48.63089042624688,{}
212,60,217,0,7.240566666666676,3.53760733035449,138.14798252693103,19.45684031694975,22.99444764730424,37.31295419348737,37.18696749437165,45.98889529460837,84.90257592850787,61.90812828120363,63.67693194638093,83.13377226333057,76.05855760262159,33.60726963836771,5.306410995531792,17.68803665177245,17.68803665177245,21.29921662554632,21.29921662554632,22.110045814715647,49.52650262496292,44.22009162943118,60.1653308116704,{}
213,60,218,0,7.273933333333343,0.0,136.2785656294006,17.68509744884443,23.05854596494988,33.64819269776521,37.30675393811836,45.98125336699559,86.67502163852323,63.66635081584002,63.66635081584002,83.1199580095689,77.81442877491554,34.48594002524669,6.18978410709542,15.032332831517806,18.569352321286715,22.990626683497737,24.75913642838219,23.87488155594002,53.05529234653324,45.98125336699548,56.61993805802883,{}
214,60,219,0,7.3073000000000095,1.7685097448844544,138.22688457294507,19.453607193728885,23.058545964949897,35.54660594165778,37.18078817408312,45.98125336699559,86.67502163852323,63.66635081584002,64.5506056882823,84.88846775445336,76.04591903003109,34.48594002524669,6.18978410709542,15.032332831517806,18.569352321286715,23.058545964949943,22.990626683497737,22.990626683497737,49.51827285676438,44.21274362211102,49.51827285676438,{}
215,60,220,0,7.340666666666676,1.7999766004563753,137.09395076539755,17.999766004562844,21.59971920547548,37.97054798359706,37.97054798359706,46.83399375456634,88.21721861848079,66.62345378468878,65.69914591665463,88.1988534223583,79.19897042007676,36.89952030935399,4.499941501140711,17.09977770433477,20.699730905247407,21.674588474007447,21.674588474007454,21.59971920547548,50.39934481277612,44.99941501140722,48.59936821231986,{}
216,60,221,0,7.374033333333343,2.487280353573733,133.7708304878727,19.346500851964947,24.68555266530392,35.219397968072144,37.10135296041755,45.728092922826136,91.52380595533084,66.85650432179726,65.95398017715308,80.9035490173078,75.62723060313556,32.53729688739554,13.190796035430708,11.432023230706475,14.949568840154711,22.864046461413125,24.68555266530392,24.622819266137185,54.52195694644661,45.72809292282619,52.79248888385511,{}
217,60,222,0,7.40740000000001,1.7760245448288288,134.9895492733099,19.61683227301997,21.31229453794572,33.791171517839494,35.56486379444743,46.210779862018015,88.87223982955159,67.58234303567922,66.60092043108068,81.69712906212555,79.92110451729673,34.63247862416188,7.992110451729673,13.320184086216043,16.872233175873703,21.31229453794577,24.927692376459103,23.97633135518901,47.95266271037798,42.62458907589155,47.985540782605696,{}
218,60,223,0,7.440766666666676,1.82327451025526,140.49865188753523,20.13872519920453,21.9551324583398,38.3321514315067,38.3321514315067,49.22841177689168,91.18195643495504,69.28443138969942,69.28443138969942,85.69390198199665,80.22407845123098,33.73057843972208,8.20473529614867,13.674558826914335,15.497833337169595,21.879294123063005,23.77259114520137,22.790931378190635,49.22841177689173,43.75858824612601,47.4051372666363,{}
219,60,224,0,7.474133333333343,1.7922629227488187,138.01588263190197,19.79619101948003,21.50715507298593,37.68017014084473,37.807827774097085,48.424277594094725,87.89400636076246,66.41053655549882,67.20985960308121,80.65183152369752,78.8595686009487,31.36460114810449,8.065183152369741,15.234234843365016,15.234234843365016,23.299417995734814,25.091680918483632,24.195549457109223,48.391098914218446,43.01431014597199,48.42427759409462,{}
220,60,225,0,7.50750000000001,0.0,138.26807606757387,19.725983956696723,23.381396737361065,37.82909885715087,39.61465713108329,46.659526230225445,89.73526562087258,66.37526591700949,66.35103694525242,80.69720709557726,73.5241220204149,30.48561156944038,12.552898881534247,10.759627612743657,14.346170150324838,21.593845588572925,25.10579776306849,24.2091621286732,50.21159552613699,44.83178171976516,46.65952623022556,{}
221,60,226,0,7.540866666666677,1.7760245448288288,131.53377347028294,17.760245448288174,23.156526968693843,33.791171517839494,33.930901286284005,44.43611991477581,87.09766332756425,63.96154586494311,63.04887134142291,76.36905542763907,71.04098179315258,29.304404989675504,13.320184086216043,9.7681349965585,13.32018408621616,21.386167530812767,23.088319082774603,23.08831908277466,51.50471180003564,47.95266271037804,57.08199250990573,{}
222,60,227,0,7.574233333333344,7.038630134332948,140.9484585986815,19.356232869415862,24.69797042659109,36.99468108916959,39.07073783920234,42.37816523385419,93.41113468333714,68.71682340687649,65.10732874258042,77.42493147766311,70.38630134333005,31.67383560449855,19.35623286941575,5.278972600749739,14.07726026866601,19.43605272504031,22.87554793658228,21.995719169790675,52.78972600749756,45.75109587316456,56.33652901434122,{}
223,60,228,0,7.60760000000001,8.654036183076869,136.77758257861336,17.394397452120465,26.01973816187163,34.659387903112,38.11707543615168,41.575416526052265,93.47961539642704,67.50148222799976,63.17446413646133,76.15551841107674,72.6939039378459,32.88533749569217,19.03887960276916,6.923228946461563,17.308072366153738,20.841679037362187,24.2313013126153,23.36589769430759,50.19340986184597,46.73179538861524,52.03947632374315,{}
224,60,229,0,7.640966666666677,14.152505026779068,136.32120848437543,19.45969441182126,24.82998424001534,37.192422395140966,38.959574057706895,40.72689168843444,99.0675351874536,74.32170868204052,67.22439887720077,81.37690390397972,76.06971451893764,38.03485725946882,20.34422597599485,6.191720949215892,20.34422597599496,22.997820668516,22.997820668516056,22.11328910434236,49.53376759372679,45.995641337032055,51.333322748969465,{}
225,60,230,0,7.674333333333344,8.922882628103139,137.59767810216957,17.845765256206278,24.98407135868877,37.64568304904681,39.42258397655496,46.43329576299762,98.16793099153742,73.18939744313504,68.70619623639413,85.65967322978997,78.52136712730749,35.691530512412555,16.061188730585627,7.138306102482488,19.630341781826928,23.199494833068115,23.199494833068115,23.199494833068115,49.96814271737748,48.183566191756825,46.53606231237664,{}
226,60,231,0,7.707700000000011,5.329071779849528,131.64233578697676,17.763572599498502,24.86900163929795,33.93725779974618,37.4722974497768,44.44444444444438,92.38765629677768,67.52494495474306,64.83703998816941,83.48879121764287,76.38336217784342,35.527145198997005,12.434500819648974,12.434500819648974,19.539929859448307,23.160865043128485,24.86900163929789,23.980823009322933,47.961646018645865,46.185288758696,51.63672261245074,{}
227,60,232,0,7.741066666666677,17.463086848537728,136.31278876501017,15.716778163684012,22.769079557049928,35.10037015772723,38.45845942124984,40.16509975163672,96.06285188864535,73.34496476385846,64.61342133958965,80.33019950327355,75.09127344871217,37.5456367243562,18.33624119096453,4.36577171213446,23.575167245526018,20.95570421824528,22.70201290309905,22.702012903099103,48.89664317590564,45.40402580619809,50.67305168621677,{}
228,60,233,0,7.774433333333344,5.668600422264165,129.1769440228003,18.015093964441824,21.5108261756966,34.10594835291986,37.68660185039759,44.850058247237385,89.64636629500482,68.14119857313887,65.4287629510768,84.2507358548113,78.8730293108872,36.7476613834815,8.066559815886308,11.65169751183555,20.614541751709112,21.585387321884227,25.09596387164595,24.199679447658585,46.606790047342486,44.81422119936775,52.261913603694005,{}
229,60,234,0,7.807800000000011,3.507119417758645,138.70867900153164,17.62305696844662,22.86362134358569,38.737400099532735,40.48406959334139,43.83899272198403,87.74809979779114,64.90540165555518,63.128149519657086,82.41730631733003,75.40306748181263,35.07119417758736,8.767798544396783,12.274917962155657,21.04271650655244,19.368700049766367,22.796276215431703,21.919496360992014,45.59255243086346,42.08543301310471,47.3461121397429,{}
230,60,235,0,7.841166666666678,1.7310179144133144,124.93345233076442,17.39651473778601,22.5032328873732,33.07105081951951,34.793029475571906,43.31005438154549,84.89050219634554,62.41273849163974,61.451135961673,84.81987780625286,76.16478823418629,37.21688515988649,4.327544786033286,16.4446701869266,21.637723930166544,20.844215933991823,22.5032328873732,21.637723930166544,46.737483689159774,43.27544786033309,43.3100543815456,{}
231,60,236,0,7.874533333333344,7.230111900536953,124.81108280956992,17.62305696844662,22.796276215431817,35.2461139368931,35.2461139368931,42.12194966467155,89.4487352625984,66.65833809820289,63.12814951965697,85.92442573508879,77.156627190692,39.45509344978575,7.89101868995715,13.151697816595288,23.67305606987145,19.368700049766367,22.796276215431703,21.919496360992014,45.59255243086346,42.08543301310471,47.3461121397429,{}
232,60,237,0,7.907900000000011,3.570539178457466,130.52017936232124,19.63796548151629,23.20850465997364,35.883474643836934,37.66030324187683,42.8836471290841,89.28133037241687,66.07909566215484,64.26970521223484,85.69294028297975,78.55186192606482,39.27593096303247,7.141078356914932,14.282156713829975,23.208504659973755,23.27706760007037,23.2085046599737,23.2085046599737,48.20227890917613,46.4170093199474,46.55413520014063,{}
233,60,238,0,7.941266666666678,17.456599972005165,124.05245088438144,15.80762359489056,24.50150564124064,36.70039973917367,36.70039973917356,43.67639917583807,101.38362850831236,76.88834711516861,68.08073989082015,87.28299986002594,82.04601986842442,41.02300993421216,16.58376997340497,7.85546998740233,27.057729956608,21.020529958704344,22.693579963606737,21.820749965006485,47.13281992441398,45.387159927213474,57.712480510093584,{}
234,60,239,0,7.974633333333345,5.498781811092473,125.63242389579614,15.649807391422314,22.60527734316554,33.221016711098265,33.221016711098265,43.50645064833177,87.01290129666344,64.43202133290615,61.72979582172138,81.72677193298318,71.29356700536823,33.03848227078038,10.433204927614838,10.433204927614838,19.127542367293927,20.938737315965987,22.60527734316554,22.60527734316554,46.949422174266886,46.949422174266886,59.14706064272698,"{'neutral': (['m1', 'm3', 'm12', 'e1', 'e2'], 4.400228494551462, 86)}"
235,60,240,0,8.008000000000012,10.718420279200824,136.24101656050848,19.38307183355198,24.669364151793506,35.636215299459145,37.37973145562889,40.68117840884169,95.16957604680802,70.50592035402406,65.19760525831146,82.81857965244967,70.48389757655286,36.122997507983314,18.50202311384509,6.167341037948404,20.264120553258977,22.907266712379624,24.669364151793506,23.78831543208662,45.81453342475936,44.05243598534554,49.37018430187562,"{'neutral': (['m1', 'm3', 'm12', 'e1', 'e2'], 4.400228494551462, 86)}"
236,60,241,0,8.041366666666677,17.47210043144422,137.74013199689028,17.47210043144433,26.07808458055649,40.32511070565101,42.04964789407544,43.49823118317199,104.32682514103382,78.25356845712044,69.5415588814841,85.18840962981801,74.75717579759532,36.50931841277918,24.339545608519416,0.0,22.60100663648234,19.202790588599424,20.93478146070108,19.993198178426724,46.94055224500176,45.20201327296462,55.66040514786177,"{'neutral': (['m1', 'm3', 'm12', 'e1', 'e2'], 4.400228494551462, 86)}"
237,60,242,0,8.074733333333343,7.262847762847354,132.53453470532446,17.614993217059236,24.66099050388277,38.91279187954458,39.38832225654202,44.03748304264786,93.37608048981724,68.72105316046718,65.17547490311892,84.55196744188402,73.98297151164843,35.22998643411836,14.091994573647298,10.568995930235474,21.13799186047106,22.89949118217692,22.89949118217692,22.89949118217692,47.5604816860598,44.03748304264792,52.87432982264404,"{'neutral': (['m1', 'm3', 'm12', 'e1', 'e2'], 4.400228494551462, 86)}"
238,60,243,0,8.10810000000001,14.13941676652547,133.47166987408718,17.62525886607391,24.615458551333635,36.996004439437726,40.489127840440105,42.12721255528087,98.27422812660129,73.6795852080625,66.64359462352309,82.42760387646285,75.41248865293414,36.82935492352601,19.29156686470401,5.261336417646589,21.045345670586244,21.045345670586244,24.5529032823506,23.67601387940954,49.10580656470125,43.84447014705472,45.59824895293696,"{'neutral': (['m1', 'm3', 'm12', 'e1', 'e2'], 4.400228494551462, 86)}"
239,60,244,0,8.141466666666675,12.225209393101975,131.4028678884424,15.718126362559588,22.70396030147492,35.103381097952195,35.10338109795218,43.6963773274139,94.32492770109576,71.62609298152779,65.49219317733161,85.57646575171327,75.09771484334021,36.6756281793057,13.971667877830782,8.73229242364414,22.70396030147492,21.03014502179664,24.45041878620384,23.57718954383944,47.15437908767876,45.40792060294996,50.767598592554776,"{'neutral': (['m1', 'm3', 'm12', 'e1', 'e2'], 4.400228494551462, 86)}"
240,60,245,0,8.174833333333341,15.784009252939768,139.09135569386837,17.53778805882189,22.799124476468364,35.25051773214771,37.20326659021627,40.37502016073327,96.47377644978788,73.6795852080625,65.76670522058203,80.67382507058062,68.39737342940532,34.19868671470272,21.922235073527304,0.8768894029410603,18.41467746176295,22.866478019001217,24.55290328235065,24.5529032823506,50.85958537058349,49.10580656470125,50.889813952967415,"{'neutral': (['m1', 'm3', 'm12', 'e1', 'e2'], 4.400228494551462, 86)}"
241,60,246,0,8.208200000000007,2.4911362308674283,143.37565719100974,19.37649253876509,24.66099050388277,35.62411911741102,35.62411911741102,44.07269894834975,89.9055172737741,65.2706216324662,64.29472524226594,84.55196744188402,70.4599728682366,33.468487112412504,12.33049525194133,8.807496608529618,17.614993217059236,22.967141229656093,24.66099050388283,24.66099050388289,47.56048168605975,47.56048168605975,56.39549500518336,"{'neutral': (['m1', 'm3', 'm12', 'e1', 'e2'], 4.400228494551462, 86)}"
242,60,247,0,8.241566666666673,1.7464584847286917,137.12757847239783,19.21104333201731,24.450418786203727,35.319937014418265,35.31993701441838,45.4414939314575,89.13784497779807,64.713298239111,64.61896393496727,85.57646575171339,69.8583393891538,32.309481967483634,11.351980150737404,11.351980150737518,16.591355604924047,21.03014502179664,22.70396030147498,21.830731059110576,47.15437908767876,47.15437908767876,49.02542589553418,"{'neutral': (['m1', 'm3', 'm12', 'e1', 'e2'], 4.400228494551462, 86)}"
243,60,248,0,8.274933333333339,7.9780109927295,159.02079228724855,17.839374904983515,24.9751248669769,37.84302890232891,41.378121487846734,48.166312243455536,98.1814110009978,73.22840674532925,69.5735621294358,73.14143711043255,64.22174965794079,20.51528114073119,29.43496859322272,4.459843726245822,8.027718707242684,23.19118737647864,24.975124866976955,24.083156121727768,51.734187224452285,51.734187224452285,62.53966837245655,"{'neutral': (['m1', 'm3', 'm12', 'e1', 'e2'], 4.400228494551462, 86)}"
244,60,249,0,8.308300000000004,5.093733528324367,155.54664275608684,21.610881116612745,23.41178787633044,38.20300146243284,38.203001462433065,48.6578212084534,97.39892496737968,74.03457378592081,72.03627038870923,86.44352446645098,72.03627038870911,30.61541491520132,18.009067597177363,3.6018135194353817,14.407254077741754,25.27693090483514,25.212694636048184,24.31224125618934,46.82357575266093,48.62448251237868,50.5538618096704,"{'neutral': (['m1', 'm3', 'm12', 'e1', 'e2'], 4.400228494551462, 86)}"
245,60,250,0,8.34166666666667,13.957350302542205,137.4639584195942,17.31196240344434,24.23674736482212,33.07445773164969,34.79661378242746,45.04438218122751,100.469060626934,76.25128470924561,69.24784961377736,83.09741953653281,69.24784961377736,31.161532326199904,24.23674736482201,1.7311962403443886,15.580766163099952,24.29849713971611,24.236747364822065,24.23674736482212,48.47349472964413,50.204690969988576,55.64119657706799,"{'neutral': (['m1', 'm3', 'm12', 'e1', 'e2'], 4.400228494551462, 86)}"
246,60,251,0,8.375033333333336,8.05128904852228,153.40822289637288,18.003229618995306,21.67875921808473,36.40927864928614,38.19061724055034,50.53747382397011,97.3673512728596,75.95570897249284,72.01291847598134,86.41550217117765,75.61356439978044,30.60549035229201,16.20290665709581,5.400968885698603,16.20290665709581,23.40419850469391,23.40419850469397,23.404198504694023,50.40904293318698,50.40904293318698,57.86295134590365,"{'neutral': (['m1', 'm3', 'm12', 'e1', 'e2'], 4.400228494551462, 86)}"
247,60,252,0,8.408400000000002,4.980099906475084,145.44961327531132,17.607312074275114,24.65023690398516,34.18721607667191,34.18721607667191,49.33190541703387,95.09578687033547,70.4512539993394,68.66851708967295,86.27582916394806,68.66851708967295,28.171699318840183,17.607312074275114,3.521462414855023,15.846580866847605,22.957126244753592,22.88950569655765,22.009140092843893,44.01828018568784,44.01828018568784,54.69614503181026,"{'neutral': (['m1', 'm3', 'm12', 'e1', 'e2'], 4.400228494551462, 86)}"
248,60,253,0,8.441766666666668,9.09633207508084,157.350972372729,19.62331239548189,26.759062357475383,37.84302890232891,41.37812148784664,49.95024973395391,105.26742896812569,78.51351898177012,74.03340585568162,82.0611245629243,71.35749961993417,26.75906235747528,28.54299984797376,3.5678749809967485,12.487562433488392,21.407249885980264,23.19118737647858,23.19118737647858,49.95024973395397,51.734187224452285,53.78504968608889,"{'neutral': (['m1', 'm3', 'm12', 'e1', 'e2'], 4.400228494551462, 86)}"
249,60,254,0,8.475133333333334,5.00366613760613,150.6302975917104,17.690631283473863,28.30501005355813,33.65872153621291,35.55772881160451,49.56534793967876,99.08332913497324,70.7846349688777,68.99346200554805,77.83877764728493,68.99346200554805,23.882352232689755,25.65141536103704,0.8845315641736988,7.960784077563289,22.997820668516,22.997820668516056,22.997820668516056,47.76470446537945,47.76470446537945,55.09715801668818,"{'neutral': (['m1', 'm3', 'm12', 'e1', 'e2'], 4.400228494551462, 86)}"
250,60,255,0,8.5085,2.5450102590962,158.8645063677321,16.29601687453425,25.25850561815049,36.39453655792406,39.95747157241158,54.01780527859945,97.24470545793872,72.0062519072714,71.08396348965243,79.18213654543558,66.58497845866168,18.895737130160683,24.29451916734968,0.8997970061980141,8.09817305578315,23.394722161151435,23.394722161151435,23.394722161151435,50.38863234709538,50.38863234709538,50.67702751045901,"{'neutral': (['m1', 'm3', 'm12', 'e1', 'e2'], 4.400228494551462, 86)}"
251,60,256,0,8.541866666666666,10.622381034562864,148.17920557260783,17.55018507886362,24.51061040632721,39.04864929031293,40.76798673498189,45.43759625500339,97.85563464399247,73.3657512074567,68.1060387092972,80.33019950327355,59.374495285028274,24.44832158795282,27.940938957660364,5.238926054561375,12.224160793976353,22.70201290309905,22.70201290309905,21.828858560672188,50.64295186075941,54.13556923046696,56.12691533968314,"{'neutral': (['m1', 'm3', 'm12', 'e1', 'e2'], 4.400228494551462, 86)}"
252,60,257,0,8.575233333333331,7.880109934210585,144.2835002550542,15.858415334759457,22.97427097623699,34.21274761025988,34.212747610259655,47.60786530602248,93.45491451340558,70.50386806869687,66.95775363565122,81.05412282210398,59.90956904242466,22.90659992798589,22.90659992798589,1.762046148306581,12.334323038146294,24.73149623185272,26.48936197986365,25.549669150445823,49.33729215258501,51.099338300891645,65.29088375332672,"{'neutral': (['m1', 'm3', 'm12', 'e1', 'e2'], 4.400228494551462, 86)}"
253,60,258,0,8.608599999999997,10.742316355201522,154.29246132764064,15.89423337098026,22.95833709141584,35.71566410693164,37.46306732793882,47.71539308909063,97.13142615599008,74.17308906457424,68.87501127424753,75.93911499468311,61.81090755381183,21.19231116130686,28.25641488174267,7.064103720435696,8.83012965054445,19.426285231198,21.19231116130692,21.19231116130697,52.98077790326733,51.2147519731584,70.66310908029084,"{'neutral': (['m1', 'm3', 'm12', 'e1', 'e2'], 4.400228494551462, 86)}"
254,60,259,0,8.641966666666663,8.869201403169882,165.20539345180418,14.301157546785236,24.83376392887567,40.95228295051915,42.90347264035582,47.89368757711725,95.8037981933872,70.9757807654172,66.51901052377389,65.6320903834569,56.76288898028713,13.303802104754707,34.58988547236254,9.75612154348687,2.6607604209509645,19.59270628643098,21.28608336760766,20.39916322729067,47.89368757711725,47.89368757711725,63.95672086309211,"{'neutral': (['m1', 'm3', 'm12', 'e1', 'e2'], 4.400228494551462, 86)}"
255,60,260,0,8.67533333333333,7.010803867064965,161.40082576337733,15.871382286054134,24.60033035843118,38.71842986621259,40.46424399214045,44.13188269748636,91.29200031692083,66.69482036149431,63.09723480358468,64.84993577035084,57.83913190328588,17.52700966766247,29.79591643502601,7.010803867064851,5.258102900298809,17.527009667662412,21.10531445965633,20.15606111781176,50.82832803622091,50.82832803622091,63.121573178570266,"{'neutral': (['m1', 'm3', 'm12', 'e1', 'e2'], 4.400228494551462, 86)}"
256,60,261,0,8.708699999999995,16.3615546110992,166.58162830883367,14.454651557285048,21.68197733592752,38.11515108050092,41.909142794203554,47.11639959930937,99.39215383946564,77.71475894845626,69.56301061943418,68.65959489710383,57.81860622914007,16.261483001945635,36.13662889321256,14.454651557285048,5.420494333981878,18.15843128716948,18.06831444660628,18.06831444660628,48.784449005836905,48.784449005836905,61.458834425267526,"{'neutral': (['m1', 'm3', 'm12', 'e1', 'e2'], 4.400228494551462, 86)}"
257,60,262,0,8.74206666666666,12.484955258216589,164.70718553124567,17.92460678290511,23.18634547954514,39.40023946012367,41.36948249078746,44.73158355646754,98.11228991665536,74.93096145805771,68.66725392019123,73.12616651241149,58.85764621730675,21.40278044265699,32.10417066398554,10.701390221328438,7.134260147552368,17.92460678290511,17.835650368880863,17.835650368880806,51.72338606975444,51.72338606975444,53.625723619284365,"{'neutral': (['m1', 'm3', 'm12', 'e1', 'e2'], 4.400228494551462, 86)}"
258,60,263,0,8.775433333333327,9.012118181186707,154.2626147668994,17.762369130443222,24.80694691784164,39.04362341638743,40.99504260464885,46.25785495313514,97.20819829065886,72.4858439908834,68.04573880346118,74.23171505832136,61.85976254860111,22.092772338786062,29.16245948719768,6.185976254860179,7.953398041962941,14.249409997581958,15.906796083925997,15.906796083925997,47.72038825177793,49.48781003888087,56.80549714642341,"{'neutral': (['m1', 'm3', 'm12', 'e1', 'e2'], 4.400228494551462, 86)}"
259,60,264,0,8.808799999999993,28.037563737389632,164.95354732810426,17.523477335868392,28.037563737389632,43.94865757275175,47.60455087071333,44.12298851329118,117.52493421471274,89.52421980811779,75.35095254423459,71.84625707706084,63.084518409126645,23.65669440342242,49.94191040722524,21.904346669835604,9.63791253472766,14.127879092823996,17.61087676750094,17.523477335868506,50.81808427401859,47.3133888068449,59.68281320541175,"{'neutral': (['m1', 'm3', 'm12', 'e1', 'e2'], 4.400228494551462, 86)}"
