,frame_seq,video_id,gap,time_seconds,m1,m3,m4,m5,m6,m7,m8,m9,m10,m11,m12,m13,m14,m15,m16,m17,e1,e2,e3,b1,b2,b3,m_0_16,m_1_15,m_2_14,m_3_13,label_measures
0,218,5,1,7.273933333333343,16.339465755179795,161.50468845142066,20.66797101467644,31.00195652201488,41.65762736367136,46.78910939043904,31.42958991634084,98.71525795190564,67.9611789343678,59.83412856910718,66.71401094813382,58.10671221419989,31.108385908627497,36.260851932746846,3.410158148911705,14.10226972497412,21.304056890178984,20.66797101467644,20.609864096476485,48.57613922160954,54.86036078859934,51.9276345096076,400.00000000000006,389.7228047068755,378.920630631761,357.86787270821463,{}
1,219,5,0,7.3073000000000095,10.62050875446811,154.3631669490468,15.930763131702395,32.30101635219178,42.48203501787288,48.08639856733488,33.58499757387747,91.669203455568,59.37044882655629,53.53645511021023,60.46614517602211,56.97063779769269,26.4002794100179,32.19546269514376,0.8585456718706155,9.50532708142373,21.241017508936675,21.241017508936675,21.340992415067376,47.34266133457322,48.63047984237892,58.41279814957522,400.0000000000001,394.71303318855706,378.3719274392491,357.21082992817674,{}
2,220,5,0,7.340666666666676,10.922074230593845,158.7462528268924,16.383111345891216,27.305185576484146,43.68829692237536,49.451794332676506,34.53863134210736,88.05657759309683,61.05625108726652,54.90156142492742,63.46620500721565,57.09762388192439,27.215488306356747,27.372349910428056,0.5490156142491287,10.211690425036068,21.84414846118768,21.84414846118768,21.83513528671392,46.49377944671005,46.30554552182412,54.610371152969314,400.0,383.2465425742987,366.9069223320438,350.1883396867504,{}
3,221,5,0,7.374033333333343,12.745059757543215,160.0000000000001,17.09929199709838,22.799055996131173,45.95296646467521,45.59811199226223,36.04847272474681,87.18962356182546,64.98730840561966,57.31178876474178,61.09963687275649,53.39218941818763,22.79296426735709,28.6229565727358,0.5270049541586559,10.869477179520343,17.09929199709838,17.099291997097925,17.094723200517365,47.82569958988779,48.91264730783951,45.59811199226213,400.00000000000006,393.9440038540869,376.8746711660223,359.4920274032478,{}
4,222,5,0,7.40740000000001,12.053607087251867,168.85808641716773,18.080410630877804,30.73078887353892,48.21442834900734,48.21442834900736,32.45533034264772,92.19236662061628,61.46157774707736,54.72056461604916,57.01583449964028,58.44622007926955,27.094164060651565,33.381207654836544,1.9459896839143769,7.966915030725431,18.080410630877804,12.053607087251414,15.052313367028546,46.67048763301955,49.66431791596415,48.21442834900736,400.0,392.89952157289946,375.40745930179975,362.8616243918604,{}
5,223,5,0,7.440766666666676,6.135719910778555,153.51566312115978,19.40285000290689,30.67859955389505,42.95003937545283,49.085759286231735,31.28615555500161,86.77218312746243,56.56854249492356,52.539422523138455,59.03539464518872,58.09997465961305,27.698825128420594,27.69882512842014,3.7936477192774873,8.470747647153075,25.29822128134731,18.407159732336574,18.39659304964425,46.251321508994806,45.523772631324846,55.22147919701064,400.0000000000001,393.8826340571069,375.53412941161713,357.191660531067,{}
6,224,5,0,7.474133333333343,12.462026766865424,155.8999050452196,18.69304015029813,24.92405353373084,43.61709368402932,49.84810706746215,33.55503398524643,88.11983634178856,63.54411766316288,56.53239368253162,59.520890264868285,59.52089026486783,27.892634768473272,28.141676150335115,3.984662109781766,8.46740698328631,18.69304015029813,18.69304015029813,18.6781036396028,53.7929384820568,52.04964880902708,49.84810706746213,400.00000000000006,387.5770465317851,375.1566848916316,356.5315946259364,{}
7,225,5,0,7.50750000000001,6.42161299067966,160.66870569495066,19.264838972038035,32.74392994821481,51.77269909067928,51.77269909067935,34.581444282443854,91.94350573815764,59.20434645509771,55.151423720405546,60.64894582927673,62.16428846184999,28.70340870304836,29.33773817714882,4.316964476517569,14.607198167480874,14.359163172355071,19.26483897203805,19.241327381048904,49.97106634858483,46.235570556659695,51.37290392543494,400.00000000000017,387.21847105981,368.054231772674,348.90107303200784,{}
8,226,5,0,7.540866666666677,6.633581268066592,152.71650936694255,19.900743804200232,33.82476033087487,39.80148760839933,46.43506887646593,35.72292839005881,94.97842960487948,61.15859741200568,56.86080662539871,57.32369173306233,56.65713717802646,23.329409426246457,36.586438909731896,2.4070025598507527,9.29473296188553,19.900743804199333,13.267162536133185,13.257029483485894,50.28783809657489,48.88066736927749,46.43506887646614,400.0000000000001,386.1747183481969,373.6066891743506,353.1408654447751,{}
9,227,5,0,7.574233333333344,6.871067372240872,151.31956223313978,20.613202116723087,35.03570661026751,41.22640423344595,48.097471605686586,37.00183020044205,98.37871314946264,63.34811110743011,58.95390345834812,65.91308086883828,65.72345750615432,30.88964578116748,31.19304316146099,4.342375005455779,9.386356452840571,13.742134744481744,20.613202116723087,20.593097187444982,45.73715507929728,43.49959939962992,48.09747160568681,400.0000000000002,393.15476572732086,373.3209681943903,360.51829841723134,{}
10,228,5,0,7.60760000000001,9.717156665802468,151.31956223313995,15.364173722311456,35.03570661026762,48.58578332901205,41.22640423344573,28.33013653648481,83.59014231004431,48.58578332901227,45.03057009813665,52.241598359167256,51.282685026583295,24.03036811455104,31.164683308974418,4.238396930020826,9.22474625945688,20.613202116722864,13.742134744481303,17.164548653250222,45.222352764653806,44.03330023224953,48.09747160568684,400.0000000000003,386.3104486832796,372.6247684446438,359.6660855916438,{}
11,229,5,0,7.640966666666677,14.229110075920792,156.68182183412833,14.22911007592124,29.334061900781297,42.687330227762814,49.80188526572298,29.334061900780803,86.55229760930042,57.35937648049296,49.98292261987899,54.88478480607273,52.19277852349069,24.891013314320844,32.20362739536449,2.953171071190809,10.064889160996245,22.49819845858084,21.343665113881183,17.7792952245145,45.48285241616031,39.85776466151128,49.80188526572298,400.0,385.8293449889511,371.6631567109003,357.5019661556071,{}
12,230,5,0,7.674333333333344,7.22983401169455,144.77731325901348,21.68950203508364,36.86506470566694,43.37900407016682,51.12264656522312,22.86274258190684,87.95472685322174,51.12264656522317,47.25157952118025,55.1126786321679,53.83790580335881,32.506707134624776,32.80415412801358,4.504197328457394,9.943228064708364,22.86274258190727,14.4596680233891,14.447425393166668,47.20908709355308,39.17801827205767,43.379004070167056,399.9999999999999,392.0810375669824,371.2644718650822,364.0851378259712,{}
13,231,5,0,7.707700000000011,7.38716855153055,147.92793496395896,22.16150565459349,29.548674206124964,44.93439207025124,44.323011309186974,26.63481499304074,82.59105521236147,53.77939882578358,48.57465398692102,56.65976328030911,55.25180229518037,33.21507960370491,25.8339508028821,4.586539572766014,17.556846829704227,23.36027808240521,14.774337103062027,14.762257601646525,48.16933188514304,47.48668413477753,51.71017986071822,399.99999999999983,385.2675759102355,370.53848945712485,356.50264192167634,{}
14,232,5,0,7.741066666666677,7.499267685396189,127.7079268761133,22.49780305618857,30.92027278166793,38.23891226548974,38.23891226548961,33.53774465202534,92.76081834500604,61.84054556333809,57.01630183488896,64.35160594191939,64.22177755064467,33.47408688370888,26.85283892868938,4.3925272381329705,17.635023148172877,22.497803056187205,14.998535370791467,14.973541127036697,43.05974977283768,39.72748773011563,44.99560611237555,399.9999999999999,377.6534709392701,370.2086999876869,356.3533326844158,{}
15,299,5,1,9.976633333333298,28.830439305257983,179.77426799822882,11.274920110291712,24.42343331421547,42.24479739252061,44.279120457562094,30.95671258431076,95.1070395887832,70.75820019271032,55.65143575008898,39.55491700552062,22.30430823775669,0.4859326413455278,62.976870318371766,35.74034577095864,6.3778659176591646,22.549840220583423,22.111937560221943,20.658211415198902,69.74348234910741,63.13479842680911,67.25083263180605,400.0,400.0,391.2001098860016,360.417799364862,{}
16,311,5,1,10.377033333333287,37.94019091105736,188.06470142506788,11.997741814056038,21.18424478064625,47.369411381519946,49.80911913351719,38.27349328048874,109.07198409216674,88.0689438188532,69.00855877335556,64.4035226989385,51.44243934767002,19.709554398505134,51.02379970454126,29.020100061690187,9.69569413486363,17.700107875310522,14.837533932872605,14.836588952485611,56.96848263697052,50.1697748325584,65.6498808726596,400.0,403.3097615475304,406.6342301394262,388.9345832864527,{}
17,340,5,1,11.3446666666666,8.384436163006681,150.10248402932902,11.857383334574996,18.748169213489515,41.92218081503204,41.9221808150316,36.06282352746791,73.33386589783728,54.659836400139525,51.171105025473935,52.83357220052517,51.55475129663955,16.131412259012222,20.91785621355507,0.4932594914985202,7.398892372480077,17.786075001862645,18.748169213489515,21.44765344516441,41.68956146666597,48.887496268535415,41.50084167101316,399.99999999999983,403.54318254153065,406.6667627032267,387.00326742579614,{}
18,341,5,0,11.378033333333263,0.0,144.62030521243744,13.427658241845805,18.98957639652969,36.030187928883485,36.030187928883485,36.030187928883706,67.13829120923016,48.41411030038236,48.41341807195204,60.840391694699065,54.10911431571117,21.74720383980729,9.579125500867576,6.731277378988125,11.39139248751826,18.989576396529383,18.989576396529383,18.25211750840981,39.61097842250615,51.7790567614461,42.03521925036399,399.99999999999983,404.5270083917361,403.0534794288384,390.511762378845,{}
19,342,5,0,11.411399999999931,0.0,142.88625565752022,17.86078195719007,18.826917258786708,35.72156391437971,35.72156391438017,35.72156391438017,71.69076506289699,53.58234587157024,53.43227832533444,60.556582102045695,49.87012643697881,19.59183538595608,16.47495248364453,0.4452689860447663,9.053802716237216,17.86078195719007,18.82691725878704,18.033393934800188,39.03524777656367,46.90166653001575,47.628751885839925,400.0,399.29046507329616,398.8907970439111,381.0765247011868,{}
20,365,5,1,12.178833333333246,25.94706769611185,167.4602546360851,15.283214398017453,30.566428796034906,48.18741143563694,48.32976746641445,41.44243370378245,112.73560796644398,82.30262831609454,69.43325920209668,38.317153413384176,44.93074715288526,0.2368765666010404,71.0345447923196,34.15760090386971,14.10836830675794,5.242099291379355,5.242099291379355,5.988239603674174,59.74974515944632,61.208904809708656,78.19342752559832,400.00000000000034,389.4883301150826,363.82586108182,338.20682389933216,{}
21,366,5,0,12.212199999999912,13.74568417697888,138.52656095189002,14.168726939516077,31.68223659139112,34.53560407646146,37.800631486692765,38.42035527120998,97.74186708367242,66.1008785836566,59.27638147288167,39.77553534864387,41.3232215489802,2.1667606804705883,57.109620792411306,23.21529300504517,10.833803402354532,7.684071054242059,7.684071054241844,7.506278071631186,55.25239735200739,55.56193459207475,66.10087858365684,400.0,393.2112673175096,379.0981447472419,350.8853452340767,{}
22,367,5,0,12.245566666666578,14.666450985149751,136.33629019929518,14.228547426992249,28.67855418507542,35.748782977623314,39.28986077032541,39.76999908479277,97.09094113324062,68.42289359947516,61.11835506295552,41.17278440676159,41.81360595394858,1.7622592547641034,55.59126921846837,20.986905670372835,11.214377075771836,7.953999816958687,10.06110237206046,8.010269339836668,53.668804576907405,55.43106383167151,67.95900422634911,399.9999999999997,392.4152383083801,377.810804966646,348.61756014634153,{}
23,368,5,0,12.278933333333244,15.062986431212432,135.96011113001182,14.61324331603168,25.83280860973765,32.87979746107138,40.352137014391886,40.845256782989296,96.10360331036432,70.27283689263045,62.77216461103649,39.01035888023444,43.11010705209833,0.2510049901140974,55.032844082518295,23.071542007988683,13.115010733462212,7.3066216580159535,11.55278322022298,11.357975802663532,51.24685214829742,53.087555409133984,66.16427317198975,400.00000000000034,389.19336000434447,377.1943914512459,347.19909832911105,{}
24,369,5,0,12.31229999999991,15.67369579532535,141.47243854211305,15.205718425394146,30.648105298394547,34.423409161003846,41.81572566983389,38.76712748464085,99.99999999999986,69.36958071318963,61.5518121062089,36.826614598198375,41.09258177387619,0.2611816638170694,61.02944877857453,24.006947932513413,13.64674193443875,8.500255011475177,8.500255011475469,8.053101301024526,56.04523202740006,55.76228522493148,65.06999343970057,399.9999999999994,392.4872517350937,380.6368256797864,349.44216487080524,{}
25,370,5,0,12.345666666666576,8.732875111991085,133.70143024647317,15.62184191154338,31.48682899850868,35.36544876903002,39.24939204595506,43.66437555995721,98.87836168704573,67.41870081965176,63.24555222007984,41.732473356998526,46.77338141615496,0.6022323787487949,54.6247072428057,20.14132733370912,10.126425924146131,5.523155175138192,8.732875111991577,8.620844977273919,55.44998865072057,51.74737476656151,66.8507151232366,400.0000000000005,391.6575224239991,375.6151611490593,347.4104118765982,{}
26,371,5,0,12.379033333333242,16.301090617651564,139.51486274783923,12.22581796323878,28.81652929119497,36.90316342862811,36.90316342862812,41.55978957612499,98.56769560340922,69.75743137391918,61.66963419718013,40.14409409019595,42.82036702954224,0.0,57.07844182709482,26.047518521742177,10.84351966804138,5.763305858238949,9.11258668211323,4.868048191397293,50.73382925536816,52.41803550168106,66.34063242137906,400.00000000000085,395.3644621357195,378.6496334937965,349.2867669817167,{}
27,372,5,0,12.412399999999908,17.32592327296811,135.51538266302765,12.606460891022827,29.713713276017643,33.87884566575714,38.05211953235986,42.85372672044648,102.24281059677794,72.54041873073419,63.884483543437455,41.59919858642456,43.97629564850581,0.0,59.42742655203483,22.582422089773218,10.696936779366297,8.404307260681767,11.88548531040633,9.21125111556512,56.45605522443316,57.64460375547401,67.75769133151428,399.9999999999998,395.8509014896025,382.1188148399313,351.82843387401533,{}
28,373,5,0,12.445766666666572,22.64340622408285,134.63393311947678,10.98366536301928,27.45916340754789,33.40551405775312,44.27657058885893,21.96733072603812,82.56034836156769,55.19223538117781,43.69909680384808,21.81162832486416,24.78456236636157,1.6988194522841695,58.70027928875152,29.304635551904084,6.097548391234795,12.280111196910006,10.98366536301928,10.799637946664916,59.58002507654123,59.82271356972478,72.23378110616584,400.00000000000057,383.7215452860088,367.4606546352889,340.405036782534,{}
29,374,5,0,12.47913333333324,13.44247794592368,126.73689748684176,13.442477945923455,31.68422437171021,36.12557399195156,36.12557399195247,41.3111743462073,99.4904826101661,67.80720123326877,61.14674280949998,46.05760812235553,45.15451776701548,4.440194247089721,53.88439120197131,20.394790524768496,6.8484351946640345,4.480825981974636,12.67368974868363,9.783478849519724,49.97099966216365,54.56170896847652,63.368448743420885,399.99999999999903,398.59207608415727,380.8702084678331,352.96282833745846,{}
30,375,5,0,12.512499999999903,18.928070824074503,133.8416723448236,13.77219446414668,27.54438892829336,32.135120416341955,36.72585190439016,37.85614164814901,97.38412097417924,70.2246883176783,60.71816566300595,37.3131291553002,43.25520605138081,2.607767371423961,57.09842886386514,27.154512977066588,13.713483142264296,10.26518767372621,6.492274731611679,7.485978971699751,51.84397221995118,55.2950474478057,64.9227473161195,400.00000000000057,394.7495237642698,380.4495150594311,352.531115741376,{}
31,376,5,0,12.545866666666573,14.11764705882342,141.8805970040599,14.117647058823644,28.624764848462213,37.94003646258172,37.647058823528816,38.80570000581314,95.17058078191369,66.5512264646161,59.56334768583156,37.93419908483111,43.92380946664662,2.329292926261587,54.23924956866222,22.96017313029256,9.649927837369432,9.41176470588243,10.522672835293214,9.982683969692516,52.5754689070468,52.5754689070468,66.55122646461678,400.00000000000045,395.3501360867435,376.0291529594917,351.4005591076607,{}
32,377,5,0,12.579233333333235,10.773104045814865,136.2701850189997,14.453635785072157,28.907271570144083,34.06754625474947,38.54302876019178,39.72924467737281,92.67374513779242,64.27851771655537,58.90089258073658,40.72948829410348,39.50788128323734,0.6385673011345716,52.52910146724184,21.32259509875348,11.466447624720333,9.635757190048178,6.813509250950258,5.413940161793107,52.25146351022681,49.94706846700228,63.369299104973024,400.00000000000034,390.4860136462373,375.4546545080511,346.15041146196546,{}
33,378,5,0,12.612599999999905,19.9843932867376,141.31100010951027,11.17161546955882,25.475202834096823,35.32775002737734,39.9687865734751,40.27983240526142,96.10187002747072,70.65550005475514,60.76593708050973,40.87266699206453,41.10132526894313,0.7145571152459524,55.10664472776216,26.810182964025444,7.088406583239021,4.996098321684737,7.065550005476376,5.659292352747343,55.27813843542117,52.13408712833939,70.65550005475559,399.9999999999995,395.07103569475936,378.7161166835672,348.3323318564284,{}
34,379,5,0,12.645966666666569,15.398542126489842,139.439729521197,15.39854212648939,31.22189168940981,36.29471186009114,41.06277900397175,37.36769293851986,98.7322905976176,67.51206660415984,59.84322124667642,38.245559527209934,40.05855444836425,2.230271529991569,59.52666657790337,25.79920550499901,9.856361277704764,5.132847375496539,7.258942372017852,5.726761735074888,54.677624606244535,55.45462242959616,72.58942372018412,400.0,389.859947746928,373.85315053594405,346.9895940273244,{}
35,380,5,0,12.679333333333236,20.79500979640163,136.06437268261493,10.397504898200866,26.50854018430089,36.39126714370335,41.9136822142465,36.760731104690194,94.1534113288778,67.78343894045659,57.358176755279146,37.772457863232376,40.89783853749509,2.5747183649878025,54.783458390291344,20.31497438270776,9.867273271601109,7.352146220937764,7.352146220937764,5.863809455521732,55.48294835072125,54.79834115540666,68.37891250726182,399.9999999999997,389.7331034078217,373.515078026996,352.17471094192234,{}
36,381,5,0,12.712699999999902,21.627546706443148,141.51176672132982,10.813773353221574,27.56982067182296,37.848206736275735,43.59171400267751,38.2324623413866,97.92288250994862,70.49717725363813,59.64740613802724,39.10958221930469,42.708994658668416,2.6768739570056823,56.970532181021554,21.067149277452245,10.299159122717356,5.406886676610787,7.646492468277048,6.109926997911543,57.19738590619136,56.743678455851295,71.11649085361385,399.9999999999991,394.6656921846794,376.97285419160994,354.8005464146852,{}
37,382,5,0,12.746066666666566,16.70214485550062,145.179550552029,11.13476323700028,28.38818751235038,38.97167132950041,44.88566559148727,39.36733295894741,95.29822274944009,67.04015231539888,58.64597585589718,34.35667675506011,44.37737414195272,4.547473508864641e-13,55.89184008341317,25.113983823671333,14.253041624834625,5.567381618500207,7.873466591789482,9.071531951177349,53.93126885554284,58.66153594500747,67.04015231539981,399.99999999999983,394.4991773500573,381.8834216023159,354.3059966305304,{}
38,383,5,0,12.779433333333232,11.313708498984958,136.82105101189757,11.313708498984834,34.40930106817022,33.941125496953845,39.59797974644722,41.18252056394788,97.6524449258696,63.24555320336784,57.58386912724745,37.10101635044112,38.84012649186843,2.801899672298532,59.61283095891167,22.898283528787488,16.328311883396964,5.656854249492191,8.000000000000233,6.376737185231832,53.91241438423481,55.6515245256619,68.11754546370535,399.9999999999997,395.2518184651393,377.6135590785897,348.80366970546646,{}
39,384,5,0,12.812799999999898,18.103439867235803,132.78598564770544,11.449620692872566,28.62405173218101,34.34886207861707,40.48052216971983,40.48052216971938,97.99296850427687,69.64532373673113,60.7169629913974,43.62410001251601,43.75383711292488,3.21099323512226,54.29497652115333,23.6770208246362,11.124956360069064,5.724810346436342,8.096104433943786,9.259985541690185,53.90576521992671,56.9221528044352,68.93584523225967,400.0,393.47400720578673,376.49061927094107,347.331372529608,{}
40,385,5,0,12.846166666666564,11.782556318797418,130.142588246463,11.78255631879787,35.83524604355563,35.835246043555195,35.347668956393214,42.88915238874184,101.6992290468326,65.86649219387816,59.97299954731125,39.397336035578974,45.5363044931778,0.0,59.16346524521032,20.91296947094088,8.263996000613588,8.331525472734244,8.331525472734608,6.644927396411731,56.2289034000944,57.88170260021707,70.9403831463743,400.0000000000009,394.1877064791116,375.7970560447309,351.60616895572696,{}
41,395,5,1,13.179833333333224,3.1391140590640614,173.67558115367942,12.942898836383115,28.425886797368232,50.61669329096642,50.32382664786466,57.28345613042414,99.1184895192974,70.82164126585582,70.06440385483754,54.11844742804206,57.05258011992382,1.543775697362662,43.04353481652743,13.798094586986622,12.033779504286484,9.9267502616993,9.926750261699246,9.665378279140027,63.84135772074836,57.781318958430376,63.09541170821412,400.00000000000006,408.8688530460505,401.81886153741016,382.0187025432294,{}
42,396,5,0,13.213199999999889,4.652263713483157,171.5670085340266,13.158588878687734,26.521983785968725,49.45424163361861,49.45424163361861,53.55157691349725,96.80733684328484,70.32462531192103,68.2487496521967,59.90178027027332,55.97379467878,4.58264985674225,38.625191649684496,11.45662464185557,6.21931051986445,13.158588878687633,13.15858887868768,13.256951371290029,39.60718804755777,35.02453819081555,60.0304285371601,400.0,396.1259812654049,385.7874080987456,359.1143805472859,{}
43,397,5,0,13.246566666666554,3.516627904604713,176.7083652352165,14.066511618419984,28.351960571784623,49.35822472932957,52.86650954238392,57.24655476230296,100.02318482198162,71.72541723050328,71.1795420969674,59.62011704163916,60.552328739649454,3.0762986034340543,39.598281349928186,10.078244246267388,8.938874393143635,11.120553861857084,14.066511618419984,14.00389128566644,37.22632047387964,36.29410877586935,56.70392114356901,400.0000000000001,402.7575378011948,391.6266894694184,370.31611334891033,{}
44,398,5,0,13.27993333333322,3.828496265770265,184.4047995153049,15.78529449105381,27.071556712735628,53.73550577069476,53.73550577069522,57.93566136203972,101.3648161028721,74.33595118578559,73.72387389398614,61.52263732133861,58.16568334367901,1.9367042178805605,41.1226862263303,12.97591825979964,7.165805606158074,11.485488797310907,11.485488797310907,11.426554885495191,39.83155008107656,35.95814164531544,54.14311342547149,400.0000000000005,399.33987302590685,387.6057049172867,371.8571734151439,{}
45,399,5,0,13.313299999999886,3.980148760839578,171.56241828074317,15.920595043359782,28.14390178921176,47.76178513007943,47.92733774131715,56.28780357842338,100.76931797697436,72.63089924235051,72.25107443503816,60.94910385726894,57.257277796795165,2.887778053437956,41.436783911881776,11.539787593934877,6.828745749894779,15.920595043359835,15.920595043359835,13.872659276320064,43.19209998357928,40.40624350849782,59.834755951720815,400.00000000000034,395.3191466685775,379.13920221135874,355.03730106640177,{}
46,400,5,0,13.346666666666552,0.0,178.43463908142687,17.06792683934178,25.180083964661183,49.67496364864986,49.67496364864986,54.447678014883074,96.6394752473009,71.46023564141478,71.18886565596995,59.25170830512127,56.068466344895,3.3279347766001592,38.63298197183735,11.575425309913951,7.234640818696221,8.279160608108315,12.418740912162583,12.552101820437883,37.403093032659,36.82432176716338,53.97352374943932,399.99999999999966,399.142274128225,386.0699626558858,364.8706015193026,{}
47,401,5,0,13.380033333333218,4.322367230736374,177.6908293264358,12.9671016922104,30.563751796324908,47.742106512347405,51.86840676884113,53.464729935108544,97.5170496116942,67.10118399134713,65.96781546944862,58.27241412535329,54.57659637457073,3.569248649728479,40.2742879554462,7.872598085571099,7.315694040932726,8.644734461473563,12.9671016922104,12.91004830752854,34.123029644212124,33.92051908252529,52.58386686662847,400.00000000000057,394.8524458496634,389.8765658149971,363.7214880620807,{}
48,402,5,0,13.413399999999884,4.516387521771365,176.65946636855836,13.549162565314283,27.09832513062866,49.8851306714852,54.38450749788847,54.94422557947563,95.80704729332686,69.08744431337875,68.53571754392681,60.2795234421269,56.13148389339665,3.376929632620204,37.518485918324245,8.774699045391344,7.844049146637644,14.282071364761013,9.032775043542932,9.213433997660786,31.40278658365776,31.057116621263503,58.886488789519,400.00000000000006,399.51525957253534,385.1925219151021,362.3257639259008,{}
49,403,5,0,13.44676666666655,4.854998214271563,185.5092212922121,15.352852393147415,24.755730633027383,53.62520801442612,58.46192017701591,54.28053018875352,99.0229225321098,74.26719189908242,71.46333268402896,59.40796805192065,61.199981713450256,6.217744371064782,38.20247305715384,6.679323647519482,5.973378871765362,10.856106037750736,14.564994642814064,12.313305992480082,39.56005916437312,32.93503896114248,53.62520801442612,399.99999999999966,394.332267937623,384.6494704083775,359.7943496942267,{}
50,404,5,0,13.480133333333216,0.0,184.03427164168616,16.109922488805037,25.97646948197082,50.94404799339247,56.038452792730894,56.95717718111728,98.91544883304452,72.94077634083409,72.49292285425838,62.41187576983805,59.26862794295414,4.063568136557137,37.50659231268162,9.132409226757204,4.03525058856701,15.283214398017474,10.188809598678263,12.67210272550028,35.934968399239665,34.51909099974239,61.34475721389538,400.0,393.8867812347461,382.9284860993531,367.3627544397412,{}
51,405,5,0,13.51349999999988,0.0,133.5178778276524,14.03508771929819,14.035087719298303,42.10526315789457,42.10526315789457,35.0877192982457,63.1578947368422,49.12280701754389,49.12280701754389,56.140350877192986,49.12280701754389,17.543859649122737,10.526315789473756,3.5087719298245474,3.5087719298245474,21.0526315789474,21.0526315789474,21.05263157894734,42.10526315789474,42.10526315789474,63.54656237289413,400.0,393.0451077878018,386.2200113913548,372.1945433312596,{}
52,406,5,0,13.546866666666547,5.381382351970404,173.54436625492468,17.017425192461022,22.188007849009,48.73048977266779,53.813823519705736,48.73048977266847,92.89706267365852,70.78103383768294,68.00672080171103,53.60697488772189,57.78907931158665,6.970174039774747,36.941922410806,12.324535006692711,6.938491430503063,12.03313675192363,10.762764703941036,8.031541450376722,39.03297462273849,35.38947455649259,53.81382351970392,400.0000000000001,399.52913462195056,388.0570000581327,366.5665570179348,{}
53,407,5,0,13.580233333333211,5.758526005989252,184.6323892793036,17.275578017968638,28.792630029947546,52.14567081221585,52.14567081221495,52.14567081221563,98.57008763395602,70.05549243796231,69.62255361489179,63.2754764971246,55.98447509004859,7.486296087622804,38.92873965563831,6.900412045982648,7.356099633924941,5.758526005989614,5.758526005989522,8.592965944053958,42.18365099808318,37.43148043811391,58.72567294814476,399.9999999999999,404.5748744244307,398.38013975510273,375.0122623211028,{}
54,408,5,0,13.61359999999988,8.275173319824955,176.41846639040924,11.702862339884398,23.405724679769023,46.81144935953765,52.98696285312838,53.94752981007194,95.25439824591584,72.37820632411028,68.37310470551643,57.11318360694008,57.9918479701239,4.019075883451251,37.3106923107448,10.397528297673716,5.418430239632698,5.8514311699420585,11.702862339884623,11.650438593324452,43.57524378899893,37.97782636427314,59.67312343596104,400.00000000000057,393.614775488659,386.9030714950352,363.5429718797577,{}
55,409,5,0,13.646966666666543,6.107760067161525,184.1466869958451,18.323280201482312,24.431040268643294,54.9698406044473,55.3081197394773,56.31076547366721,99.4271303773328,75.54881967850085,74.47078884869666,60.47930730742655,59.9585325602327,4.287712085227895,38.86715529888875,10.988347165786765,5.363979896094861,6.107760067161073,6.107760067160847,9.113558075889614,39.23169762192424,39.12754267248533,55.30811973947729,400.0000000000006,398.6921964058692,392.08775146593865,379.468403858208,{}
56,410,5,0,13.68033333333321,6.212948073464963,174.95820627941785,18.638844220394663,24.851792293859173,49.703584587717856,49.703584587717856,51.23328230674647,95.0398303906076,70.83850710781651,69.37259954935007,52.369511424509255,56.91560024946648,4.098639137461532,39.75143023712758,10.792486462398756,6.282193612441233,8.78643542781377,13.892574232943591,9.790199162408044,42.02447464960619,37.979529474644096,56.26063764847323,399.9999999999993,399.37224564442937,386.4533610168957,366.7744842761598,{}
57,411,5,0,13.713699999999877,6.525884661473448,177.2831969301125,13.051769322946347,20.63665927781245,52.613364176466106,52.20707729178546,53.81382351970522,93.4364488625544,72.96160858188743,69.51515732579878,57.10855319022244,58.024733187926586,4.275506655952313,35.34927824475017,11.4522499713014,5.955169985076736,13.051769322946576,13.05176932294667,12.979216634141494,36.49450324188024,34.891188245897865,59.09439897670356,399.99999999999966,392.9102868071018,385.9110462789818,372.4902708302441,{}
58,412,5,0,13.747066666666544,9.538691542228811,176.53023238440574,13.489746946313476,20.234620419470257,47.214114312097976,53.95898778525404,54.37890842025165,95.38691542228834,75.4099779280683,71.4613685611605,57.87251771619708,61.38963205254049,5.275671504515231,35.65074986384502,11.350687176381143,6.234884505335913,6.744873473156922,6.744873473156781,10.07173650861978,38.688257699778205,34.53166802955434,47.69345771114408,400.00000000000114,406.0951592450231,398.46164233140354,378.2545249447404,{}
59,413,5,0,13.780433333333209,0.0,171.71853311366326,15.310058472095594,20.54059888986133,48.41465588217885,47.9280640763426,55.20120085149267,90.05646566736306,69.82460970685717,69.36157422719339,56.75767705859471,56.356279059594726,1.4048929964999388,33.27589411709664,15.052424962498437,10.556767373698904,13.693732593240965,13.693732593240965,10.516627573798814,40.46091829919624,34.600507513796856,48.41465588217976,400.0000000000006,398.5911315194917,384.4013919331316,370.3009126306701,{}
60,414,5,0,13.813799999999874,6.99069981718768,168.3583460412193,13.981399634375132,22.10653386083533,56.36082376714887,55.92559853750043,49.43171245972865,91.94830025936577,70.25566366732741,66.74963140263117,56.69868508335208,57.99558138261386,8.024545851682433,34.32722392108599,8.024545851682433,3.8096328790816174,6.99069981718768,6.990699817187611,10.719658473585923,35.5025361922917,34.73250401460496,48.93489872031369,399.9999999999991,392.4765905885963,392.0405399604881,370.770796458424,{}
61,415,5,0,13.84716666666654,10.411584125906556,177.30288876141793,7.362101738323192,22.08630521496949,51.53471216826275,58.89681390658547,59.355161783557705,96.83332983501954,75.0790008495295,70.65733459120042,61.43016925102575,59.91337494853133,1.3482616022172351,35.981731509174324,8.679434064274119,3.960518456513455,14.724203476646156,14.724203476646156,10.996758693084756,43.22863762109228,37.41425946153026,52.05792062953464,400.00000000000034,399.2540469900604,391.30107483280966,376.11622490148784,{}
62,416,5,0,13.880533333333206,0.0,178.39817699341296,16.492917297411523,23.324507325097265,44.86558564475264,51.6309979140117,51.63099791401213,89.73117128950254,66.79122445396433,66.78178112727574,54.4275835836786,59.87034194204671,5.745133822721755,32.35417468585342,12.397394038504444,7.559386608844306,14.751713689717937,14.751713689717793,11.01510620145882,43.11010191786613,37.66734355949848,52.15518392061007,400.0000000000005,392.0321687735354,384.6776294674755,361.7179154963481,{}
63,662,5,1,22.08873333333301,19.87023936759513,174.98419650513787,13.20106850472498,24.75200344635916,44.584153760140325,47.882315455960224,44.58415376014021,102.36149718617196,77.62646415606191,67.70068270696629,54.69214057914837,55.91441970525193,10.719193923369858,47.05774635499256,19.85718548519276,0.0679043958946294,18.151469193996668,19.870239367595183,19.02293147848701,54.556331787358886,57.87394655821197,59.42772237366534,400.00000000000006,398.2603422438903,389.934626487529,370.07533315851975,{}
64,663,5,0,22.12209999999968,30.4923487054914,174.9592344448374,12.93879866393002,20.924820318012348,43.33123237096144,46.54095328732895,41.75722320861011,106.03015608262297,85.11814351153427,69.86739882244592,62.2252855691213,63.107248301855975,20.913775864531203,43.33814747342751,18.708869032694224,9.157400288821124,17.726263142848154,17.72626314284821,17.68616756601233,58.48163524612971,60.3206213697045,70.61386016008522,400.00000000000006,396.6083958167506,388.5883858875548,372.497066542269,{}
65,664,5,0,22.155466666666342,16.207368806845036,170.95311488898676,14.603560497144494,20.96501513373809,43.57257819857861,46.79590748224807,43.54272373930213,95.14891483773444,74.18389970399635,66.12120673198422,60.87902921266527,63.26440855149201,18.540903042698915,33.05117498915877,9.951651747555845,6.727146870564866,16.126934718260085,17.812781606379335,16.94750735786988,60.37932524050001,58.8896417008375,67.73312581669234,400.0,399.96098639391215,393.4972071255457,380.5990760590586,{}
66,665,5,0,22.18883333333301,11.428190653885272,163.292515192827,14.693387983566696,21.223782642929777,44.11038689833778,45.74190687263967,45.741906872639554,93.07244383505422,71.85289111547195,66.14033032171096,65.020594456867,65.55199452831857,19.54793119981707,27.78463230731279,6.073143673729533,5.997229377807798,16.40741352085754,14.693387983566696,15.52447351597118,59.554765150510605,59.630679446432055,78.3647359123558,400.00000000000006,398.354074221142,388.561912046088,375.4976929133716,{}
67,666,5,0,22.22219999999968,4.93822979043776,159.7033660080774,14.814689371313271,21.398995758563505,44.47454056737496,46.11952956850986,46.11952956850988,87.25758727373332,65.86363661597437,63.318123523061786,63.861853894526575,64.30453702881641,18.044149495514944,23.09651135425917,1.1644491141106528,4.378713610911632,18.10684256493839,18.10684256493839,18.101890773900607,60.09904725306177,60.108670799459446,75.7374134768897,400.00000000000006,400.027094763968,395.11324864508,381.9465275048184,{}
68,667,5,0,22.255566666666343,1.7543184716556173,166.6971837363504,17.54318471655685,22.873514399818163,47.39907498036628,49.15223433877605,50.8752356780146,92.9954276993142,70.17273886622706,69.27789146964903,68.1334165408432,68.39104726074777,17.3999824673823,24.73254911081221,0.4161727013838572,2.853755666632196,21.05182165986809,19.29750318821241,20.18933045403844,65.7156513232801,64.26895574227876,82.45296816781672,400.00000000000006,398.2457493163029,394.7567409327044,380.72348648729,{}
69,668,5,0,22.28893333333301,3.4331918303342066,159.7910160464732,13.732767321336247,22.31574689717142,46.37986762871104,48.18714362091735,51.49787745501136,90.97958350385323,68.66383660668181,66.90747398726842,70.87104671684142,69.510417272361,18.72344431208694,20.73480957784045,2.3958909783237914,5.945359094359333,22.31574689717153,20.67055206605248,21.47428210201452,65.546844542788,63.18053246543121,78.96341209768397,400.00000000000006,398.2539518617324,393.10046457325257,382.8047379326662,{}
70,669,5,0,22.322299999999675,1.7699115044247329,157.56189216606074,14.159292035398312,23.008849557522083,42.47787610619471,44.247787610619326,54.89579617440992,93.82200552706946,70.81858061501786,69.93363619973445,70.2020000680393,71.08660689319242,15.748983308482025,23.17371699824912,0.4224246075168594,2.8178206172007094,23.076822673283765,21.238938053097296,21.230563803671544,68.69121088350846,67.73702824064674,83.18584070796469,400.0000000000001,400.003915714251,394.69423387822064,384.0748745756329,{}
71,670,5,0,22.35566666666634,1.754116038613924,150.945736556603,12.278812270298502,21.122354181147728,38.63039855227605,40.38278384125131,56.13171323564982,91.23089894918782,70.16464154456224,69.24642665585293,69.15575040968656,69.09529957890868,13.027154032594012,22.094778649248497,1.4205945232760089,3.596824431273035,22.87087499587465,22.87087499587467,22.88063944935868,68.91394708657555,66.5563646862455,84.21583991333046,400.0,400.0,398.2809213453393,387.80248739631526,{}
72,671,5,0,22.389033333333007,2.502640897467581,150.51257707210254,12.51320448733752,21.23561219368864,38.9319556884294,38.97215389809318,56.65594297255534,92.03800031464236,70.80749095309359,69.88952864184273,69.76755738766849,69.64558613349413,13.050924196644246,22.32073951388702,0.4268993896099573,1.829568812613616,23.073209014841108,23.073209014841066,23.052567038932462,69.46262925223277,65.3765922373957,83.172814425281,400.0000000000001,401.74207665609765,398.18345840406494,391.1252228525541,{}
73,672,5,0,22.42239999999968,1.7237376594208382,153.56751623431867,12.188665879630648,20.684851913049368,37.96138414856782,39.6834210320618,55.15960510146509,87.91062063045997,67.2257687174106,67.17137255280329,68.21023572695083,65.8284518642713,11.88358118719907,20.853277861545507,0.3800718929808226,2.7618557556602354,17.237376594207806,17.323349080620922,17.280602067526104,65.32168934029698,64.1561355351559,79.31066639914229,399.99999999999983,401.6641643360893,401.66416433608936,391.3226182074503,{}
74,673,5,0,22.45576666666634,4.010722964635336,166.89620183599172,14.34919870055046,23.31744788839444,46.669376295937056,48.5612268098858,53.83938099169914,95.1311022120904,71.83562001302825,69.95234366518321,71.74599350275207,66.3650439900457,15.246023619334892,26.007922644747623,0.8968249187843185,2.690474756353183,5.380949512706366,7.395407735668139,6.277774431490911,68.15869382761451,71.74599350275201,82.52738641916999,400.0,400.0,400.0,392.82569444986007,{}
75,674,5,0,22.489133333333005,3.975192699031112,160.08728311007758,16.09830347299512,24.95205373472356,42.70326588397176,46.25594077570784,53.36242770335923,97.77681208563712,72.9098457886599,71.11526051306839,69.62396401004082,67.00289742896166,14.958155833399132,29.449340034536817,4.202744690350755,0.4067172280986142,12.44432153817202,12.44432153817202,12.442534459604872,65.97857255819508,67.51505986434495,85.35100687415537,400.00000000000006,401.7738096609816,401.77774273956186,391.1112886858147,{}
76,675,5,0,22.52249999999967,8.642095629887578,154.38067617981827,13.558835155425134,20.3382527331377,44.098795564022936,45.88644167532478,49.179990384495056,91.52213729911966,71.18388456598196,66.93339493154463,71.99902749175055,66.91477128242627,20.32771301273829,22.0597123807496,3.17533217468781,9.917093155550331,10.16912636656885,8.642095629887555,8.464448524314662,62.24023535370685,64.92204082675687,79.73024538232222,399.9999999999999,399.9892278621328,398.2943887474689,384.7356806765359,{}
77,676,5,0,22.555866666666336,14.283437133506355,162.56236389436847,14.283437133506355,23.279154428828868,46.45549318077234,48.33867345068818,51.808233733287565,103.55491921792104,80.3641695345586,73.05596952459712,65.76588339369243,67.47207376475512,14.96794280068707,36.83820119340089,10.780020980805716,1.4735280477360675,5.646024269713355,7.361514999789551,7.096200861465661,67.47207376475512,64.91278820816115,83.99113452616686,400.0,401.7573763857925,398.1548132818393,383.8839812515285,{}
78,677,5,0,22.589233333333,14.38771592111659,157.1339645097386,14.276612204964971,28.553224409929943,46.4332957629976,50.095450293688266,49.96814271737757,107.08946197568667,78.54164378797536,71.33929190700701,65.34716558698301,67.79916140240778,16.666678383961425,40.4579309545087,8.916796027578812,3.037914494211009,12.492035679344337,12.492035679344392,11.585434043563282,70.01482027176746,69.54214637963747,82.1680738285125,400.00000000000006,401.6288491680802,399.7610751404546,387.2572179653233,{}
79,678,5,0,22.622599999999668,25.047725146844115,152.0664454166534,12.492035679344433,24.98407135868875,42.86699916992564,46.70683742687338,51.78347866279725,114.26865204755126,89.3001808116514,76.7550691669021,73.38901598613131,72.11102270075651,20.986259816135657,41.46434119989772,15.08937741275247,8.97111034576119,14.387715921116614,16.160027747973835,15.250384440831112,67.75377000337613,65.04683934380256,82.26491307700311,399.9999999999999,401.7834445391354,396.3728862676568,383.833330337149,{}
80,679,5,0,22.65596666666633,21.198109724570763,146.495074698246,12.322850358484493,22.952901627424104,42.396219449141526,44.15078781332637,47.53099423986873,103.92368213705318,80.99786352778791,70.26435636497911,67.56226461318272,68.61917135004785,20.709389551591016,35.72544186969208,11.097520737082618,8.5051079862817,17.69187334292195,17.95270126885613,17.827823070892975,70.63327664105475,63.99271167169525,82.81401518465036,400.0,401.7587089752548,398.1012090209133,383.91409551296925,{}
81,680,5,0,22.689333333333,17.68181419062418,152.32038833805126,10.755427682642168,21.291723790102964,42.58344758020616,44.52167052655265,51.30773798233711,100.80185005659342,79.56816385780807,70.51191914444166,63.894040699600055,66.93708302021923,14.432292947790302,35.20179538852051,12.255877566376853,5.726631422135824,19.44999560968642,17.770003337154208,18.71618747681731,69.03471413443253,66.04091198081352,83.27364857583379,400.0,398.09221455152897,396.214698400234,382.0745065563295,{}
82,681,5,0,22.722699999999666,17.02131474152512,141.22725897372848,13.54947295526942,25.46165533841441,44.06834591654516,46.01088601077859,42.34210298521739,98.29206447553992,72.84810847389124,64.25834085830229,65.55790282338933,61.999102365150975,21.54273872894225,34.448388705306456,7.427496461997293,8.157250488546083,17.021314741525035,18.93596411704856,18.823655232760306,65.35797021337584,64.11838803129291,81.36737730040375,400.00000000000017,401.69245906410487,398.2463306078129,382.9561743205605,{}
83,682,5,0,22.75606666666633,18.012019453972343,158.0853113655544,14.338103381990678,23.368249513479423,46.736499026958846,48.52367751585536,46.63328984903538,102.17470699172866,78.85956860094862,69.65446324809648,67.13100130412079,67.70384198024828,21.06670969276001,34.60747808880956,9.570389916682757,8.671622648965467,21.5817034943428,19.79619101948009,20.75065966455168,69.38285775510491,65.97544338848417,82.52198212980345,400.00000000000006,401.72285066352896,398.2092014996692,387.4646948835061,{}
84,683,5,0,22.789433333333,14.005309557442116,149.5559649952512,10.422869122782116,20.845738245564355,39.99207782585135,40.10510323584992,48.76397981647841,93.82190540084656,72.98076122530324,65.67859605525348,63.499873025676266,66.7877641430382,16.855393619728716,28.32339938450332,6.100424482816152,6.882784116164089,22.58288309936134,20.91799405405924,21.841698371511143,66.88679700801913,64.16339322104761,83.5456515818088,400.0,401.584910092914,401.4158003409877,385.7439573521679,{}
85,684,5,0,22.822799999999663,15.741207228676831,161.67362046274795,8.691627682615948,20.859906438278284,43.49289102831997,45.22988093305892,48.79712315999537,93.88567319936952,73.03036395355723,64.93020987224111,57.19044906412137,64.73073150089783,12.567137394627252,32.6546093888968,10.432718821254184,4.428419843820961,19.200433116294388,19.200433116294366,20.1572894242396,67.3239503283607,65.46880147486786,81.7197909490244,399.9999999999999,403.47505588318336,401.6886300364698,387.7089510835991,{}
86,685,5,0,22.85616666666633,15.64492982870878,146.27779573758147,10.429953219139035,20.859906438278177,41.86442271354763,45.32998407490859,48.70414665794878,95.62370616238442,74.76820842589434,66.90187176960148,64.45910595983219,64.9975114852507,16.042490562934177,30.798790148479725,6.819803321968266,7.896614372805402,20.85990643827824,19.43507033344819,21.03769738209525,69.69360412362363,66.50305286188399,74.82880674065802,400.0,401.6886300364699,401.64725315654255,387.744022173628,{}
87,686,5,0,22.889533333332995,9.052058682580178,147.73063875105697,12.552946818673965,23.14649025295961,40.984938831892784,42.75379628122528,49.7388242640452,94.3560849735394,71.20962665207873,66.71904318021495,69.7103259069072,68.16740137234058,19.216876219232404,25.408483061170955,0.8212340264630029,7.271654016135358,21.303057166460302,19.60832976444443,19.65486770001263,71.23334173780216,68.06785785398142,83.5124824910896,399.9999999999999,399.9999999999999,396.3631471402953,383.9519427340049,{}
88,687,5,0,22.92289999999966,3.5527145198997325,146.19107279083778,12.434500819648877,23.092644379348062,39.24101446329523,41.010391930369245,47.99453025015319,83.65869509511823,60.63079711621532,60.50021653288138,64.40668746795143,61.03109591636519,14.73941533578386,20.93968587119025,3.430682808362804,4.662723641731191,21.39017395141042,19.62050723164761,19.667578669257068,69.32483420928344,66.4100058961925,81.73173990810022,400.0,403.5499007358802,400.0,389.281712448386,{}
89,688,5,0,22.956266666666327,2.500586143574154,141.99498655796728,12.377269933436867,19.53020211742671,42.58344758020618,42.58344758020618,47.87169554147778,81.6432759723039,62.11327124621141,61.16218140463263,65.22704050433765,63.24442540423638,16.364046743298445,17.400187298125275,5.444719357815984,5.992678305080062,22.986358447811213,21.29172379010315,22.2371703689754,68.76386643667922,65.04770848523299,83.17973442779125,400.0,396.4671247686929,392.85871623761966,380.4220852571305,{}
90,689,5,0,22.989633333333,1.7919211916053988,156.26744619533588,14.335369532843666,23.294975490870783,44.94115485060024,46.72758776899129,48.51442549619431,86.18004607312989,62.947209956002496,62.87643114573348,64.33472486253675,64.03507546867297,15.67166329907161,21.99426550959572,2.8067159891900246,3.50589790820527,21.577588506459232,21.57758850645921,22.52864026198597,70.72724526496233,66.4722238720978,82.50624764634705,400.00000000000006,398.2098858732271,396.419788075029,382.09962105687634,{}
91,690,5,0,23.02299999999966,5.331438047796159,146.25598601848984,12.440022111524254,23.17114916292082,41.02860177626913,42.79934366233904,44.46417911281383,85.37702440448895,62.225493178778926,59.540832311876784,66.61356749118647,62.32135399063839,20.00885208049999,20.90099807368552,1.5810809545899929,8.272175903481411,23.10289820711646,23.171149162920933,23.21562128933914,66.9704258884608,67.00016408823348,85.37702440448895,400.0,400.0513182374297,394.8504915044701,380.724242019524,{}
92,691,5,0,23.056366666666325,3.920513652300997,142.40695831602264,14.026456053217728,24.608836533579336,40.478235509393095,42.22522429252396,47.468986105341,89.69326422708576,65.08524996721937,63.26527892410877,69.514546698495,66.93268958982844,20.76243424886104,21.447017573128846,5.985214206454543,9.085398689209567,22.860326509651603,21.3299003283469,21.15362471987117,64.2236955780835,64.25303486340908,82.48000437706823,399.9999999999999,396.4374088312195,389.4276029986212,371.8044499890541,{}
93,692,5,0,23.08973333333299,2.534642532689816,143.78372748367102,12.545840459241814,21.5817034943429,39.59238203896017,41.37760267113941,50.31121774313381,86.32681397737115,64.74511048302824,63.78036444784493,70.51617855593781,68.57738339722857,19.238044744923627,16.759584954408638,4.347298422878907,7.29546631885421,23.299417995734814,21.581703494342843,21.631557324876383,68.18762560759126,65.28942665900536,82.46357326407113,400.00000000000006,401.72285066352873,398.1406292385541,383.8833055639496,{}
94,693,5,0,23.123099999999656,7.1326295162148,157.17093466255994,12.608826746517284,25.027806475585045,44.72135954999581,44.61458337006599,51.74229895158227,96.43898043600302,71.41539737697966,67.85134220909106,66.29892881258456,66.97131168495685,14.911078993195702,29.80238201955717,3.470682179450705,4.597912289015881,21.39788854864473,21.69304578186562,22.46549832396608,67.80190229200497,66.44724856384323,82.04461929248602,399.99999999999983,401.7806154570857,398.1275730063384,387.35579910895706,{}
95,694,5,0,23.15646666666632,2.534159251872089,149.25746226552116,14.446930511361453,25.150812446403464,43.043424101081165,44.941154850600086,52.08914873177861,93.60966119395724,68.46921259303366,67.4544774340925,72.31843364002725,68.87044017024311,18.506881376003093,22.95846948684857,3.611947049759465,4.6751611744480215,23.3637938844956,21.57758850645916,22.46660874692241,69.92371771432704,66.99242643598018,84.29651348350255,400.00000000000017,401.71420202223845,398.06471568216045,387.3203562162997,{}
96,695,5,0,23.189833333332988,9.0963320750808,148.33523369253336,14.271499923986866,24.97512486697701,41.18539514212489,43.14769156575189,53.54784875207429,101.74701200245698,76.79224110169153,72.26822424618626,73.24674888556774,74.14168096781634,20.17530952453569,28.00350663958841,3.4469636794295866,8.196987808286849,21.40724988598024,21.70253624719525,21.59638299579848,71.86993029749328,67.91649406602176,80.45538304545772,400.00000000000006,399.92441007466624,396.2309499638874,385.43372124508,{}
97,696,5,0,23.22319999999965,17.911305641108633,150.9764766349468,14.329044512887066,23.35348536316718,43.02443257694815,44.92132601391408,53.76376081172717,109.31767422929924,85.99292266332365,76.984454362326,77.4314032007087,74.09418520745089,22.01967943765669,33.51123068229742,10.637382353509338,8.194062037017034,21.493566769330425,21.790043764491124,21.67205256335893,71.68066148018414,68.96917186066213,78.8911178366916,400.00000000000006,403.5771317023949,398.211468731787,385.6924253382309,{}
98,697,5,0,23.25656666666632,21.39376055277957,152.9575205002709,12.436585776871349,24.87317155374248,44.558283496384576,44.73503263730849,51.52299821846659,110.16694381294596,85.29795014350651,74.51333488544867,67.00881979389283,70.08153463452982,17.13629430355286,41.48165034860017,15.127211523136223,6.854517721421075,23.16474854545377,21.39376055277969,21.44991321444712,73.39061215521588,71.1451666947504,81.80334450839625,400.0,400.1420174410601,394.74142108525774,380.5402813358784,{}
99,698,5,0,23.289933333332986,15.946725798445543,158.84372770608954,15.84919139237524,22.893276455653275,47.6778417477549,47.84017739533674,45.82040618980288,100.37821215171007,77.48493569605681,69.34357922403808,64.2402866320341,64.35873829761272,18.73510510565461,35.85137078173773,13.108650990679507,4.896002177241599,22.89327645565317,22.960908143486733,22.140590491034573,67.67538493380869,65.28660967797691,81.08350821947116,400.00000000000006,400.00000000000006,398.3802220370074,386.06550750604896,{}
100,699,5,0,23.32329999999965,10.666487291812016,151.0607978066522,12.274917962155524,21.11565508403034,45.62626227090746,45.72724268717122,49.13097543602188,92.95520611466716,71.89594806405384,66.4811814319911,68.91066091323114,68.61558243372849,19.839109771908056,24.12758367401591,1.7409630290667335,9.806441468811272,21.11565508403035,21.115655084030337,21.983346722961983,65.92053232093582,66.07790751000391,80.73995233787761,399.9999999999999,398.2472697936103,396.444133653092,384.17367740396514,{}
101,700,5,0,23.35666666666632,14.255534346233372,154.0856230810288,14.255534346233286,21.29172379010305,45.97271689562245,47.87169554147776,49.50907973374733,99.03394554323728,77.7999824387457,70.66923979377145,71.45499249429236,71.06696646934381,21.82646390336106,27.70505818133301,5.257752638054058,8.206750427663792,21.29172379010308,23.054265119972488,23.09724913506789,66.43005547120748,68.13736998098148,77.88031284985952,400.00000000000006,401.626363833737,397.98224866403336,383.7972081897228,{}
102,701,5,0,23.390033333332983,9.05768033159654,158.34508796803107,14.2108580795988,23.09264437934793,44.40893149874625,46.32173008625696,53.290717798495386,99.49186562569508,76.40401470280594,71.86027139541045,65.65983907942962,66.54632659127265,12.913832124769442,33.29308436331826,7.047077692460107,0.8117835080361147,23.160865043128467,23.160865043128425,24.15429456426228,71.0584484212153,68.11013040429907,81.78963041700482,400.0,403.4834318989867,401.7081816193192,392.8320803446776,{}
103,702,5,0,23.42339999999965,2.523772325625354,164.52982615400623,17.845765256206224,23.268031156188297,44.75695156482182,46.706837426873385,48.31557620952688,91.29290719688244,68.02491113578793,67.07015090045047,60.35813430772816,60.71824250048246,12.223672542930672,30.74923845905812,4.141244216672021,3.4610398525810524,23.199494833068123,23.472439455939377,22.496759041776727,70.1210675335061,66.15987741321089,82.10991545824712,399.99999999999983,401.8508136524312,403.6339705297425,394.6497277882149,{}
104,703,5,0,23.456766666666315,2.4678901351232625,159.14543106423588,14.06913841956035,19.19568034745912,43.661433531883,43.939534646320375,54.12505618341191,85.66814151971164,66.51868135254513,67.32467759361464,59.72667157396279,58.43767916771321,4.974705067870104,26.58546837890105,4.370489877440491,6.686648107420524,24.43086589676612,22.95270504094953,21.978327551875623,67.62175006224265,67.43041525193985,80.34868152110998,399.9999999999999,406.78286323855394,406.7342002996335,394.4804851476081,{}
105,704,5,0,23.49013333333298,1.7459094068930596,152.38498937761776,17.459094068930288,22.76387360936587,43.682639404350766,43.787185160749566,52.49354712722412,92.79635785548952,70.03251564978778,69.97152263173996,64.33025418759689,62.46962529724783,10.906452325343366,29.39397768264041,3.463936763947572,4.45363298221821,24.442731696502307,24.505006273091915,24.50487836438293,67.18057929621642,66.1512952292149,78.64348100262555,400.0,403.399537546514,403.3655328555327,389.3730274989813,{}
106,705,5,0,23.523499999999647,2.5233454422226007,160.83234561785065,17.84274673471711,23.19557075513224,46.4254418044221,46.52819097135593,48.20844698376602,91.06795302175556,67.89628184111749,66.94798241179376,62.390737251729206,63.391230151853165,14.697240702820864,28.153870209487764,1.6808280722082145,2.6513061853283943,21.41129608166053,21.48551223515336,21.535609675167905,69.59428613262162,68.41370451047533,82.09602697878324,400.0,399.9323420106497,396.4343534426977,387.3355802172716,{}
107,706,5,0,23.55686666666632,2.5217653493033527,148.52748349895035,14.265259032429883,21.472058228746864,42.94411645749373,42.94411645749373,57.17237484267237,94.77611473197447,73.3049036764981,72.35383830716,69.62464910026802,67.23913557128094,11.26043250547309,26.34172990059494,1.6375135241352154,0.8692973029359337,24.96420330675221,23.45377349715735,22.48043257825145,70.27156802338322,66.02616259044004,78.5399354636806,400.0,403.38787860337794,403.3129891902845,394.3358909769179,{}
108,707,5,0,23.59023333333298,12.606347318024062,150.00591208560022,16.20816083745956,25.276930904835112,43.25926485393235,45.34567354955606,54.0572095712913,108.11441914258248,82.86128370829205,76.50488669521121,70.74580649311054,67.33153052325133,15.002730291086776,39.03320792600721,12.431981325545962,1.0945767079841744,23.480951358995096,23.68723015033803,23.58863015646796,71.89059314182799,70.8863943271636,81.22069520595532,400.00000000000006,403.54780395038216,401.6668087417295,389.0625546318982,{}
109,708,5,0,23.623599999999644,16.229631034294588,157.97351486663013,14.449685635919886,23.29941799573481,46.73649902695883,46.73649902695906,53.797750438270434,107.67011117666316,84.4077825812827,76.29475799799934,63.67153529813186,66.28706704154445,11.224569624722337,42.66144343647216,15.930507047232595,1.2067800901072587,25.15560887156698,23.368249513479416,23.499391378073422,71.09399024565403,65.8023352898694,80.67174309825675,400.0000000000001,405.37247316461736,401.7908115596526,389.255411196239,{}
110,709,5,0,23.65696666666631,10.742316355201613,146.75027284494794,12.362181510762346,21.26576826600598,42.42139857449807,44.29170499629615,55.00256501512028,99.03926321108509,77.78537340969105,72.53987027324922,65.4620813663903,68.32903383499138,11.91577119762303,32.133758918903254,9.43705187581179,1.7918452928755642,22.95833709141588,23.22844446678147,23.144668366310498,71.31544265645078,66.83582942426165,81.25638645161794,399.9999999999999,397.830415616845,394.21955348977474,381.87018438529816,{}
111,710,5,0,23.690333333332976,7.226571216099381,145.99062706294262,14.0216077341299,21.032411601194912,40.46424399214027,42.21062891931277,50.94906057694581,93.04184646248976,72.05285245808513,68.4955818141375,65.24197920479776,62.12331863916302,12.734530643007927,29.35739128611772,7.046973393501162,1.0295578149371067,21.10531445965642,21.322527534926348,22.085514486441014,68.59054103007844,66.98123221255554,82.39558908325318,400.0,399.8041145428295,398.0020758835928,387.48964128445687,{}
112,711,5,0,23.72369999999964,2.500073245406304,152.28914572387268,14.142549962318936,24.74946243405806,40.813265011925246,42.57471323913963,54.916315491220594,92.07943198264086,67.38613409178495,68.20213234852235,62.55622725923854,62.35566224718593,7.541244453181662,29.623452280184665,3.7104527229751056,4.1516957494910685,23.04953643251197,21.506443248415938,22.31285759086336,66.62769700390857,66.44718849306082,81.33887543476138,400.00000000000006,401.6101351148771,401.5439857774169,390.8838734853751,{}
113,712,5,0,23.757066666666308,3.5165599550383173,148.07181303513448,14.066239820152935,22.925166116924377,40.4786449137397,40.5930454572045,53.01148524352268,90.29071569121416,67.39053877331149,67.13924959362339,63.24000084893555,62.81900226981759,10.043823244671673,27.15440835310926,2.7866096427333105,1.804279624791434,21.099359730229345,23.126562367256675,23.04466031886244,67.70058103244747,66.69820346311894,80.89998844729519,400.0,401.64287576428,399.7835330340118,389.2515779963885,{}
114,713,5,0,23.79043333333297,2.510589363734669,151.27212410073886,12.426783347101876,24.91688798585968,40.86943384271487,42.93768442568532,53.52326871813852,92.7390098166649,67.83238928349589,66.84888709308416,63.42370523239708,63.91660952365612,10.164893598308822,29.04614573490028,2.5600845331713344,1.896172630659408,23.07831193033197,21.596906318824203,22.39193780290504,70.59596563377693,66.90421308496013,81.68101310626724,400.0,403.4556945550873,403.3736671498504,391.0439383707318,{}
115,714,5,0,23.82379999999964,1.7607312074274593,153.43638511852606,14.195468819753538,24.71304015711957,40.64963649410996,40.64963649410996,51.18249070887155,90.2278113139669,65.52664742652912,65.4240151005946,61.01918053453858,63.52340131841186,11.089407973207926,27.930542169136857,1.6611663765534104,1.0026860110727966,24.65023690398516,22.95712624475371,23.021870353735835,69.88871151805802,64.60091464374386,81.16569822110463,400.0,401.6937594493428,399.9341158684243,389.3167420922444,{}
116,715,5,0,23.857166666666306,1.7674217871028286,154.2626147668995,15.906796083925991,24.806946917841543,40.80410052052796,40.99504260464886,53.287107391329656,94.08927610611404,69.29104929144465,69.19171764426369,65.05723890980858,63.29400533187902,10.913807835804391,29.883769088010013,3.739271208367427,2.7664526826133624,24.80694691784168,23.24680409905828,24.04685793348534,69.86053038071952,65.3612446991068,81.32061104390738,400.0,405.1253054066455,403.3595737358002,390.9998796625573,{}
117,716,5,0,23.89053333333297,1.7756570244843208,153.21152480061852,17.845132241837018,23.151735089666204,42.76348399964958,44.709901461451445,51.524659391029466,92.6069403586648,69.45520526899861,69.39238071152909,65.49080107312977,63.36085708686085,12.928959056838266,28.176969276296404,3.4736002392891123,2.677359496758527,23.08354131829605,21.38174199982473,22.324599818697607,70.00946728699012,67.60083904083541,81.7573891549444,400.0,401.69113991162186,399.9172262915906,385.726494891637,{}
118,717,5,0,23.92389999999964,8.679587653000818,141.1334047588584,13.995414561488728,22.63359548144444,39.96382272398216,40.07676827955336,53.8414348385083,99.084250588985,76.45923597386641,72.10060286240002,70.67432899950131,68.91361850668136,15.998858193136924,29.268123303829725,3.368957227881652,4.077175973596809,22.63359548144433,23.160028536295453,23.75483709586581,69.15952779338807,65.29383380635903,83.32404146880904,400.0,400.1092211890629,394.69894005062014,380.8351448640978,{}
119,718,5,0,23.957266666666303,16.079258229944422,142.45152453488402,10.653942146905958,21.3078842938118,40.99422573929229,42.76348399964933,53.299296802200224,101.27473498635956,79.98344525831807,71.9295664783566,71.25396003053231,70.2330436204868,17.475686783721017,30.477357535183387,6.005390647326749,7.176441823555592,23.15173508966619,23.35512173524009,22.385093637910582,68.16118384715912,64.0174643005036,81.68022312627839,400.0,400.0,396.36944588917714,385.6488333469773,{}
120,719,5,0,23.99063333333297,15.946725798445664,144.67194309925193,8.805106329097374,22.960908143486623,40.54175410973558,40.65633301209392,52.83063797458422,100.43998336503438,77.50494471787425,69.49827855841045,71.30641258443768,70.70703113934599,18.26115469380113,29.40964957251117,5.354474242821311,10.029649514538391,22.96090814348661,23.49495413834593,22.277010375917143,66.37150535318096,64.53340225489876,82.7867316425598,400.0,396.480162060605,392.9603636276779,384.1004979004232,{}
121,720,5,0,24.023999999999635,15.984220903459384,144.2521203440545,10.656147268972845,21.386167530812752,40.88715553119621,41.00271060532136,51.535323815695264,99.52078374510538,78.16525946408184,70.14145574063593,73.71289457110618,71.1883431397498,20.92772992104381,27.048765335959047,2.795039084715768,10.959758991681156,21.38616753081273,21.6062711083494,22.36532170834392,66.90061293093845,66.99077548205844,83.49204534729046,400.0000000000001,401.6329409066085,397.9721887100817,383.7240671166897,{}
122,721,5,0,24.0573666666663,2.5125697536096854,142.30996348726688,14.213240887852711,23.16474854545362,39.1267701316869,40.90167225419816,55.076308440429926,94.22974062067492,71.08840915920605,70.13244215664065,68.95955826122508,69.07985404537021,14.014458852913435,25.201966778415454,0.7217747048709953,2.375841736867301,21.39376055277978,21.39376055277977,22.26975703987671,64.41839240974446,63.96728321920017,81.74544429268967,400.0000000000001,401.7755381128909,398.1650190939845,385.6364873873153,{}
123,722,5,0,24.090733333332967,2.45836354957063,149.8593900506123,12.291817747852935,19.20043311629417,41.75601228716423,41.86442271354763,52.14976609569568,85.33744410830447,66.14779793390458,65.23817552117077,67.60339620321406,64.05057526309827,13.73225172359355,19.500595834230808,2.375200516144901,2.2754021751304663,24.39856157999772,20.932211356773813,21.78597784346272,64.31005094973591,64.82900232301131,81.77523805997181,399.99999999999983,399.9508931309917,399.9508931309916,389.4469982876357,{}
124,723,5,0,24.12409999999964,1.800906759717719,162.12162358527164,14.40725407774187,21.61088111661274,43.2217622332256,45.16651175236934,52.22629603181408,88.26280591272415,66.65788224478707,66.59604709462724,62.16889810102032,66.6208908039066,12.23304244922565,23.83008594089631,0.626061473843265,1.430997654499265,21.6857890747274,21.6857890747274,21.71837065213873,67.147577440632,68.6481374811139,82.84171094701553,400.00000000000006,403.54780395038233,403.50359869082587,394.4355835757475,{}
125,724,5,0,24.1574666666663,3.971311611945457,142.62483399656605,14.208196358630545,23.15652696869405,37.46527881660984,39.43414446428822,53.39900671535287,87.31468441979142,64.15850259243813,65.86190084555597,64.4770837546065,60.931952001775926,9.305970851180293,24.594351535262376,1.5509951418633818,2.43727808007111,23.156526968693907,21.606271108349343,22.37864418974317,69.24085454747251,66.24964963102167,80.0,399.9999999999999,398.1504801327828,398.0831349804213,383.7692751896584,{}
126,725,5,0,24.190833333332964,2.5354571046894647,144.1424646051776,16.135550209201377,25.163693267829675,41.39090041869549,41.58458842281202,53.90455744956471,93.50303798497212,68.33985874393908,69.16930631427715,71.9133134704415,67.36029418910198,15.732307695342342,23.862699269163045,2.6423772614915606,1.7480341883713209,23.375759496243,23.581114183192767,23.49683164834096,68.86441663025886,66.26269132663634,84.33968538259519,400.00000000000017,403.6436562283464,403.6436562283463,389.1947302688289,"{'neutral': (['m1', 'm3', 'm12', 'e1', 'e2'], 5.4740514355598116, 12)}"
127,726,5,0,24.22419999999963,2.466857427219076,140.0797121580998,13.954652920056333,24.42064261009851,38.53354484289206,40.4594700572662,50.70577286395036,90.8560703562822,66.49084609074585,65.55739905398082,64.65714785101488,62.132421013646194,12.689015559124982,27.455147022300025,1.7652970516261348,0.9203685482837044,22.74330172004976,22.9431003022382,22.863362953540275,65.39143095511008,66.08547936856996,83.80056648630097,400.0000000000001,399.8326168755409,396.2090972695501,382.20371599090697,"{'neutral': (['m1', 'm3', 'm12', 'e1', 'e2'], 5.4740514355598116, 12)}"
128,727,5,0,24.257566666666296,3.986271006827677,144.79549861342684,12.479002127204533,21.46672633766908,39.3814524654918,39.38145246549168,51.729450425409645,87.64358705219401,66.1769012752146,65.16184331756563,66.14063730411249,65.12706383581019,13.931666691761734,22.000506459030248,2.553807660330108,3.726373045228684,23.1752896648083,23.447949511197567,24.251235778348303,66.56792807996533,66.1307003093251,83.86341159616993,399.9999999999999,398.1205223831544,394.3830471554312,383.54887925120255,"{'neutral': (['m1', 'm3', 'm12', 'e1', 'e2'], 5.4740514355598116, 12)}"
129,728,5,0,24.29093333333296,5.319899487359684,145.79932729456326,10.639798974719374,21.35335760890365,39.17347360869157,41.13138277238803,51.425695044477294,88.68272268134126,67.38539350655635,64.55541914364005,63.06837688740404,62.98933145185663,11.738247178793015,25.53167568181925,2.766590244159943,3.250743536887967,21.27959794943881,21.573123511109607,22.364917920200355,66.97124526755829,65.06427413497659,83.36395472591428,400.0000000000001,399.6578792808868,394.1555299483695,381.5233049658578,"{'neutral': (['m1', 'm3', 'm12', 'e1', 'e2'], 5.4740514355598116, 12)}"
130,729,5,0,24.324299999999628,5.589078433450242,147.2167927538267,12.371952509720346,21.282576610017507,40.689105175326254,42.74822999274563,51.2856955622994,90.15583714166574,68.9294496970126,66.04020168929765,64.62210013199694,62.90856075025852,12.77276194318813,26.264422592507685,3.574797675695663,2.4225901603887223,21.28257661001756,23.24680409905827,23.23618489202176,66.74925246794805,66.86742759772318,79.61249374617145,400.00000000000006,400.00000000000006,399.8281551991616,387.39208546346754,"{'neutral': (['m1', 'm3', 'm12', 'e1', 'e2'], 5.4740514355598116, 12)}"
131,730,5,0,24.357666666666294,7.350320553253022,153.68612806909414,12.479002127204398,23.17528966480836,41.04117192803744,42.93345267533786,51.72945042540987,94.48387324883386,71.30858358402551,67.4982793903365,66.79407980513213,67.29351213506425,15.612254633680324,27.189096041508947,2.5171389428583097,5.293982697281194,21.46672633766903,21.466726337668987,22.41951729065636,67.37342130785345,67.40338724764939,78.52043261133656,399.9999999999999,405.15106202120126,401.5067460168389,390.7440361384082,"{'neutral': (['m1', 'm3', 'm12', 'e1', 'e2'], 5.4740514355598116, 12)}"
132,731,5,0,24.39103333333296,8.788768100443484,153.17690755845865,10.54652172053244,22.91830325567222,43.978981523829326,44.08423651647069,50.97485498257299,93.1775229704428,70.31014480354891,65.76647977488665,66.46601836125615,67.98332740774799,16.365261858589747,25.84351707109033,1.5074563903457374,6.177615403573668,21.16615646251295,22.918303255672164,22.97639413258969,65.79603774332492,65.16546774997755,79.27449339285515,399.9999999999999,399.76820550497007,397.8119162987099,385.2729696929389,"{'neutral': (['m1', 'm3', 'm12', 'e1', 'e2'], 5.4740514355598116, 12)}"
133,732,5,0,24.424399999999626,5.589078433450283,154.2626147668994,14.139374296823142,23.04436073097754,44.22087898524016,44.32671291160492,51.28569556229942,93.8232988217542,70.78518741047198,68.06995728974562,68.8327846382117,66.83160120457342,16.574157843944818,25.98566409125351,0.2476712170345081,2.8036381768298497,22.97648323233755,23.24680409905833,24.043921749703543,65.92017112588672,67.28731624391668,81.60820104105571,400.0,401.6755224090909,398.0624687308571,383.79107293040295,"{'neutral': (['m1', 'm3', 'm12', 'e1', 'e2'], 5.4740514355598116, 12)}"
134,733,5,0,24.45776666666629,12.317602735082712,151.69840121441115,14.077260268666004,22.943127250537763,45.78492293573287,47.6409200983648,47.54332849004478,96.84513075482047,73.92656174644513,67.69502944407259,64.55972222542789,65.05269505854801,17.293486985858294,31.974217956179245,5.610030840908394,5.225512031074686,21.189082616927127,21.189082616927102,22.129550478767896,64.61887896540225,62.76530111287008,80.96337099791275,400.00000000000006,398.1533826975525,392.72307901888126,382.044304142889,"{'neutral': (['m1', 'm3', 'm12', 'e1', 'e2'], 5.4740514355598116, 12)}"
135,734,5,0,24.49113333333296,14.194770495340851,151.08014446300737,12.546523093302774,19.51780943109369,44.394130540752336,46.16711354454336,47.907350421775405,94.05709215827308,74.54366527812108,67.33601719235287,62.39930078217435,66.22351771963656,16.57326223417033,29.54580072852241,6.39190545261522,4.176839538189142,21.29215574301123,21.585854523810475,22.47348265196905,69.94840434703474,67.38568234738472,81.6970394162794,400.00000000000006,403.33900842726894,401.39462903268713,390.614190096585,"{'neutral': (['m1', 'm3', 'm12', 'e1', 'e2'], 5.4740514355598116, 12)}"
136,735,5,0,24.524499999999623,13.78030812144504,151.8278709458995,13.780308121445048,22.459154462439407,43.09789988052448,46.63596080594614,46.54042783951297,96.523656478199,74.08918296296224,67.12602105871701,61.22896874140906,63.68044384549455,15.944239653342947,34.002152723200425,9.912066661006747,2.41286919693448,19.02605976617977,19.02605976617981,19.085795347751628,65.35014932977316,64.75175776893343,82.75359004258264,400.00000000000006,398.0890485642021,394.59669278796775,382.5005278546222,"{'neutral': (['m1', 'm3', 'm12', 'e1', 'e2'], 5.4740514355598116, 12)}"
137,736,5,0,24.55786666666629,8.744720602223383,145.3308371582044,10.63841176342631,22.80344143313591,40.2637173434365,42.120152078714696,50.71937949289581,92.76001279646388,69.97962320445342,65.49701770353226,61.57610780019149,66.93270441056359,13.718234017875034,28.401843580133345,2.074319759469517,3.2228691250943484,22.73627356578085,23.33382492190188,23.02544439449196,65.56632671697514,64.57619795350519,84.02215885169191,400.0,399.7399169754282,396.01903674476335,381.7548818071479,"{'neutral': (['m1', 'm3', 'm12', 'e1', 'e2'], 5.4740514355598116, 12)}"
138,737,5,0,24.591233333332955,14.127879092824008,150.95639192090917,14.018781868694845,24.59537249449928,42.0928370191155,43.94865757275159,47.34582856986535,100.02206838347172,75.43241305726013,68.33725502171376,63.96987336371251,67.05157637632476,18.20560219234233,34.477779246198565,6.48727927177265,4.328124294783265,21.028172803042203,21.31823026783017,22.111709832532146,63.086582691307854,65.26536634990606,82.43487774132761,399.9999999999999,399.8464343930351,396.27863014660807,382.2086933471393,"{'neutral': (['m1', 'm3', 'm12', 'e1', 'e2'], 5.4740514355598116, 12)}"
139,738,5,0,24.62459999999962,15.85237108398202,159.65063660251397,12.254210714962518,21.08003390181016,47.395738123399575,49.29738669971361,47.26624132914094,96.34672139632758,75.29621890070426,67.20327030667795,55.20075145454359,59.08174647115493,10.066946464408147,39.0660564362455,14.036593651449834,0.6993671222827516,19.25661683779817,17.593327645768493,18.54307898165206,66.35122444643213,65.67155780646709,78.7965176092394,400.0000000000001,401.43778067150646,397.6987568174271,388.7754545709944,"{'neutral': (['m1', 'm3', 'm12', 'e1', 'e2'], 5.4740514355598116, 12)}"
140,739,5,0,24.657966666666287,13.8714812144257,145.0267787812779,12.043818435533325,22.367091380276428,39.60993179135913,43.15106138113167,48.17527374213365,96.3659082731228,74.00345974261622,66.89814498778719,60.044876087066086,61.28555407771376,12.692332777341337,35.43809593921799,9.561097848563804,2.2351897133098646,19.00404609227453,20.93133928610785,20.953672730940752,65.22421436548467,64.69249522663569,79.3132282156886,400.00000000000006,403.22847427287496,399.5371890096905,383.8706264453023,"{'neutral': (['m1', 'm3', 'm12', 'e1', 'e2'], 5.4740514355598116, 12)}"
141,740,5,0,24.69133333333296,16.073997248384842,153.78154693359568,12.2042885372378,22.66510728344161,43.62160023505877,47.20265359784148,47.07368435791724,97.6965552333287,75.05024882300937,66.9989027150732,58.90564800980746,62.618610490834726,13.888486685787711,36.77839862963276,10.386259913143135,1.3848346550857968,20.99415638400284,21.21022543521661,22.021881525983417,64.73600260839333,65.65922571178368,80.36998624192434,400.0,399.9999999999999,398.06130100986417,383.9593927019234,"{'neutral': (['m1', 'm3', 'm12', 'e1', 'e2'], 5.4740514355598116, 12)}"
142,741,5,0,24.72469999999962,14.244750258870072,150.08831905677806,14.355606018394212,24.991824681315496,44.65706487198059,46.43220507456856,49.85662590604543,103.33582092123308,78.36635783185015,71.09482978072845,64.2017572202518,65.2537523057897,15.073586725634868,38.44791562620424,11.536879438065055,2.18915167800003,21.367125388305222,19.90764368833833,19.82760261218448,67.48798948745588,67.43789448338259,83.85821686050967,400.0000000000001,401.64528369519576,399.7462783942616,388.663286027733,"{'neutral': (['m1', 'm3', 'm12', 'e1', 'e2'], 5.4740514355598116, 12)}"
143,742,5,0,24.758066666666284,12.211250217453314,145.71864526803418,10.504514628777752,19.07458261065589,41.48231974971183,43.31122336029674,50.11078128253016,91.78767183472284,72.71591879516849,66.60093820926602,62.22219144618305,61.90228300687113,12.036555029113856,29.711496301101533,6.997997109949779,1.5195650867319728,19.07458261065588,19.307681882689447,20.09424884428472,65.7411842786151,64.82144751559292,81.23923686686223,400.0,401.59978315993897,396.2056758279063,380.3995544982168,"{'neutral': (['m1', 'm3', 'm12', 'e1', 'e2'], 5.4740514355598116, 12)}"
144,743,5,0,24.79143333333295,15.84766686853652,145.92997964315762,12.25057425912792,24.749897520167725,40.4037813037928,42.32883738932602,49.12714385550705,101.88123283951974,77.18238775842497,69.2286503991362,61.20665867013486,61.236351421753625,12.109693868517184,40.65432575801731,12.337338297594329,1.3807129502722546,21.00098444421935,21.290666879445496,20.45335707338836,65.1063067160652,65.48241490323619,80.5798283005328,400.0,403.49165173129086,401.6276227054873,387.43670134587177,"{'neutral': (['m1', 'm3', 'm12', 'e1', 'e2'], 5.4740514355598116, 12)}"
145,744,5,0,24.824799999999616,10.45252739606941,137.6425247224762,12.150816286981478,24.118681671548657,37.8435022621817,39.560191686387526,49.86278116640872,96.47472668619474,72.35604501464609,67.12682667112688,60.6807413594953,66.56975757012185,13.847146224986544,32.82728630923509,5.25236580947751,1.671207303015649,20.692094521239856,20.90505479213872,21.70579961416701,63.70483076495219,66.2116417194755,80.92845015491936,399.9999999999999,401.4479652014919,397.6752597966259,380.2331936265957,"{'neutral': (['m1', 'm3', 'm12', 'e1', 'e2'], 5.4740514355598116, 12)}"
146,745,5,0,24.85816666666628,12.622253812178862,139.79395405647364,9.102036666346471,21.494923697638363,39.31178609019107,39.43318149831275,57.149684790301706,100.2178337597312,78.72482601780489,72.38004234837513,69.8045561789238,71.2255140655177,13.499099922641904,29.66249588264691,6.21669075384807,4.26287365978169,21.4206750346788,23.4787492830169,24.422713675832146,64.83120357584528,66.25216146243912,84.06837979898617,400.00000000000017,401.4432370520534,397.18604736132056,386.07180790874673,"{'neutral': (['m1', 'm3', 'm12', 'e1', 'e2'], 5.4740514355598116, 12)}"
147,746,5,0,24.891533333332948,3.9469157406965554,129.82893229561583,12.35580065672626,21.25479174352453,37.23512862754888,39.19189948198511,54.83230585870516,92.05710326803823,70.80287208500955,68.91897729236666,70.85653778137873,68.73656065599653,15.012396155322904,22.220318381622064,0.902222823127886,4.175861919066847,21.1813725543877,21.83325908432487,21.530093271032683,66.58700245444618,64.79241716691342,81.36775247152524,399.99999999999983,401.15889292686,395.20039822004367,382.3092687747466,"{'neutral': (['m1', 'm3', 'm12', 'e1', 'e2'], 5.4740514355598116, 12)}"
148,747,5,0,24.924899999999614,3.887895292614085,144.69030990970558,13.90975706189797,19.204786051254203,36.678330833931646,38.40957210250818,55.74759230838035,87.36958024505152,68.16579305242283,68.84931499365234,61.932210917187376,66.57712673597632,8.55589472248812,23.113985860164465,1.9203006956464608,3.8104396002619296,20.86463559284689,21.152437265415976,21.97789173132651,64.00332056798942,64.04353628936417,80.15101476394508,400.00000000000006,401.2677124352086,400.87198295347656,386.5592562252945,"{'neutral': (['m1', 'm3', 'm12', 'e1', 'e2'], 5.4740514355598116, 12)}"
149,748,5,0,24.95826666666628,3.893674801089616,136.9334073014063,14.038844145310664,19.468374005448208,38.66323008783339,38.66323008783339,57.56847901084053,87.68984429914339,68.26712417094521,69.91020411001091,66.33699390418985,62.91225503656074,7.106828054790753,23.05264977661284,1.6826751661761818,3.6919872763746753,20.895651690034512,21.183881191050748,22.09748416757742,63.72389835201051,62.59551618175124,80.27016238349194,399.9999999999999,401.1278822595305,397.1281075144988,380.8961378101199,"{'neutral': (['m1', 'm3', 'm12', 'e1', 'e2'], 5.4740514355598116, 12)}"
150,749,5,0,24.991633333332945,2.51831453984734,136.28014504733784,14.24573830629343,23.421679113994603,42.88535128998904,43.06980526505533,57.09413958109477,93.02437117192208,69.65313857270651,70.42932565952992,69.73259688675353,67.4035321320431,11.51593128717866,24.455179924458093,0.9057474046095422,1.2640650591804388,19.58789017115346,19.90902452659044,20.732657624194587,66.56745760471108,64.01942094998549,76.65362271065881,400.00000000000017,402.74928184457264,395.14674351182856,382.13711728658586,"{'neutral': (['m1', 'm3', 'm12', 'e1', 'e2'], 5.4740514355598116, 12)}"
151,750,5,0,25.02499999999961,2.4150565106250137,135.98505340267798,15.369325520505193,20.563465207489987,36.02403078177827,37.91715633528997,54.88611109309148,92.61041104950368,72.04806156355676,71.10505122430584,66.19023172411505,63.413158917096666,9.919544235141302,27.8006964817705,5.2644509687003165,2.06782039947052,20.492434027340373,20.56346520748999,21.497340578070578,65.05143208382685,64.65185326267317,77.01720856181528,400.00000000000017,401.3646638227306,397.3777163922252,379.7594772334448,"{'neutral': (['m1', 'm3', 'm12', 'e1', 'e2'], 5.4740514355598116, 12)}"
152,751,5,0,25.05836666666628,3.826043561188696,141.14937938583512,13.688469580309269,20.603875136276987,39.50285755237575,39.50285755237587,54.99396956044027,85.97963545350312,65.37946103308833,66.99867341836239,62.0093032751264,59.90268032576012,5.962045332775915,25.02244723350157,0.942436582611208,4.490433128912287,18.89926103591269,18.899261035912705,18.97976561558238,61.74723534841104,63.89417644034893,75.46137442554378,400.0,401.2095162602526,399.2050655427436,381.811543689796,"{'neutral': (['m1', 'm3', 'm12', 'e1', 'e2'], 5.4740514355598116, 12)}"
153,752,5,0,25.091733333332943,3.5077936304253945,143.14420019641776,14.140368188165228,21.119714381827148,40.68133322134918,40.94513342187744,56.1520960372257,91.6232741765452,70.50577938067325,70.31393426816828,65.85019010604003,63.74784631539478,8.812905605809192,26.817337974036263,3.621810274405334,2.366382228806742,21.0467617825532,21.337075659171123,21.302421916585445,64.99331064634566,64.18624975988939,82.60090591029312,400.00000000000006,403.02243800601,400.8719084280162,386.3393198962023,"{'neutral': (['m1', 'm3', 'm12', 'e1', 'e2'], 5.4740514355598116, 12)}"
154,753,5,0,25.12509999999961,12.511123227985491,147.9172485366166,10.762475146318254,21.5249502926364,40.84838624939057,41.03953556781543,54.87807078563403,99.47719881360396,78.03170606980854,71.71499529751873,68.14162848693684,66.49393742576342,12.600287777624544,32.14008422700135,8.536657062337781,3.260002252935351,23.00142019439938,21.5249502926364,22.370186002312835,63.87582708929756,62.73356273400532,83.45960158633443,400.0,401.281478542224,398.9851925837275,386.3000504418993,"{'neutral': (['m1', 'm3', 'm12', 'e1', 'e2'], 5.4740514355598116, 12)}"
155,754,5,0,25.158466666666275,12.554479620905246,149.11607768568547,13.90328609579588,22.484603937417315,45.13423304546675,48.56209060564557,53.48700955438593,101.8763776705576,79.40150088045606,73.07226275783762,62.60202860176105,62.602028601760935,9.612672120435946,39.12876078899501,12.604167593600891,1.4758044334280385,18.969394408908645,19.04761904761908,19.13559937667719,61.58492014088495,65.23454461814595,77.90804090601114,400.0,401.1544249803471,397.17226578148177,383.0853635253766,"{'neutral': (['m1', 'm3', 'm12', 'e1', 'e2'], 5.4740514355598116, 12)}"
156,755,5,0,25.19183333333294,15.768629397596564,147.52257800270067,14.039243234989533,22.90393337255474,42.11772970496871,45.57559066137722,52.35657580513507,105.00233512585297,82.13949486742487,74.24183299679305,67.67175928026268,63.66998710746702,13.34919523313215,39.33085038486581,14.304842319172849,2.359253743663203,20.89624570182324,21.18448339649273,21.2332836929686,63.78944299322211,65.82019305105871,83.74807561175611,400.0,398.0050698542405,394.1965044350142,378.2747972448671,{}
157,756,5,0,25.225199999999607,5.546308716987868,138.95689583148217,10.66853782958553,19.3724235109199,38.62557065766843,40.49185229739916,59.73557302445198,95.11555617759925,75.74316656729599,73.03922607123286,67.38322481715079,70.30599089730254,9.152347708325124,26.26998113337765,5.032544325722029,0.1346666965257554,21.04676178255312,19.997500468652376,20.668844088991364,63.56268076016056,65.22855767273842,79.23654707520956,400.0,401.2745732547143,397.14049133466057,379.17042513008647,{}
158,757,5,0,25.258566666666272,17.134117475124732,144.03197029062932,10.229450465505726,18.83132889982405,39.54505565825213,42.758885413086496,54.583701842748006,100.71954768944,81.90661076883464,73.20712063915983,66.08024000023329,64.89653664151899,11.028169625356211,35.116532975195014,12.57684818634084,3.9259494730694087,20.45890093101116,19.06145551111451,19.082284561942288,62.134562137852015,64.75843791633548,82.11926351297124,400.0,397.96009962534464,392.57714339504537,375.3935773363074,{}
159,758,5,0,25.29193333333294,6.960404332931097,141.63396676512622,10.584621668019771,20.95359177040644,38.32175117653067,38.63651417344582,55.791884980740726,94.22289858931686,73.27044769691116,69.77397940840376,66.15446652113383,66.6462481634261,10.651990372047068,27.785662789503817,3.3342795347404035,0.1278632269959416,19.14111191556062,21.16924333603944,21.21546004848141,65.17090323654975,65.898740067142,80.34670618437556,400.0,401.1904844468003,397.3874295639597,379.5973778891971,{}
160,759,5,0,25.325299999999604,8.87608553989711,144.99464156163793,10.44446154744327,22.696519613713004,38.45428280721393,40.18818654141071,54.07524074546025,95.9937626598906,73.2975017857981,68.85536971098236,62.48654842881479,64.48932241691773,9.443079353905771,32.47498021709066,7.910957253006927,0.4706518872042124,22.629666686127184,21.53180908140547,22.16570111333033,61.304911775834,64.61950272614456,78.64231824633836,400.00000000000006,401.4631774558187,397.53415931899633,383.2839111805072,{}
161,760,5,0,25.35866666666627,10.63841176342624,149.31722457605733,10.493664722668102,21.276823526852592,42.120152078714725,45.60688286627198,52.49746458954631,94.7017308861686,73.53888895286924,68.14068493559307,60.912960518656064,61.44316037207852,8.788312664746172,33.49762658839211,8.488199540167443,0.2150810726145664,22.7362735657808,21.2768235268526,22.18336179177527,61.70325841337996,64.98449524210702,82.36765554402726,400.0,403.2292984083616,399.4069167426274,385.1649886960704,{}
162,761,5,0,25.392033333332936,10.719772557811524,143.62635687097008,10.573918515887769,21.221139979584457,40.57164752143796,40.87670179807055,54.7454923140084,97.1835857491024,75.96395429310552,70.57524505055324,68.57303979223832,67.31792604821999,13.238461633335987,29.19633637871152,6.006615774944748,2.320964304414815,19.38551727912766,21.79869145883992,21.57600293288607,62.67599743939036,63.233825770065096,81.23892653751683,400.0,399.54552281744185,397.5232442271464,386.6274096929608,{}
163,762,5,0,25.4253999999996,2.439727491558974,140.596904105392,8.796562568974975,20.77353104066501,37.99244045226797,40.014506028382414,57.03433774816688,88.40435971160603,67.63371699169868,66.68693777581905,67.04197027506927,65.97687277731893,9.526705396545708,21.89367078709222,0.8284091649171614,0.5325487488753424,20.701774242343017,20.987329445336176,21.035675580571137,61.65731070310886,61.77565486952551,79.65626195379187,400.0,401.4371237069373,401.0699775769335,383.4526769138229,{}
164,763,5,0,25.458766666666268,3.937305398491231,147.2046809684441,10.564899023043838,21.203038466895755,42.40607693379151,42.84251460917074,56.37363416706972,90.07742473804004,68.87471512175142,67.75013921636582,61.92919685009849,61.12492156633096,5.348430637053866,28.49145192746414,4.885972348887663,4.262659003967883,21.12979804608792,21.42125730458537,22.268371919312926,62.25090696360536,63.55785429972781,81.30321142944732,399.9999999999999,403.0077788805,398.8200793251261,384.3463541515872,{}
165,764,5,0,25.492133333332934,2.5492448880797984,154.7393746935233,9.012941736331795,18.115788686108807,41.81072488415914,42.08184868309316,59.594563102875405,85.02792228487955,66.91464342793155,67.66388400754568,66.63437838538005,62.90428555144717,5.2668910815134495,20.2171031599172,0.1939648273645389,0.8206204234653569,23.433648514462657,21.929433712608024,21.90310512085489,66.12708575996521,66.87310432675179,81.43630525839583,400.00000000000006,403.4336088038473,401.4878605675893,388.37727045470206,{}
166,765,5,0,25.5254999999996,4.039579804565125,156.62946527766343,10.839330052251524,18.15565314023415,43.50760599831055,43.69473635006496,57.837980812588086,85.21502933089546,67.0618915427928,67.69966769235737,64.61342638502549,63.184329424980206,6.278904728709449,21.269219650035552,0.5625168885285348,3.6639613550097465,23.48521511321156,21.97769023179028,22.85034820157489,65.86008543527771,65.22155275100226,81.61550882007171,400.00000000000006,404.99885105068046,406.4427591570407,393.36879732487927,{}
167,766,5,0,25.558866666666265,4.005611787507373,158.4623263265483,16.221491392359034,20.028058937536947,43.32731606838272,45.353715245417085,50.15819339070961,82.71370114921618,62.800021972346826,64.3940952875613,57.22280053280531,58.51146941191792,8.012372534634665,24.82409096519405,2.680628011894328,5.228454269070994,21.570879629128,21.792884238890007,20.86954982471144,66.59762069917355,68.90935494796304,82.71370114921618,399.9999999999999,403.0250634451186,400.6332732749916,387.7465314395493,{}
168,767,5,0,25.59223333333293,0.0,163.63874435354657,13.838364478610844,20.668648893067285,46.47079197610734,48.33532914549303,46.470791976107456,80.9642121757329,60.29560629489902,60.29134661296246,51.94618383474744,54.13556183420872,6.582860756227092,27.9170239527698,5.080731456148556,6.003608281033507,20.59725438303881,20.881367864694948,20.83345342984961,62.59853867517489,65.65188646814528,75.83470354116906,400.00000000000006,399.6905335989295,395.8576109414054,378.2750240407979,{}
169,768,5,0,25.6255999999996,2.532127413463281,165.89783061924467,12.5333912542184,18.259430450501007,48.64057924024818,50.42050032350174,51.954910732322055,80.88948298383691,62.76918628402873,63.488216745623504,58.91226414048401,56.811826879108594,6.041257647003704,23.0147911353572,2.3604913984981977,3.740778741687791,19.695329113772136,20.414663858874945,20.94936116167128,67.92414020000473,67.69409230947315,82.53725562065297,400.00000000000006,402.99824044141184,399.2619771905445,386.30091338247945,{}
170,769,5,0,25.658966666666263,3.821745203826701,158.1667010182956,12.085419480916796,17.42983984957466,41.161455546964994,41.33849488246712,49.59441511158824,75.6859948553609,58.33640871610577,59.92870297899344,54.46367664424383,54.640442994693785,5.09676310464522,21.13339923159253,3.230896072116252,5.82346921205135,20.509636964256643,20.7925418726999,20.946812528339706,63.65552686765011,64.11708344938108,78.91695636697702,400.0,401.54522341446415,396.0073127591372,380.29341397787937,{}
171,770,5,0,25.69233333333293,3.935513643384401,162.53242532528336,10.705754551443736,14.18969623651056,42.38677914070269,42.38677914070269,52.80045619791233,74.1089718197067,59.943957926094775,61.47944543917572,55.06985454343362,60.27299262146437,5.2428566893134985,16.354138195642804,0.3376081959027033,2.710795220042769,21.12018247916487,21.77018579847913,22.47080433317524,64.86049222461384,65.00943701692381,81.26621266264162,399.9999999999999,403.1472253140303,401.0711283888487,390.1124425133909,{}
172,771,5,0,25.725699999999595,1.790484464888367,172.64021678885925,16.21352641341616,21.782183628208124,50.26129405195617,50.64254826926933,44.79790699907886,80.88948298383706,59.19440208815531,60.00982032282661,58.52687583379464,61.49276481185859,15.323759719997042,20.860085812382863,3.460203807741209,0.0988629659353819,19.695329113772047,20.41466385887501,20.95894877831836,64.65637972179331,65.05183158553507,84.4569832949868,400.00000000000006,401.2163677171932,398.9406718555809,389.5898356436769,{}
173,772,5,0,25.75906666666626,3.956364548747129,165.69564585797485,14.264875244935949,19.78182274373597,48.06616582717324,48.06616582717324,46.00284038879859,76.41009112076523,56.72935644791998,58.31944663216143,57.92432843004656,56.95628883486518,11.725132647760232,18.95579574646308,1.5903507635125609,0.0296338651586438,23.001420194399344,21.88552730785931,22.571127295814563,64.02890465272213,66.10327521382527,83.45960158633434,400.0,401.2814785422242,397.4719068399618,384.7450102672056,{}
174,773,5,0,25.792433333332927,1.7746955514421765,162.46947645908796,12.548992589664431,19.84169946195709,46.27839802985999,48.21165516374727,48.04805898396445,80.56805075795828,60.75578918886831,60.649902410881054,57.86585691962023,59.48694669934173,10.678047896860562,21.884712026238844,0.6695805611892638,1.0924735472035536,21.29634661730749,19.841699461957152,20.792238479035348,67.02853828326306,65.47793066787733,81.71311961157284,400.0,403.1528663143157,402.8089791936387,389.96890458140695,{}
175,774,5,0,25.825799999999592,2.46386054155571,159.31483063416533,8.883575518171812,15.776405151290248,42.1384986053003,43.86778977257319,48.81305093448316,71.76985119009133,55.99526255669897,56.71900930130517,54.2764205255819,58.7220319987797,7.887214063122997,15.239955735647868,1.6633580006459852,0.0649358979231919,20.906549961984616,21.19492979109452,21.17909286107738,63.11769278126752,65.24559220551726,78.70867962292579,400.00000000000006,406.53325621753066,404.2721417100384,394.986892622595,{}
176,775,5,0,25.85916666666626,3.977393106355446,167.96658707063554,10.672465630859726,17.876158693471368,44.61067938339934,46.55419273685523,48.15767392883618,75.23478510014269,57.36277915056586,58.0259474589526,55.43804106287132,60.17505662409906,9.708388734431535,17.42723093314771,3.295965564180392,0.0149589965091081,21.41891738048458,21.63935801509644,22.503317081915725,63.904833087044665,65.1613887938122,80.35909125642128,400.00000000000006,406.41484653817975,403.7279316962334,390.583243269446,{}
177,776,5,0,25.892533333332924,3.8132264255210906,162.90110430698184,11.937286901489216,17.138321230514784,44.63267100235098,48.02243589704314,42.93902914513456,70.66310867917801,53.548344571014745,54.14905463008768,51.3992979496536,54.57209411938538,10.047187870817083,17.661898678173202,2.432477063460965,1.1633585955682977,18.83594905609865,19.4437159534799,20.09437574163411,59.64856799095611,60.91768645884866,77.04227420221898,400.0000000000001,403.0131161345863,400.96941673180055,388.4627919439052,{}
178,777,5,0,25.92589999999959,5.551434203120577,166.1446969573826,10.67839689901242,16.185072892897757,44.20280462271653,44.44615654600693,49.27972839690125,71.0062940309814,54.87221338000852,57.37585073455045,56.39599749619947,57.70246848066756,7.838825906807642,13.935690500991427,3.048432297091836,1.959706476701968,21.06621163490782,21.35679379802489,21.447898661682075,63.14609758261725,66.19452987970908,79.07627814508724,400.00000000000006,404.5963551558385,401.9522058938701,392.61632889752735,{}
179,778,5,0,25.959266666666256,5.476831941901457,158.55404823980965,10.534896584370482,15.68325994755642,38.25950313644765,41.88970941663607,48.61748886813074,69.81618236106021,54.13481993419448,56.59330653792483,55.2984259874828,59.14291630391165,8.697782922155398,12.592462407205858,4.140606411297313,0.7076672775671113,19.05118962820892,19.363525027688343,20.201140370268604,63.52944964145576,64.08153049629522,78.24397705419813,400.00000000000017,404.518822059152,405.50013950096144,392.7961570356612,{}
180,779,5,0,25.99263333333292,3.882470592565429,157.42927550709885,10.561461853162102,19.41235296282681,43.54602278151881,43.95944366178534,48.74008491351288,75.38394304561697,55.99378718790183,57.599944287690505,57.57521266712888,59.11846579016549,9.694795260100818,17.03514024274841,3.363500396361588,0.1483897233688367,20.907743999817622,19.41235296282682,21.22467676586348,61.49270136406767,64.2626428669534,83.63097599927038,400.0,402.5094160485257,401.3393062567284,386.5856896840669,{}
181,780,5,0,26.025999999999588,5.534669133186419,160.64847908917525,12.25151238940912,19.56801037849973,43.8951953615758,44.0693142338048,47.77160139488228,74.5230405017821,54.95789892276817,57.42457107782457,55.96629439293804,56.67572629369363,8.552595692441855,18.16933923601732,2.48301165264445,3.1924435534000395,12.37589641477456,12.37589641477456,12.612122680098764,60.932317698227,60.85349193147636,79.07025982419661,400.0,402.7208731865125,403.3744932114885,392.0249553667023,{}
182,781,5,0,26.059366666666254,3.9356279376542553,166.78892171096484,12.320464243839192,17.949225027388085,46.30011608288331,48.3297674664142,45.89691436094277,74.67328983587232,56.76043332144461,57.41404225805684,58.22732885648054,57.90800160311176,12.224246418027178,16.59503819851375,2.414912353602176,2.384975423598803,7.871255875308549,5.565818405885202,5.458500237274222,65.3523181972738,67.81712543421452,79.6903920061537,400.0,405.8470212796946,404.9108982056204,395.5257126443417,{}
183,782,5,0,26.09273333333292,3.865862221482579,151.83539909293128,10.516282199265982,15.939358273257872,38.387058034537866,40.360786513496485,48.53158535181702,71.63850550994289,55.75425785373904,57.35124716730013,55.95146427370071,55.323803616784176,7.198171819399704,15.995383883800969,0.4632733420098702,2.406032518179813,9.310229113712602,10.934309567773024,9.997737606598776,63.33394914314721,67.70764800642269,80.20150225491699,400.0,402.7219177330732,403.4189768881808,388.9641457373128,{}
184,783,5,0,26.126099999999585,3.923228167598844,154.6070503019779,10.672334444126996,19.616140837994138,40.9597045741231,42.68933777650844,50.91134964375703,79.65216052893878,60.06512293653922,60.669632550748815,61.35064843589623,58.49827755462627,9.302282199297224,19.72478618068521,0.8537373052935209,0.883346691604288,7.846456335197669,9.448384606864654,8.310367757886866,59.9590072792904,62.367237365899086,81.39162098993698,400.0,403.036038500279,403.9858363221407,391.0811116552285,{}
185,784,5,0,26.15946666666625,6.31848277422197,150.9636353359908,8.93568403292537,17.871368065850632,40.91093270248582,42.63850638199613,52.602153608948605,74.34938529705477,56.51422799128601,58.83583357681471,60.89436150735628,58.77072198777091,7.582995831727089,14.514875773015092,4.467656725165512,0.7312532308006894,8.935684032925373,8.935684032925316,8.18903446821247,62.50712548213562,63.138207037484165,81.29470569885906,400.00000000000006,406.4735284942954,408.7338250393353,396.0108182085381,{}
186,785,5,0,26.19283333333292,4.784675303139695,145.72655337600492,10.289833313698304,16.048288842127043,37.826179555694615,37.82617955569461,52.54980808123588,75.65235911138933,59.8084412892455,61.206505462349696,60.08615516968632,59.25080626726185,7.346156524262597,15.964991670453855,0.85009035364385,1.1154364755901724,11.961688257849122,12.315311816460126,11.522901036384836,61.21633309649599,61.99271619404328,78.47450972444257,400.00000000000006,402.22944301073306,399.960650518379,390.69518077526,{}
187,786,5,0,26.226199999999583,6.298626852192374,145.32062311800283,10.626128567237084,16.10585063062609,40.78236951430935,39.41241937568935,56.146716686335495,78.12485098881442,62.03428021381743,64.34946402981598,61.22828259596531,58.83759043386681,3.9844869368307614,18.063007446965912,0.929713618593837,4.648568092969185,17.556376712529072,16.572783574013773,15.340274706798256,62.68926113946986,62.82207737069757,81.03923592938362,400.0,406.2867834301915,407.44937317790186,396.50574711098056,{}
188,787,5,0,26.25956666666625,6.986997531210468,137.9301061428983,10.307823917503027,17.28155423994468,37.62613321260971,38.23182417912517,52.9679800099098,74.11798674318905,56.83847149587316,60.03833077348384,61.12885034214867,57.54358052735995,6.393731169706712,14.759360737547128,3.5255153178757155,1.852389404307473,15.345217743444874,16.07634745080411,15.028255973656314,62.05504504430246,61.9056588020195,81.78070937975616,399.9999999999999,399.3641409418151,395.4222319207773,379.729391858878,{}
189,788,5,0,26.292933333332915,4.8569215439171,149.35527328976625,12.142303859792694,17.511879667498594,40.08799594587556,38.39733623879855,53.34328430415776,79.89968093127169,62.41191430073081,63.80043969801045,56.74286893495628,59.00129157913364,4.7991481188769285,22.01962078072927,1.4115141526108346,5.646056610443566,18.966884957141136,17.927896803342648,17.785078322896652,59.565897240178,58.71898874861142,88.18021625660268,400.0,402.7805533058619,400.3389581331839,386.0297925751419,{}
190,789,5,0,26.32629999999958,7.670707503779038,143.30064204105156,12.128453488443204,17.491904377864717,38.35353751889508,38.69717986284185,53.28243717785116,76.41888212769649,58.94478306503302,62.057130019896135,60.85447246137096,55.94362076406014,5.351826135436795,18.019819085234644,0.7416388277571286,2.976577457349663,20.654012047586704,19.556543622415845,19.44296386282269,62.16737362942763,62.48808231170096,82.971387671885,399.9999999999999,401.4682989629076,400.4226873982655,384.8906957308795,{}
191,790,5,0,26.359666666666246,9.32670871998877,138.9540371588259,12.24656852343388,19.36352502768824,38.72705005537647,35.324504607779566,54.1348199341946,77.78258348608811,58.42524546835016,62.34683137208356,61.610865403104526,58.20639697517413,5.787596327481538,17.773327822283477,2.473246181467061,4.1854935378672735,20.85515470423495,21.42274558112112,20.471869708540112,60.50941973524465,62.73233735583449,83.7794188332724,400.00000000000006,404.1330501749116,403.4496270691951,389.0671408596928,{}
192,791,5,0,26.393033333332912,7.434938529705481,140.91556939081298,14.128556997821487,19.592783347677443,39.185566695354666,40.91093270248581,56.32371476145504,85.58256948477383,65.99016968610954,68.1513508846258,67.33534801372355,62.03636640761658,8.452177885026117,20.84333259132165,1.6219316322875557,1.621931632287442,22.84891543728649,21.67638445392225,21.70970600981059,64.33326337756398,61.83488421727037,81.08666958659053,400.0,404.5119805622896,403.32590423724434,388.716081399496,{}
193,792,5,0,26.42639999999958,6.139109857595653,139.68226252893177,13.621461770626205,15.697959045950483,41.18240088876889,41.42805863312724,51.53253011206641,76.14628618008703,60.46322001706432,62.71881882916273,61.29657796781794,60.51534707214955,9.384786528732889,15.213970904103803,3.575633714789319,2.153392853444643,20.50301502654985,19.4135699559943,19.420598803856024,62.61866102202566,61.136325476398895,80.47765501184197,400.0000000000001,401.0712430741638,396.9588500288284,386.31015527289713,{}
194,793,5,0,26.459766666666244,9.222521387274217,143.41764654572495,10.41721275736343,19.14721785168925,41.66885102945349,41.98439584678937,48.226668929779294,86.71808575117704,67.57638856424893,63.08801948708288,61.75435264960163,53.752351624714834,9.568932784512867,28.96034718195733,6.779895671909912,1.191679493566653,22.263529962114788,22.52546285474968,21.80519924398812,60.77058319533808,60.57788608574003,77.74807912529589,400.0,399.80564632903946,397.9158579953522,383.75916166953857,{}
195,794,5,0,26.49313333333291,11.3435941235819,140.96314411727673,11.957198094340187,20.362374620243703,39.47686652095719,39.80148760839959,49.30079072939846,92.31080836787504,72.00179510298318,66.59297339043349,60.68079697510768,57.20840569007896,9.71358436730327,33.362290028606594,10.159022316403252,0.3897582054623854,22.04798388308526,20.916554065569944,20.834347710172096,61.32870671925292,60.42770723130087,83.2894166487494,400.0,406.3547823907326,405.7068679408275,391.6780962280165,{}
196,795,5,0,26.526499999999576,3.847683832341317,138.0562685384141,10.46683163450565,20.933663269011305,38.20655111552124,38.47683832341295,53.785060088404585,87.41951215251443,66.48815475612983,65.34445033022723,62.87250523246348,59.05314743796805,7.18788953632486,26.41638050171593,2.699890854729688,0.9573721792568222,18.928101731092525,21.28433528992664,20.4593980530068,64.87842789376361,62.15320973270445,79.82437186739102,400.00000000000006,399.455557823789,395.7020609349722,379.69056352974144,{}
197,796,5,0,26.55986666666624,7.001589695776236,130.93270058524269,13.690801522147098,25.976469481971016,37.97145145407829,37.97145145407816,51.3948890646716,97.99283288091,72.04576359443988,68.55959921407748,65.59798543064585,62.87269736507699,12.84706827957234,33.754352000300855,5.294701721483079,1.4330389274671234,22.140970680618384,21.004769087328697,21.746994250156604,60.76085052459939,61.49496871200358,78.57430164829329,400.00000000000006,404.6908868341813,403.8884621775519,388.1269328393922,{}
198,797,5,0,26.593233333332908,3.816835595861676,142.9148838298663,10.382915358761124,24.139787874658364,34.8148971843618,34.81489718436168,54.64876908949259,92.5690834928466,68.46939236042984,66.47373640124636,59.42387230184738,61.70515405603635,6.286086948216735,31.86257181346309,7.150361092975572,1.5426288514009912,22.25578475000314,19.462119183474748,19.32557186478141,62.16744022648879,62.15739052713104,79.18439176312746,400.0,406.2841761296128,405.4658065786511,386.3120354662008,{}
199,798,5,0,26.626599999999573,11.848038114474637,137.94241918872635,11.968325849288032,22.26237295923728,37.58130547278108,37.84716946281916,52.57896819214311,98.53356294158034,76.3350293473518,70.24569795851835,61.15341612248551,65.69451137910562,11.009633166605909,34.94625083039057,8.587715696408509,0.2724657153971748,18.69512261710943,19.298345562516808,18.315750868368127,61.456155806260085,63.736794757362816,78.15234302172354,399.99999999999983,403.0252651743376,400.7405856783758,381.7914705008218,{}
200,799,5,0,26.65996666666624,3.843844537121824,147.3351176770637,10.456387622365192,17.530628316511272,43.28380594034138,44.991046810469456,53.31732452813004,83.1550714410284,65.68364424317373,64.55738617367547,58.83610907947366,60.301072764494165,6.552742969483802,23.5779966062089,1.524354104683539,3.34566030768201,5.436017076051395,4.862121483560229,4.731436766485331,58.00464320419167,63.31018736075259,78.04045776580398,400.0,405.8997909800712,408.5809664334394,399.3456648253178,{}
201,800,5,0,26.693333333332905,5.13782009202343,164.49050179402326,16.449050179402338,23.892244522422672,49.34715053820702,51.3782009202342,41.8188257665428,86.06807149286612,62.1867277733516,60.14048788294849,56.59871556097494,60.08079509100514,16.684135348172845,27.72730185769683,0.4974399328614254,0.7362111006349323,9.262336892949806,9.26233689294975,9.3618195364524,60.06089749369073,64.06031455389666,80.6654116766095,400.0,406.7039775889557,407.9312676892877,402.0364740406817,{}
202,801,5,0,26.72669999999957,3.595115309766112,164.5624517718128,14.49237313109406,21.645460512106176,45.261345244551904,47.04658609294182,44.97487815620522,81.3878843648649,59.75358518536435,59.50802710955145,50.00035375703317,54.04361695115677,7.245847902340301,29.3436823890354,4.36352166494521,4.783860907898543,4.0194611097936015,5.392672964649054,4.57369128642199,54.32384311312563,61.36952947120244,74.48485495960438,400.0,402.9817976289597,403.9508421735791,398.1742366116805,{}
203,802,5,0,26.76006666666624,9.175050787547963,155.59136585517984,8.99687750075238,20.11762967692044,43.33470053564688,45.3071174188277,48.88211448597311,87.04217440911962,66.96481750815335,62.3832127567124,59.09328943202388,61.881891107236015,11.60872944568655,26.554381120699983,3.8382438788032687,3.618915657157231,6.487740629606213,3.598751000300901,3.681580863341821,56.680678993919,61.161241236113824,76.10741533437537,400.0,404.663508101284,407.43837609318905,396.27134799436766,{}
204,803,5,0,26.793433333332903,10.747659983547615,156.48829146569935,10.747659983547615,19.516097170809733,42.5526933027403,42.73571648416157,47.73912850318811,88.62747468078216,69.11284515814451,63.64825007108652,58.33475776604496,60.8162818015544,12.03823301195689,28.944799437089387,6.715269241131068,2.074251006780969,7.901836773196781,9.00948010194357,8.988421029384085,57.28342506397775,60.63632395165121,78.24414573284962,400.00000000000006,401.207932222244,398.96842591619793,387.8586617099258,{}
205,804,5,0,26.82679999999957,5.6873059878635015,160.881411634626,14.3878725375699,23.44936331316877,50.48585358976825,50.645771169835086,46.89872662633776,90.21150186609373,66.76228671385647,63.87320844225678,58.91171487547513,64.3067370063444,14.788141019436353,28.46837570842672,1.9267936181677208,0.7225476068127819,5.687305987863523,7.415339775040544,7.369985589491137,58.670865673204105,61.12752753636789,79.86565357898647,400.00000000000006,404.9785194064111,406.25442220534126,396.71150550322267,{}
206,805,5,0,26.860166666666235,2.418033231107921,155.2445128215208,13.784910335911524,20.80070836050829,48.360664622158325,48.360664622158325,44.45500006612145,77.24471401481394,56.52718365737501,57.16090243065912,54.4208923516901,52.92361908449391,9.552603444711622,23.52715393854237,0.0199636435625052,0.3793092276896459,7.646492468277288,10.400354180254146,9.542621622930255,56.25754755945081,59.741203361127134,75.71572131968848,400.0,404.96101325276345,403.25733831669726,389.2132267369436,{}
207,806,5,0,26.8935333333329,1.777163555778596,163.36377220391685,12.566444015685974,19.62941306016199,48.278701353108765,46.74987412132002,48.01631516381457,80.28767857173487,60.65831768311155,60.50131533158253,61.52037066814273,59.00330398683889,12.437570382718036,19.96838931989828,2.5629241714490263,2.247017017115354,10.810063887301148,9.061791649760618,9.151116922311076,60.85798469937862,61.93818335613253,78.91886922316534,400.0000000000001,405.3062963257478,403.5374570886682,392.75314582705374,{}
208,807,5,0,26.926899999999566,3.824679097487999,158.28812310605164,13.683587926568505,22.497437384669013,50.0726309680998,50.07263096809969,44.47166076134758,82.38610909749755,59.96335743481415,58.806137790679486,52.86057245755205,54.25952900652328,9.392993971663373,28.778534721691926,3.497391372427842,2.098434823456728,12.094697267298727,14.104719589667091,13.98956548971131,59.45565333127308,62.25356642921543,77.44384921665306,400.0,401.7042084626002,398.2958450342098,387.6534437508123,{}
209,808,5,0,26.960266666666232,5.218279177851989,162.89428663300964,13.91541114093864,26.149312488580406,52.64459539787264,52.64459539787274,46.9967131615994,87.40509448949616,61.27621709594358,60.97369903100514,55.57461115931039,55.31545494146928,8.595347891737902,31.94820263277461,2.807525693281264,3.268247858332529,12.299601975945722,10.580517685224464,10.668597634468654,59.9514717272977,61.27604795182003,78.7558795229551,399.9999999999999,401.5777664977103,399.5572603663785,385.29766994744,{}
210,809,5,0,26.99363333333289,4.76418409419109,146.76471009439484,11.790754079382316,23.641588531701903,44.084795149645146,45.974993627092914,48.8764423958186,87.84721411824256,64.20610852081786,62.2970949374826,63.24494702626885,56.4552310433296,11.132426063195451,27.932620738930268,3.472233672186917,1.9247200578416823,13.580014062111792,13.889864135707432,12.09962207216131,58.33159130072306,59.05698830744728,76.26415661276565,400.00000000000006,401.68104398726416,396.5342641356652,381.1235613152365,{}
211,810,5,0,27.026999999999564,6.2988671385715,145.0423778370371,12.228939932167776,22.978084560129428,42.25408530925616,44.230289964118114,50.6928627407889,91.2625374354186,68.33394395902896,65.52952164458213,70.78779074485544,62.686815940512815,16.157762473388857,24.52386008950976,1.3698011941887671,6.907922151339449,14.084695103085403,14.406060294189029,14.257715655642926,60.50691726588968,62.92248066209356,82.4054204179462,400.00000000000006,399.8435554817366,392.5874939310152,380.0017568917545,{}
212,811,5,0,27.06036666666623,1.764925366607217,161.22764692257718,17.737280414962925,24.959813900321404,47.94623680408812,49.70074958093526,49.54381597291806,93.95637834565044,69.0354341699308,68.13925545550137,65.50500588892271,67.43678890441379,16.94700554498945,27.48400381130409,1.84397469660496,0.6146582322016911,15.884328299464354,15.982078934696156,15.981114037243913,58.83157365359017,63.39760623565991,83.25136304029957,400.00000000000006,403.1608781404765,399.26341213177534,383.31806153511246,{}
213,812,5,0,27.093733333332896,2.5850874738723544,161.52142884002197,20.19017860500259,23.83332889135804,51.31252123549853,53.29294353118655,49.38802684218012,91.68864693868026,67.85546863427687,68.6780602949583,72.56456943772457,72.72199765616585,23.328894120250084,19.03897516772838,7.300733630209038,4.60477538940404,18.370498115249912,20.1901786050027,20.273802756126315,62.34157450270152,64.92930084332806,86.08768243806836,400.0,403.3440668381326,399.431568541052,392.01383392065753,{}
214,813,5,0,27.12709999999956,2.518139876089091,155.7383503379192,17.805937823587584,24.991824681315457,49.98364936263125,50.14197617461178,49.98364936263125,94.63985769861188,69.64830761185296,68.65814711416442,70.43009589107555,69.72910516614354,20.11453941262937,24.534675372616903,2.901322722634632,3.485481660077994,16.12396247383147,16.123962473831416,17.008761061889516,61.35616039612341,64.43273079999148,82.38975021357712,400.0,403.42141220665343,401.4083993410301,388.66328602773297,{}
215,814,5,0,27.160466666666228,16.171297507175343,155.53055916303362,16.171297507175343,25.001494872588403,46.46567764193633,46.56851585915419,50.03486924458687,107.28311671345142,82.32228338450301,74.19892786868866,63.422608214776574,71.16589102294643,17.34957334774765,39.87639998682028,10.8215139115473,0.9089067368863653,16.171297507175343,19.96608645507852,19.810149596776967,59.43547037451276,63.49291039332019,80.67880245045495,400.0,401.4603598987847,397.7533077686983,386.7941660992875,{}
216,815,5,0,27.193833333332893,8.846480385757559,149.6980682111729,13.987513647499302,22.55418805679651,45.24163600838807,48.85628479607873,50.34309257161467,95.43733571188936,72.88802789092104,68.28306013375402,59.14351933966611,61.73330684639291,10.53983287621338,34.69110706685103,8.130728218793365,2.0377010227347228,15.710527640943956,17.435906515859728,18.38447991693795,59.946554225472994,62.95793504724804,78.3800159123738,400.0,405.1924252715975,399.8833451688089,382.2536354621954,{}
217,816,5,0,27.22719999999956,17.961605866026623,161.48640763936118,14.297972666072388,21.5212987679372,48.38786527724742,50.3293207489562,50.170402383322106,103.90652617075804,82.38799665250787,73.35483330268437,62.85559187532215,64.81358551924495,13.685975980481658,40.018992538547536,15.98362158304451,0.6793039172792987,19.740783738830565,21.742793098103345,21.697766298982856,63.79462964332595,63.01542809115267,84.07660806168566,400.0,401.935822824732,398.0708119563692,390.5409836779261,{}
218,817,5,0,27.260566666666225,21.05263157894741,154.33866073953362,14.095453966568137,20.979910699892194,45.59076143189127,49.077846506048,50.70145085807281,106.70518615473368,85.73929923538407,75.08680759120125,67.02520555214335,69.4695967101353,17.775612500918555,38.2498328402603,13.297487899477003,5.172331690311239,15.7349330249192,17.57045775634496,17.6533929430189,60.03424684028579,61.882206555727976,84.2105263157894,400.00000000000006,403.3445048208843,401.22460360616526,392.3891467988783,{}
219,818,5,0,27.29393333333289,27.512443782027137,144.69598570696755,12.158897228303134,22.419898709599263,41.30447363263901,43.12553623029109,49.89594257706834,111.8882837634868,89.48155353336803,75.67348823135058,67.42486016321197,71.33627443321768,19.5521201927246,42.41656462169465,16.502207293581023,9.204201427772889,15.570985908600631,18.99280462734738,19.06690677695173,59.63173856702343,61.32503436492459,79.26631205536574,400.0,401.37254581828927,394.3121185405466,376.9689560824693,{}
220,819,5,0,27.32729999999956,22.556198767552264,135.64643418631206,10.379888841716806,20.831735534147345,38.21653985834554,40.12662101022,51.92826922841749,105.65641439836222,84.83967431134559,73.47354791289672,68.28307761288056,66.15109940903517,15.362198085652494,38.36564515424607,16.039649103696775,6.674885030731048,19.10826992917272,21.04613297168531,20.19401784670396,61.717780246833286,63.86968348062118,81.60306290466804,400.00000000000006,401.7283696993129,396.6225416270981,380.9142649240748,{}
221,820,5,0,27.360666666666223,10.742316355201616,145.3408225473449,12.487689109312806,22.9583370914158,42.531536532012126,44.46739670149368,51.21475197315845,97.19562406528298,74.25713791767451,68.80844530773686,59.45218418750369,61.14967010196369,9.326128234177531,36.716921658628166,11.817113481432443,1.6824194714322402,19.42628523119801,21.484632710403137,21.519902791303764,63.83149696090334,64.09264864005092,78.20524353128256,400.00000000000006,403.6441475892871,401.76216590960274,387.3398547990236,{}
222,821,5,0,27.39403333333289,8.976350634428062,165.93647142550896,12.322850358484468,22.95290162742409,46.0742654842971,47.661216385927055,47.56358320100958,91.69339046773662,68.74609858471402,64.2470017376695,48.80440045130968,50.57838110892317,2.182594179872808,41.96759859106896,15.31802399298806,6.777004759422198,19.44433299574808,19.444332995748137,18.64174618014601,60.88341481663292,63.24540029896076,83.20601429146248,400.00000000000006,401.68542244046375,399.8605191743722,385.7260657559455,{}
223,822,5,0,27.427399999999555,10.750807021822164,150.89476720294434,10.604530722617206,23.24680409905825,44.32671291160477,44.50254348254119,49.519361084508034,93.93975654753868,70.78518741047196,65.3677288374945,61.80746002206422,61.2505464643433,12.083035225552294,32.40043519740709,5.6884741967210175,2.9735206028314,17.67421787102891,19.52181170819372,18.80080501556114,63.3091376509189,64.7014215452212,81.47411870491551,400.0,403.35957373580015,399.6874999522976,389.0897877664774,{}
224,823,5,0,27.46076666666622,5.586243496197931,147.3010954884433,12.491220196364782,19.431778313516485,40.78340353693886,42.5435629811516,51.25968201988924,88.48510950698129,69.09801595573184,66.363476220047,63.4128845378084,63.36321127716474,12.224589444426329,25.04029069051319,1.91242053478436,1.4057532762180929,17.66525301228778,19.75035328760421,18.80132915365857,60.55170472472861,64.05863692617709,81.56680707387773,400.00000000000006,401.6582882981372,399.6253511510142,385.3617348916169,{}
225,824,5,0,27.494133333332886,6.17337784460336,146.53959851800985,11.9853086562088,22.520303256800627,41.41227753397264,43.11176584339091,44.64837315351588,84.5237870969912,62.018049075099,59.28293452199068,53.54393781965916,51.841268640956855,8.062639346207561,31.819882239629123,7.16122625160051,2.614097974360448,15.409682557982824,15.785583712899149,14.833253256811588,61.276059031177454,61.416278845894055,77.35220268306252,400.00000000000006,401.58723525926194,399.5600203992204,387.41233069258766,{}
226,825,5,0,27.527499999999552,5.54630871698779,152.29642625366372,14.031174521702072,24.61711489121867,44.16199339198968,46.13782173642486,45.90387256336044,86.81346320769048,62.28186126344803,61.0148928681823,52.773426130858525,49.08829884126533,5.026994291781989,35.849879610716016,8.652037984262165,6.288749831153496,14.140368188165272,15.882211154304192,15.982236832039916,65.49112085309565,65.65134377873022,82.8982998728907,400.0,403.02243800601,402.7475666537819,391.7830192960838,{}
227,826,5,0,27.56086666666621,5.08940247222932,151.1689616318226,12.723506180573136,23.667089575267056,47.09416365666852,50.89402472229298,49.11339310161316,89.64430231154977,65.99073189682477,63.78980497714747,63.68934859135664,57.119500960639584,11.321434678621245,29.02184985495728,2.7625506092465457,1.3561612081755356,14.507029068186643,14.838030494537922,14.807271265561496,65.11582926958596,63.649166037040345,86.53855104358405,400.00000000000006,403.38932756364005,399.4532556561241,386.4261003449222,{}
228,827,5,0,27.594233333332884,3.609283738501167,151.34265128800462,12.760745033602657,21.95441588576991,45.43972120451425,47.47271569192775,49.25713700376798,84.587474314619,62.64473156526433,62.21823382620187,61.54151599187969,58.21763721741547,10.638402424857643,24.4912145627452,0.0696621300038486,0.626959170033615,14.43713495400478,14.881458086664711,15.664027517984948,66.61689974929567,64.76587743776741,85.29677546746805,400.0,401.7912628888628,395.7888609950215,386.433623101041,{}
229,828,5,0,27.62759999999955,6.4908280437505175,156.0812386176186,12.729561097868991,21.677661420427697,43.5417982082646,47.356704744969306,46.94430178545156,85.54416598819674,63.92724241880951,61.728127931388826,52.68262126189381,50.09819078489534,4.473052748651412,34.09460206194262,9.840716047033084,7.057483225649889,14.401854358130604,16.597317065280357,16.599995756106296,65.00836661373319,69.38201819019218,85.08833237441465,400.00000000000006,403.5812942261077,399.3188447863423,391.7107480110199,{}
230,829,5,0,27.660966666666216,13.145083441394654,149.15744020182345,7.444745795146835,19.943681403084387,41.88095249734586,43.48499347207344,51.070534824533006,91.42909539572504,71.54433291502043,64.88246933483549,59.61525780211821,57.20111918295618,7.372100989920568,32.89014474122882,10.67408397728684,1.506342692121848,14.557342188400549,14.88949159029367,14.74420197984125,64.58319595229466,66.40876358579328,85.17073990052296,400.00000000000006,401.1963525834569,398.8736280616883,389.5655910668386,{}
231,830,5,0,27.69433333333288,12.299601975945585,148.3517602570923,8.869369118414163,17.73873823682831,40.157776649771,43.79763746095897,47.253527713773096,86.09721383162017,68.39286552752407,62.194968186957,49.74395426259116,50.38503623456177,2.824767438995309,35.90059043035171,14.73486844951094,4.177049723620712,13.915411140938692,14.023703911474174,14.088778024634394,65.22007374219311,67.53397898477436,83.65537913097393,400.00000000000006,399.55726036637856,392.12782328551634,379.6773774321788,{}
232,831,5,0,27.727699999999547,7.666198058013889,146.2014519495266,10.285283992017447,17.227637474613648,37.86822495204353,41.28373998653917,45.09392981542496,79.76162395509068,62.56294008012032,58.76897278061176,46.80481948522993,46.01597421300687,1.446216332408767,33.131501433364974,12.752998567604775,5.258968481486477,10.285283992017616,12.47966628405743,11.372519341214511,64.55383811024683,64.15941547413536,80.73201797623253,400.0,404.4455347307554,398.6422990167205,381.2074316594039,{}
233,832,5,0,27.761066666666213,3.422117395077314,142.11060985930547,8.555293487693337,17.195927090700614,39.35435004338916,39.354350043389154,48.18385040730119,77.30123109866165,60.10664508326503,58.34128862300543,43.76373701715056,44.65476007195048,3.87491421506013,33.00929596037918,11.697267777548063,9.873778735166866,11.977410882770592,15.494295500172266,13.784955516410662,64.18474214518187,67.52089823408392,78.78305881860712,400.00000000000006,404.4220345971563,402.2771413399571,385.003416056422,{}
234,833,5,0,27.79443333333288,1.6811768995356424,136.17532886238615,6.724707598142457,16.895618737434713,38.66706868931956,40.3482455888552,47.34237133533845,72.60271004892054,55.70761736737988,54.69702033083627,41.37473416497005,43.07679280761215,4.906551766135408,30.14324843049735,9.739557788452773,10.201845321022232,13.449415196285033,13.55408148454167,13.469377653502193,61.73639866768991,64.29999316648446,74.0481612804298,400.0,406.0555582805488,402.2266237397525,383.4889433243219,{}
