,video_id,frame_seq,gap,time_seconds,m1,m3,m4,m5,m6,m7,m8,m9,m10,m11,m12,m13,m14,m15,m16,m17,e1,e2,e3,b1,b2,b3,m_0_16,m_1_15,m_2_14,m_3_13
0,5,218,1,7.273933333333343,3.1622776601683795,31.25699921617557,4.0,6.0,8.06225774829855,9.055385138137417,6.082762530298219,19.1049731745428,13.152946437965905,11.5,14.0,10.0,6.0,7.0,1.0,3.0,4.123105625617661,4.0,4.0,8.0,12.0,10.04987562112089,77.41446893184762,75.4254598925323,73.33484846919642,69.26037828369117
1,5,219,0,7.3073000000000095,2.0,29.068883707497267,3.0,6.082762530298219,8.0,9.055385138137417,6.324555320336759,17.26267650163207,11.180339887498949,10.0,12.0,10.0,5.0,6.0,0.0,2.0,4.0,4.0,4.0,8.0,10.0,11.0,75.32595834106593,74.33034373659252,71.25307010929424,67.26812023536856
2,5,220,0,7.340666666666676,2.0,29.068883707497267,3.0,5.0,8.0,9.055385138137417,6.324555320336759,16.1245154965971,11.180339887498949,10.0,12.0,10.0,5.0,5.0,0.0,2.0,4.0,4.0,4.0,8.0,9.0,10.0,73.24616030891995,70.178344238091,67.1863081289633,64.1248781675256
3,5,221,0,7.374033333333343,2.23606797749979,28.071337695236398,3.0,4.0,8.06225774829855,8.0,6.324555320336759,15.297058540778355,11.40175425099138,10.0,11.0,9.0,4.0,5.0,0.0,2.0,3.0,3.0,3.0,8.0,9.0,8.0,70.178344238091,69.1158447825099,66.12110101926616,63.071388124885914
4,5,222,0,7.40740000000001,2.0,28.0178514522438,3.0,5.0990195135927845,8.0,8.0,5.385164807134504,15.297058540778355,10.198039027185569,9.0,10.0,9.0,4.5,5.5,0.5,1.5,3.0,2.0,2.5,7.0,9.0,8.0,66.37017402418047,65.19202405202648,62.289646009589745,60.207972893961475
5,5,223,0,7.440766666666676,1.0,25.019992006393608,3.1622776601683795,5.0,7.0,8.0,5.0990195135927845,14.142135623730951,9.219544457292887,8.5,10.0,9.0,4.5,4.5,0.5,1.5,4.123105625617661,3.0,3.0,7.0,8.0,9.0,65.19202405202648,64.19501538281614,61.204574992397426,58.215118311311535
6,5,224,0,7.474133333333343,2.0,25.019992006393608,3.0,4.0,7.0,8.0,5.385164807134504,14.142135623730951,10.198039027185569,9.0,10.0,9.0,4.5,4.5,0.5,1.5,3.0,3.0,3.0,8.0,9.0,8.0,64.19501538281614,62.20128616033595,60.207972893961475,57.21887800367987
7,5,225,0,7.50750000000001,1.0,25.019992006393608,3.0,5.0990195135927845,8.06225774829855,8.06225774829855,5.385164807134504,14.317821063276353,9.219544457292887,8.5,10.0,9.0,4.5,4.5,0.5,2.5,2.23606797749979,3.0,3.0,7.0,8.0,8.0,62.289646009589745,60.29925372672534,57.3149195236284,54.3323108288245
8,5,226,0,7.540866666666677,1.0,23.021728866442675,3.0,5.0990195135927845,6.0,7.0,5.385164807134504,14.317821063276353,9.219544457292887,8.5,9.0,8.0,3.5,5.5,0.5,1.5,3.0,2.0,2.0,7.0,8.0,7.0,60.29925372672534,58.215118311311535,56.32051136131489,53.23532661682466
9,5,227,0,7.574233333333344,1.0,22.02271554554524,3.0,5.0990195135927845,6.0,7.0,5.385164807134504,14.317821063276353,9.219544457292887,8.5,10.0,9.0,4.5,4.5,0.5,1.5,2.0,3.0,3.0,6.0,7.0,7.0,58.215118311311535,57.21887800367987,54.3323108288245,52.46903848937962
10,5,228,0,7.60760000000001,1.4142135623730951,22.02271554554524,2.23606797749979,5.0990195135927845,7.0710678118654755,6.0,4.123105625617661,12.165525060596439,7.0710678118654755,6.5,8.0,7.0,3.5,4.5,0.5,1.5,3.0,2.0,2.5,6.0,7.0,7.0,58.215118311311535,56.22277118748239,54.230987451824994,52.3450093132096
11,5,229,0,7.640966666666677,2.0,22.02271554554524,2.0,4.123105625617661,6.0,7.0,4.123105625617661,12.165525060596439,8.06225774829855,7.0,8.0,7.0,3.5,4.5,0.5,1.5,3.1622776601683795,3.0,2.5,6.0,6.0,7.0,56.22277118748239,54.230987451824994,52.23983154643591,50.24937810560445
12,5,230,0,7.674333333333344,1.0,20.024984394500787,3.0,5.0990195135927845,6.0,7.0710678118654755,3.1622776601683795,12.165525060596439,7.0710678118654755,6.5,8.0,7.0,4.5,4.5,0.5,1.5,3.1622776601683795,2.0,2.0,6.0,6.0,6.0,55.326304774492215,54.230987451824994,51.35172830587107,50.35871324805669
13,5,231,0,7.707700000000011,1.0,20.024984394500787,3.0,4.0,6.082762530298219,6.0,3.605551275463989,11.180339887498949,7.280109889280518,6.5,8.0,7.0,4.5,3.5,0.5,2.5,3.1622776601683795,2.0,2.0,6.0,7.0,7.0,54.147945482723536,52.15361924162119,50.15974481593781,48.25971404805462
14,5,232,0,7.741066666666677,1.0,17.029386365926403,3.0,4.123105625617661,5.0990195135927845,5.0990195135927845,4.47213595499958,12.36931687685298,8.246211251235321,7.5,9.0,8.0,4.5,3.5,0.5,2.5,3.0,2.0,2.0,5.0,6.0,6.0,53.33854141237835,50.35871324805669,49.36598018878993,47.51841748206689
15,5,299,1,9.976633333333298,13.038404810405298,81.30190649671138,5.0990195135927845,11.045361017187261,19.1049731745428,20.024984394500787,14.0,43.01162633521314,32.0,25.5,11.0,18.0,0.5,28.5,14.5,4.5,10.198039027185569,10.0,9.5,40.0,20.0,30.4138126514911,180.89776118017602,180.89776118017602,176.91806012954132,162.9969324864735
16,5,311,1,10.377033333333287,13.038404810405298,64.6297145282261,4.123105625617661,7.280109889280518,16.278820596099706,17.11724276862369,13.152946437965905,37.48332962798263,30.265491900843113,23.5,15.0,24.0,6.5,17.5,8.5,1.5,6.082762530298219,5.0990195135927845,5.0,27.0,10.0,22.561028345356956,137.46272221951665,138.6001443000692,139.74262055650738,133.6600164596728
17,5,340,1,11.3446666666666,1.4142135623730951,25.317977802344327,2.0,3.1622776601683795,7.0710678118654755,7.0710678118654755,6.082762530298219,12.36931687685298,9.219544457292887,8.5,6.0,10.0,2.0,4.0,0.0,0.0,3.0,3.1622776601683795,3.5,10.0,6.0,7.0,67.468511173732,68.06614430096654,68.59300255857006,65.27633568147036
18,5,341,0,11.378033333333263,0.0,24.08318915758459,2.23606797749979,3.1622776601683795,6.0,6.0,6.0,11.180339887498949,8.06225774829855,8.0,8.0,10.0,3.0,2.0,1.0,1.0,3.1622776601683795,3.1622776601683795,3.0,9.0,7.0,7.0,66.61080993352356,67.36467917239716,67.11929677819934,65.03076195155643
19,5,342,0,11.411399999999931,0.0,24.0,3.0,3.1622776601683795,6.0,6.0,6.0,12.041594578792296,9.0,9.0,9.0,9.0,3.0,3.0,0.0,1.0,3.0,3.1622776601683795,3.0,8.0,7.0,8.0,67.1863081289633,67.06713054842886,67.0,64.00781202322104
20,5,365,1,12.178833333333246,7.0,45.17742799230607,4.123105625617661,8.246211251235321,13.0,13.038404810405298,11.180339887498949,30.4138126514911,22.20360331117452,18.5,13.0,9.0,0.0,19.0,10.0,3.0,1.4142135623730951,1.4142135623730951,1.5,12.0,20.0,21.095023109728988,107.91200118615167,105.07616285342742,98.15294188153507,91.2414379544733
21,5,366,0,12.212199999999912,4.0,40.311288741492746,4.123105625617661,9.219544457292887,10.04987562112089,11.0,11.180339887498949,28.442925306655784,19.235384061671343,17.0,14.0,9.0,0.5,16.5,7.5,2.5,2.23606797749979,2.23606797749979,2.0,12.0,20.0,19.235384061671343,116.40017182117903,114.42464769445436,110.3177229641729,102.1077861869505
22,5,367,0,12.245566666666578,4.123105625617661,38.3275357934736,4.0,8.06225774829855,10.04987562112089,11.045361017187261,11.180339887498949,27.294688127912362,19.235384061671343,17.0,14.0,9.0,0.5,15.5,6.5,2.5,2.23606797749979,2.8284271247461903,2.0,11.0,19.0,19.1049731745428,112.44998888394787,110.3177229641729,106.21205204683694,98.00510190801293
23,5,368,0,12.278933333333244,4.123105625617661,37.21558813185679,4.0,7.0710678118654755,9.0,11.045361017187261,11.180339887498949,26.30589287593181,19.235384061671343,17.0,13.0,9.0,0.0,15.0,7.0,3.0,2.0,3.1622776601683795,3.0,10.0,18.0,18.110770276274835,109.48972554536796,106.53168542738823,103.24727599312246,95.03683496413377
24,5,369,0,12.31229999999991,4.123105625617661,37.21558813185679,4.0,8.06225774829855,9.055385138137417,11.0,10.198039027185569,26.30589287593181,18.24828759089466,16.0,12.0,8.0,0.0,16.0,7.0,3.0,2.23606797749979,2.23606797749979,2.0,11.0,18.0,17.11724276862369,105.22357150372724,103.24727599312246,100.12991560967181,91.92388155425118
25,5,370,0,12.345666666666576,2.23606797749979,34.23448553724738,4.0,8.06225774829855,9.055385138137417,10.04987562112089,11.180339887498949,25.317977802344327,17.26267650163207,16.0,13.0,9.0,0.0,14.0,6.0,2.0,1.4142135623730951,2.23606797749979,2.0,10.0,17.0,17.11724276862369,102.42070103255493,100.2845950283492,96.17692030835673,88.95504482602435
26,5,371,0,12.379033333333242,4.0,34.23448553724738,3.0,7.0710678118654755,9.055385138137417,9.055385138137417,10.198039027185569,24.186773244895647,17.11724276862369,15.0,12.0,8.0,0.0,14.0,7.0,2.0,1.4142135623730951,2.23606797749979,1.0,9.0,16.0,16.278820596099706,98.15294188153507,97.01546268507923,92.91393867445294,85.70880934886448
27,5,372,0,12.412399999999908,4.123105625617661,32.2490309931942,3.0,7.0710678118654755,8.06225774829855,9.055385138137417,10.198039027185569,24.331050121192877,17.26267650163207,15.0,12.0,8.0,0.0,14.0,6.0,2.0,2.0,2.8284271247461903,2.0,10.0,17.0,16.1245154965971,95.1892851112981,94.2019108086455,90.93404203047393,83.72574275573791
28,5,373,0,12.445766666666572,4.123105625617661,24.515301344262525,2.0,5.0,6.082762530298219,8.06225774829855,4.0,15.033296378372908,10.04987562112089,8.0,2.0,7.0,0.5,10.5,4.5,1.5,2.23606797749979,2.0,2.0,14.0,7.0,13.152946437965905,72.83543093852057,69.87131027825369,66.91038783328041,61.98386886924694
29,5,374,0,12.47913333333324,3.0,28.284271247461902,3.0,7.0710678118654755,8.06225774829855,8.06225774829855,9.219544457292887,22.20360331117452,15.132745950421556,13.5,12.0,8.0,1.0,12.0,5.0,1.0,1.0,2.8284271247461903,2.0,8.0,15.0,14.142135623730951,89.26925562588724,88.95504482602435,85.0,78.77182237323191
30,5,375,0,12.512499999999903,4.123105625617661,29.154759474226502,3.0,6.0,7.0,8.0,8.246211251235321,21.213203435596427,15.297058540778355,13.0,10.0,7.0,0.5,12.5,6.5,2.5,2.23606797749979,1.4142135623730951,1.5,8.0,15.0,14.142135623730951,87.13208364316786,85.98837130682264,82.87339742040264,76.79192665899195
31,5,376,0,12.545866666666573,3.0,30.14962686336267,3.0,6.082762530298219,8.06225774829855,8.0,8.246211251235321,20.223748416156685,14.142135623730951,12.5,10.0,7.0,0.5,11.5,5.5,1.5,2.0,2.23606797749979,2.0,8.0,14.0,14.142135623730951,85.0,84.01190391843289,79.90619500389191,74.67261881037788
32,5,377,0,12.579233333333235,2.23606797749979,28.284271247461902,3.0,6.0,7.0710678118654755,8.0,8.246211251235321,19.235384061671343,13.341664064126334,12.0,10.0,6.0,0.0,11.0,5.0,2.0,2.0,1.4142135623730951,1.0,8.0,13.0,13.152946437965905,83.02409288875127,81.04936767180853,77.92945527847606,71.84705978674423
33,5,378,0,12.612599999999905,4.0,28.284271247461902,2.23606797749979,5.0990195135927845,7.0710678118654755,8.0,8.06225774829855,19.235384061671343,14.142135623730951,12.0,10.0,6.0,0.0,11.0,6.0,1.0,1.0,1.4142135623730951,1.0,8.0,13.0,14.142135623730951,80.06247560499239,79.07591289387686,75.8023746329889,69.72087205421343
34,5,379,0,12.645966666666569,3.0,27.16615541441225,3.0,6.082762530298219,7.0710678118654755,8.0,7.280109889280518,19.235384061671343,13.152946437965905,11.5,9.0,6.0,0.5,11.5,5.5,1.5,1.0,1.4142135623730951,1.0,8.0,13.0,14.142135623730951,77.92945527847606,75.95393340703298,72.83543093852057,67.60177512462228
35,5,380,0,12.679333333333236,4.0,26.1725046566048,2.0,5.0990195135927845,7.0,8.06225774829855,7.0710678118654755,18.110770276274835,13.038404810405298,11.0,9.0,6.0,0.5,10.5,4.5,1.5,1.4142135623730951,1.4142135623730951,1.0,8.0,13.0,13.152946437965905,76.94153624668537,74.96665925596525,71.84705978674423,67.7421582177598
36,5,381,0,12.712699999999902,4.0,26.1725046566048,2.0,5.0990195135927845,7.0,8.06225774829855,7.0710678118654755,18.110770276274835,13.038404810405298,11.0,9.0,6.0,0.5,10.5,4.5,1.5,1.0,1.4142135623730951,1.0,8.0,13.0,13.152946437965905,73.97972695272672,72.99315036357864,69.72087205421343,65.62011886609167
37,5,382,0,12.746066666666566,3.0,26.076809620810597,2.0,5.0990195135927845,7.0,8.06225774829855,7.0710678118654755,17.11724276862369,12.041594578792296,10.5,8.0,6.0,0.0,10.0,5.0,2.0,1.0,1.4142135623730951,1.5,7.0,13.0,12.041594578792296,71.84705978674423,70.8590149522275,68.59300255857006,63.63961030678928
38,5,383,0,12.779433333333232,2.0,24.186773244895647,2.0,6.082762530298219,6.0,7.0,7.280109889280518,17.26267650163207,11.180339887498949,10.0,8.0,5.0,0.5,10.5,4.5,2.5,1.0,1.4142135623730951,1.0,7.0,12.0,12.041594578792296,70.71067811865476,69.87131027825369,66.75327707311455,61.66036003787198
39,5,384,0,12.812799999999898,3.1622776601683795,23.194827009486403,2.0,5.0,6.0,7.0710678118654755,7.0710678118654755,17.11724276862369,12.165525060596439,10.5,9.0,6.0,0.5,9.5,4.5,1.5,1.0,1.4142135623730951,1.5,7.0,12.0,12.041594578792296,69.87131027825369,68.73136110975832,65.76473218982953,60.67124524847005
40,5,385,0,12.846166666666564,2.0,22.090722034374522,2.0,6.082762530298219,6.082762530298219,6.0,7.280109889280518,17.26267650163207,11.180339887498949,10.0,8.0,6.0,0.0,10.0,4.0,1.0,1.4142135623730951,1.4142135623730951,1.0,7.0,12.0,12.041594578792296,67.89698078707183,66.91038783328041,63.788713735268246,59.682493245507096
41,5,395,1,13.179833333333224,1.0,55.326304774492215,4.123105625617661,9.055385138137417,16.1245154965971,16.0312195418814,18.24828759089466,31.575306807693888,22.561028345356956,22.0,14.0,20.0,1.0,14.0,4.0,5.0,3.1622776601683795,3.1622776601683795,3.0,23.0,16.0,20.09975124224178,127.4244874425634,130.24976007655445,128.00390619039717,121.69634341261039
42,5,396,0,13.213199999999889,1.4142135623730951,52.15361924162119,4.0,8.06225774829855,15.033296378372908,15.033296378372908,16.278820596099706,29.427877939124322,21.37755832643195,20.5,15.0,19.0,1.0,12.0,3.0,3.0,4.0,4.0,4.0,15.0,8.0,18.24828759089466,121.59358535712317,120.41594578792295,117.27318534089538,109.16501271011697
43,5,397,0,13.246566666666554,1.0,50.24937810560445,4.0,8.06225774829855,14.035668847618199,15.033296378372908,16.278820596099706,28.442925306655784,20.396078054371138,20.0,14.0,19.0,0.5,11.5,2.5,3.5,3.1622776601683795,4.0,4.0,13.0,8.0,16.1245154965971,113.7453295744489,114.5294721894762,111.36426715962351,105.30432089900205
44,5,398,0,13.27993333333322,1.0,48.16637831516918,4.123105625617661,7.0710678118654755,14.035668847618199,14.035668847618199,15.132745950421556,26.476404589747453,19.4164878389476,19.0,13.0,17.0,0.0,11.0,3.0,3.0,3.0,3.0,3.0,13.0,7.0,14.142135623730951,104.47966309287182,104.30723848324239,101.24228365658294,97.12878049270464
45,5,399,0,13.313299999999886,1.0,43.104524124504614,4.0,7.0710678118654755,12.0,12.041594578792296,14.142135623730951,25.317977802344327,18.24828759089466,18.0,13.0,16.0,0.5,10.5,2.5,2.5,4.0,4.0,3.5,13.0,8.0,15.033296378372908,100.4987562112089,99.32270636667126,95.25754563287887,89.20201791439474
46,5,400,0,13.346666666666552,0.0,43.104524124504614,4.123105625617661,6.082762530298219,12.0,12.0,13.152946437965905,23.345235059857504,17.26267650163207,17.0,12.0,15.0,0.5,9.5,2.5,2.5,2.0,3.0,3.0,11.0,7.0,13.038404810405298,96.62815324738438,96.42095207992918,93.26306878931231,88.14193099768123
47,5,401,0,13.380033333333218,1.0,41.10960958218893,3.0,7.0710678118654755,11.045361017187261,12.0,12.36931687685298,22.561028345356956,15.524174696260024,15.0,11.0,14.0,0.5,9.5,1.5,2.5,2.0,3.0,3.0,10.0,6.0,12.165525060596439,92.5418824100742,91.35097153287424,90.19977827023745,84.1486779456457
48,5,402,0,13.413399999999884,1.0,39.11521443121589,3.0,6.0,11.045361017187261,12.041594578792296,12.165525060596439,21.213203435596427,15.297058540778355,15.0,11.0,14.0,0.5,8.5,1.5,2.5,3.1622776601683795,2.0,2.0,9.0,5.0,13.038404810405298,88.56635930193812,88.45903006477066,85.28774824088158,80.22468448052632
49,5,403,0,13.44676666666655,1.0,38.2099463490856,3.1622776601683795,5.0990195135927845,11.045361017187261,12.041594578792296,11.180339887498949,20.396078054371138,15.297058540778355,14.5,10.0,14.0,1.0,8.0,1.0,2.0,2.23606797749979,3.0,2.5,10.0,5.0,11.045361017187261,82.38931969618392,81.2219182240853,79.22752047110903,74.10802925459562
50,5,404,0,13.480133333333216,0.0,36.124783736376884,3.1622776601683795,5.0990195135927845,10.0,11.0,11.180339887498949,19.4164878389476,14.317821063276353,14.0,10.0,13.0,0.5,7.5,1.5,1.5,3.0,2.0,2.5,9.0,5.0,12.041594578792296,78.5175139698144,77.31752712031083,75.16648189186454,72.11102550927978
51,5,405,0,13.51349999999988,0.0,19.026297590440446,2.0,2.0,6.0,6.0,5.0,9.0,7.0,7.0,8.0,7.0,2.5,1.5,0.5,0.5,3.0,3.0,3.0,6.0,6.0,9.055385138137417,57.0,56.00892785976178,55.036351623268054,53.03772242470448
52,5,406,0,13.546866666666547,1.0,32.2490309931942,3.1622776601683795,4.123105625617661,9.055385138137417,10.0,9.055385138137417,17.26267650163207,13.152946437965905,12.5,8.0,12.0,1.0,7.0,2.0,2.0,2.23606797749979,2.0,1.5,9.0,5.0,10.0,74.33034373659252,74.24284477308234,72.11102550927978,68.11754546370561
53,5,407,0,13.580233333333211,1.0,32.0624390837628,3.0,5.0,9.055385138137417,9.055385138137417,9.055385138137417,17.11724276862369,12.165525060596439,12.0,9.0,11.0,1.0,7.0,1.0,2.0,1.0,1.0,1.5,9.0,5.0,10.198039027185569,69.46221994724903,70.25667228100119,69.18092222571191,65.12296062065974
54,5,408,0,13.61359999999988,1.4142135623730951,30.14962686336267,2.0,4.0,8.0,9.055385138137417,9.219544457292887,16.278820596099706,12.36931687685298,11.5,8.0,11.0,0.5,6.5,1.5,1.5,1.0,2.0,2.0,9.0,5.0,10.198039027185569,68.3593446428504,67.26812023536856,66.12110101926616,62.12889826803627
55,5,409,0,13.646966666666543,1.0,30.14962686336267,3.0,4.0,9.0,9.055385138137417,9.219544457292887,16.278820596099706,12.36931687685298,12.0,8.0,11.0,0.5,6.5,1.5,1.5,1.0,1.0,1.5,8.0,5.0,9.055385138137417,65.49045732013177,65.27633568147036,64.19501538281614,62.12889826803627
56,5,410,0,13.68033333333321,1.0,28.160255680657446,3.0,4.0,8.0,8.0,8.246211251235321,15.297058540778355,11.40175425099138,11.0,7.0,10.0,0.5,6.5,1.5,1.5,1.4142135623730951,2.23606797749979,1.5,8.0,5.0,9.055385138137417,64.38167441127949,64.28063471995279,62.20128616033595,59.033888572581766
57,5,411,0,13.713699999999877,1.0,27.16615541441225,2.0,3.1622776601683795,8.06225774829855,8.0,8.246211251235321,14.317821063276353,11.180339887498949,10.5,7.0,10.0,0.5,5.5,1.5,1.5,2.0,2.0,2.0,7.0,4.0,9.055385138137417,61.29437168288782,60.207972893961475,59.135437767890075,57.07889277132134
58,5,412,0,13.747066666666544,1.4142135623730951,26.1725046566048,2.0,3.0,7.0,8.0,8.06225774829855,14.142135623730951,11.180339887498949,10.5,7.0,10.0,0.5,5.5,1.5,1.5,1.0,1.0,1.5,7.0,4.0,7.0710678118654755,59.30430001273095,60.207972893961475,59.07622195096772,56.08029957123981
59,5,413,0,13.780433333333209,0.0,25.079872407968907,2.23606797749979,3.0,7.0710678118654755,7.0,8.06225774829855,13.152946437965905,10.198039027185569,10.0,7.0,9.0,0.0,5.0,2.0,2.0,2.0,2.0,1.5,7.0,4.0,7.0710678118654755,58.42088667591412,58.215118311311535,56.142675390472796,54.08326913195984
60,5,414,0,13.813799999999874,1.0,24.08318915758459,2.0,3.1622776601683795,8.06225774829855,8.0,7.0710678118654755,13.152946437965905,10.04987562112089,9.5,7.0,9.0,1.0,5.0,1.0,1.0,1.0,1.0,1.5,6.0,4.0,7.0,57.21887800367987,56.142675390472796,56.08029957123981,53.03772242470448
61,5,415,0,13.84716666666654,1.4142135623730951,24.08318915758459,1.0,3.0,7.0,8.0,8.06225774829855,13.152946437965905,10.198039027185569,9.5,7.0,9.0,0.0,5.0,1.0,1.0,2.0,2.0,1.5,7.0,4.0,7.0710678118654755,54.3323108288245,54.230987451824994,53.150729063673246,51.088159097779204
62,5,416,0,13.880533333333206,0.0,24.186773244895647,2.23606797749979,3.1622776601683795,6.082762530298219,7.0,7.0,12.165525060596439,9.055385138137417,9.0,6.0,9.0,0.5,4.5,1.5,1.5,2.0,2.0,1.5,7.0,4.0,7.0710678118654755,54.230987451824994,53.150729063673246,52.15361924162119,49.040799340956916
63,5,662,1,22.08873333333301,12.041594578792296,106.04244433244644,8.0,15.0,27.018512172212592,29.017236257093817,27.018512172212592,62.03224967708329,47.042533945356304,41.0,35.0,32.0,6.5,28.5,12.5,0.5,11.0,12.041594578792296,11.5,31.0,37.0,36.013886210738214,242.404620418011,241.3503677229434,236.30488780387088,224.26992665089986
64,5,663,0,22.12209999999968,19.0,109.01834707974616,8.06225774829855,13.038404810405298,27.0,29.0,26.019223662515376,66.06814663663572,53.03772242470448,43.5,40.0,38.0,13.0,27.0,12.0,6.0,11.045361017187261,11.045361017187261,11.0,35.0,39.0,44.0,249.24285345822858,247.12952069714376,242.1321952983535,232.1055794245369
65,5,664,0,22.155466666666342,10.04987562112089,106.00471687618433,9.055385138137417,13.0,27.018512172212592,29.017236257093817,27.0,59.0,46.0,41.0,39.0,38.0,11.5,20.5,6.5,4.5,10.0,11.045361017187261,10.5,36.0,38.0,42.0,248.03225596683993,248.0080643850115,244.0,236.00211863455803
66,5,665,0,22.18883333333301,7.0,100.0199980003999,9.0,13.0,27.018512172212592,28.0178514522438,28.0178514522438,57.0087712549569,44.01136216933077,40.5,41.0,39.0,12.0,17.0,4.0,4.0,10.04987562112089,9.0,9.5,35.0,38.0,48.0,245.0081631293129,244.0,238.0021008310641,230.0
67,5,666,0,22.22219999999968,3.0,97.02061636580135,9.0,13.0,27.018512172212592,28.0178514522438,28.0178514522438,53.009433122794285,40.01249804748511,38.5,40.0,38.0,11.0,14.0,1.0,3.0,11.0,11.0,11.0,35.0,38.0,46.010868281309364,243.00205760445732,243.01851781294363,240.03333101883996,232.03448019637082
68,5,667,0,22.255566666666343,1.0,95.02105029939419,10.0,13.038404810405298,27.018512172212592,28.0178514522438,29.0,53.009433122794285,40.0,39.5,40.0,38.0,10.0,14.0,0.0,2.0,12.0,11.0,11.5,36.0,38.0,47.0,228.00877176108818,227.00881040171106,225.01999911119012,217.02073633641555
69,5,668,0,22.28893333333301,2.0,93.08598175880189,8.0,13.0,27.018512172212592,28.071337695236398,30.0,53.0,40.0,39.0,43.0,39.0,11.0,12.0,1.0,4.0,13.0,12.041594578792296,12.5,36.0,39.0,46.0,233.01931250435015,232.0021551624036,229.0,223.0022421411946
70,5,669,0,22.322299999999675,1.0,89.02246907382428,8.0,13.0,24.0,25.0,31.016124838541646,53.009433122794285,40.01249804748511,39.5,41.0,39.0,9.0,13.0,0.0,2.0,13.038404810405298,12.0,12.0,37.0,40.0,47.0,226.0,226.00221237855172,223.0022421411946,217.00230413523263
71,5,670,0,22.35566666666634,1.0,86.05230967266364,7.0,12.041594578792296,22.02271554554524,23.021728866442675,32.0,52.009614495783374,40.0,39.5,41.0,38.0,7.5,12.5,0.5,2.5,13.038404810405298,13.038404810405298,13.0,37.0,40.0,48.010415536631214,228.0350850198276,228.0350850198276,227.05505940189926,221.0814329607984
72,5,671,0,22.389033333333007,1.4142135623730951,85.05292469985967,7.0710678118654755,12.0,22.0,22.02271554554524,32.01562118716424,52.009614495783374,40.01249804748511,39.5,41.0,38.0,7.5,12.5,0.5,1.5,13.038404810405298,13.038404810405298,13.0,37.0,39.0,47.0,226.03539545832197,227.01982292302142,225.00888871331284,221.02036105300343
73,5,672,0,22.42239999999968,1.0,89.08984229416954,7.0710678118654755,12.0,22.02271554554524,23.021728866442675,32.0,51.0,39.0,39.0,41.0,37.0,7.0,12.0,0.0,2.0,10.0,10.04987562112089,10.0,36.0,39.0,46.010868281309364,232.0538730553748,233.01931250435015,233.01931250435015,227.01982292302142
74,5,673,0,22.45576666666634,2.23606797749979,93.04837451562494,8.0,13.0,26.019223662515376,27.073972741361768,30.01666203960727,53.03772242470448,40.049968789001575,39.0,40.0,37.0,8.5,14.5,0.5,1.5,3.0,4.123105625617661,3.5,38.0,40.0,46.010868281309364,223.00896842952304,223.00896842952304,223.00896842952304,219.0091322296858
75,5,674,0,22.489133333333005,2.23606797749979,90.0499861188218,9.055385138137417,14.035668847618199,24.020824298928627,26.019223662515376,30.01666203960727,55.0,41.012193308819754,40.0,40.0,37.0,8.5,16.5,2.5,0.5,7.0,7.0,7.0,36.0,39.0,48.010415536631214,225.00222221124838,226.0,226.00221237855172,220.00227271553356
76,5,675,0,22.52249999999967,5.0990195135927845,91.08786966440702,8.0,12.0,26.019223662515376,27.073972741361768,29.017236257093817,54.0,42.0,39.5,43.0,39.0,12.0,13.0,2.0,6.0,6.0,5.0990195135927845,5.0,36.0,39.0,47.042533945356304,236.00847442411893,236.00211863455803,235.00212764994276,227.00220263248548
77,5,676,0,22.555866666666336,8.0,91.0494371207203,8.0,13.038404810405298,26.019223662515376,27.073972741361768,29.017236257093817,58.0,45.0111097397076,41.0,39.0,36.0,8.5,20.5,6.5,1.5,3.1622776601683795,4.123105625617661,4.0,35.0,39.0,47.042533945356304,224.03571143904713,225.01999911119012,223.0022421411946,215.00930212434997
78,5,677,0,22.589233333333,8.06225774829855,88.05112151472007,8.0,16.0,26.019223662515376,28.071337695236398,28.0,60.00833275470999,44.01136216933077,40.0,39.0,36.0,9.5,22.5,5.5,2.5,7.0,7.0,6.5,36.0,42.0,46.04345773288535,224.1428116179504,225.055548698538,224.0089283934906,217.00230413523263
79,5,678,0,22.622599999999668,14.035668847618199,85.21150157109074,7.0,14.0,24.020824298928627,26.1725046566048,29.017236257093817,64.03124237432849,50.039984012787215,43.0,44.0,38.0,12.0,23.0,9.0,6.0,8.06225774829855,9.055385138137417,8.5,34.0,40.0,46.09772228646444,224.1428116179504,225.14217730136662,222.11033294288674,215.08370463612533
80,5,679,0,22.65596666666633,12.041594578792296,83.21658488546619,7.0,13.038404810405298,24.08318915758459,25.079872407968907,27.0,59.033888572581766,46.010868281309364,40.0,42.0,36.0,12.0,20.0,7.0,6.0,10.04987562112089,10.198039027185569,10.0,35.0,41.0,47.042533945356304,227.2201575564985,228.21919288263203,226.14154859291116,218.08255317654368
81,5,680,0,22.689333333333,10.0,86.14522621712709,6.082762530298219,12.041594578792296,24.08318915758459,25.179356624028344,29.017236257093817,57.0087712549569,45.0,40.0,40.0,35.0,8.5,19.5,7.5,4.5,11.0,10.04987562112089,10.5,34.0,42.0,47.095647357266465,226.2211307548435,225.14217730136662,224.0803427344755,216.08331726442927
82,5,681,0,22.722699999999666,10.04987562112089,83.38465086573187,8.0,15.033296378372908,26.019223662515376,27.16615541441225,25.0,58.034472514187634,43.01162633521314,38.0,42.0,34.0,13.0,20.0,5.0,6.0,10.04987562112089,11.180339887498949,11.0,34.0,42.0,48.041648597857254,236.17154782064668,237.17082451262846,235.1361307838504,226.10838109190027
83,5,682,0,22.75606666666633,10.04987562112089,88.20430828479978,8.0,13.038404810405298,26.076809620810597,27.073972741361768,26.019223662515376,57.0087712549569,44.0,39.0,41.0,35.0,12.0,19.0,6.0,6.0,12.041594578792296,11.045361017187261,11.5,34.0,41.0,46.04345773288535,223.1815404552984,224.1428116179504,222.1823575354263,216.18741869035765
84,5,683,0,22.789433333333,8.06225774829855,86.09297300012354,6.0,12.0,23.021728866442675,23.08679276123039,28.071337695236398,54.00925846556311,42.01190307520001,38.0,40.0,36.0,10.0,16.0,4.0,5.0,13.0,12.041594578792296,12.5,34.0,41.0,48.093658625644196,230.2628932329306,231.17525819170183,231.07790893982056,222.05629916757596
85,5,684,0,22.822799999999663,9.055385138137417,93.00537618869137,5.0,12.0,25.019992006393608,26.019223662515376,28.071337695236398,54.00925846556311,42.01190307520001,37.5,36.0,35.0,7.5,18.5,6.5,3.5,11.045361017187261,11.045361017187261,11.5,35.0,41.0,47.01063709417264,230.10649708341572,232.1055794245369,231.07790893982056,223.03587155433092
86,5,685,0,22.85616666666633,9.0,84.1486779456457,6.0,12.0,24.08318915758459,26.076809620810597,28.0178514522438,55.00909015790027,43.01162633521314,38.5,40.0,35.0,9.5,17.5,4.5,5.5,12.0,11.180339887498949,12.0,36.0,42.0,43.04648650006177,230.10649708341572,231.07790893982056,231.05410621756974,223.0560467685196
87,5,686,0,22.889533333332995,5.0990195135927845,83.21658488546619,7.0710678118654755,13.038404810405298,23.08679276123039,24.08318915758459,28.0178514522438,53.150729063673246,40.11234224026316,37.5,42.0,36.0,11.0,14.0,0.0,5.0,12.0,11.045361017187261,11.0,36.0,42.0,47.042533945356304,225.31977276750482,225.31977276750482,223.27113561766106,216.27991122617004
88,5,687,0,22.92289999999966,2.0,82.29823813423954,7.0,13.0,22.090722034374522,23.08679276123039,27.018512172212592,47.095647357266465,34.132096331752024,34.0,39.0,32.0,8.5,11.5,1.5,3.5,12.041594578792296,11.045361017187261,11.0,35.0,41.0,46.010868281309364,225.17992805754247,227.17834403833479,225.17992805754247,219.14607000811125
89,5,688,0,22.956266666666327,1.4142135623730951,80.30566605165541,7.0,11.045361017187261,24.08318915758459,24.08318915758459,27.073972741361768,46.17358552246078,35.12833614050059,34.5,40.0,33.0,9.5,9.5,2.5,4.5,13.0,12.041594578792296,12.5,34.0,41.0,47.042533945356304,226.2211307548435,224.22310318073826,222.1823575354263,215.14878572745886
90,5,689,0,22.989633333333,1.0,87.20665112249179,8.0,13.0,25.079872407968907,26.076809620810597,27.073972741361768,48.093658625644196,35.12833614050059,35.0,39.0,33.0,9.0,12.0,1.0,3.0,12.041594578792296,12.041594578792296,12.5,35.0,41.0,46.04345773288535,223.22410264126944,222.22511109233358,221.22612865572637,213.23461257497573
91,5,690,0,23.02299999999966,3.0,82.29823813423954,7.0,13.038404810405298,23.08679276123039,24.08318915758459,25.019992006393608,48.041648597857254,35.014282800023196,33.5,40.0,33.0,11.5,11.5,0.5,5.5,13.0,13.038404810405298,13.0,34.0,41.0,48.041648597857254,225.07998578283232,225.10886255321003,222.1823575354263,214.23351745233518
92,5,691,0,23.056366666666325,2.23606797749979,81.2219182240853,8.0,14.035668847618199,23.08679276123039,24.08318915758459,27.073972741361768,51.15662224971465,37.12142238654117,36.0,42.0,36.0,12.0,12.0,3.0,6.0,13.038404810405298,12.165525060596439,12.0,33.0,40.0,47.042533945356304,228.1403077055872,226.10838109190027,222.11033294288674,212.05895406702354
93,5,692,0,23.08973333333299,1.4142135623730951,80.22468448052632,7.0,12.041594578792296,22.090722034374522,23.08679276123039,28.071337695236398,48.16637831516918,36.124783736376884,35.5,42.0,36.0,11.0,9.0,2.0,5.0,13.0,12.041594578792296,12.0,34.0,40.0,46.010868281309364,223.1815404552984,224.1428116179504,222.14409737825582,214.18916872708573
94,5,693,0,23.123099999999656,4.0,88.14193099768123,7.0710678118654755,14.035668847618199,25.079872407968907,25.019992006393608,29.017236257093817,54.08326913195984,40.049968789001575,38.0,40.0,35.0,8.5,16.5,2.5,3.5,12.0,12.165525060596439,12.5,34.0,41.0,46.010868281309364,224.32119828495925,225.31977276750482,223.27113561766106,217.23029254687293
95,5,694,0,23.15646666666632,1.4142135623730951,83.2946576918352,8.06225774829855,14.035668847618199,24.020824298928627,25.079872407968907,29.068883707497267,52.23983154643591,38.2099463490856,37.5,43.0,36.0,10.5,12.5,1.5,3.5,13.038404810405298,12.041594578792296,12.5,35.0,41.0,47.042533945356304,223.22410264126944,224.1807306616695,222.14409737825582,216.14809737770074
96,5,695,0,23.189833333332988,5.0990195135927845,83.15046602394962,8.0,14.0,23.08679276123039,24.186773244895647,30.01666203960727,57.0350769263968,43.04648650006177,40.5,44.0,39.0,11.5,15.5,2.5,5.5,12.0,12.165525060596439,12.0,36.0,42.0,45.09988913511872,224.22310318073826,224.1807306616695,222.11033294288674,216.05786262017867
97,5,696,0,23.22319999999965,10.0,84.29116205154607,8.0,13.038404810405298,24.020824298928627,25.079872407968907,30.01666203960727,61.032778078668514,48.010415536631214,43.0,46.0,39.0,12.5,18.5,6.5,5.5,12.0,12.165525060596439,12.0,36.0,42.0,44.04543109109048,223.32263655975405,225.31977276750482,222.32408776378685,215.3346233191495
98,5,697,0,23.25656666666632,12.041594578792296,86.09297300012354,7.0,14.0,25.079872407968907,25.179356624028344,29.0,62.00806399170998,48.010415536631214,42.0,41.0,37.0,10.0,23.0,9.0,5.0,13.038404810405298,12.041594578792296,12.0,37.0,44.0,46.04345773288535,225.14217730136662,225.22211259110415,222.1823575354263,214.18916872708573
99,5,698,0,23.289933333332986,9.055385138137417,90.19977827023745,9.0,13.0,27.073972741361768,27.16615541441225,26.019223662515376,57.0,44.0,39.5,40.0,34.0,11.0,20.0,8.0,4.0,13.0,13.038404810405298,12.5,34.0,41.0,46.04345773288535,227.14092541856036,227.14092541856036,226.2211307548435,219.22819161777528
100,5,699,0,23.32329999999965,6.082762530298219,86.14522621712709,7.0,12.041594578792296,26.019223662515376,26.076809620810597,28.0178514522438,53.009433122794285,41.0,38.0,42.0,37.0,11.5,13.5,1.5,6.5,12.041594578792296,12.041594578792296,12.5,34.0,41.0,46.04345773288535,228.1074308302998,227.1079038695043,226.07963198837706,219.0821763631172
101,5,700,0,23.35666666666632,8.06225774829855,87.14355971613737,8.06225774829855,12.041594578792296,26.0,27.073972741361768,28.0,56.00892785976178,44.0,40.0,43.0,38.0,12.5,15.5,3.5,5.5,12.041594578792296,13.038404810405298,13.0,34.0,42.0,44.04543109109048,226.2211307548435,227.14092541856036,225.07998578283232,217.05759604307792
102,5,701,0,23.390033333332983,5.0990195135927845,89.1403387922662,8.0,13.0,25.0,26.076809620810597,30.0,56.00892785976178,43.01162633521314,40.5,40.0,35.0,7.5,18.5,4.5,0.5,13.038404810405298,13.038404810405298,13.5,36.0,42.0,46.04345773288535,225.17992805754247,227.14092541856036,226.14154859291116,221.14474897677312
103,5,702,0,23.42339999999965,1.4142135623730951,92.19544457292888,10.0,13.038404810405298,25.079872407968907,26.1725046566048,27.073972741361768,51.15662224971465,38.118237105091836,37.5,37.0,31.0,7.0,17.0,3.0,1.0,13.0,13.152946437965905,12.5,35.0,41.0,46.010868281309364,224.1428116179504,225.17992805754247,226.17913254763357,221.14474897677312
104,5,703,0,23.456766666666315,1.4142135623730951,91.19758768739445,8.06225774829855,11.0,25.019992006393608,25.179356624028344,31.016124838541646,49.09175083453431,38.118237105091836,38.5,37.0,31.0,3.0,15.0,3.0,3.0,14.0,13.152946437965905,12.5,35.0,42.0,46.04345773288535,229.21823662178366,233.10512649875378,233.0772404161333,226.05530296810116
105,5,704,0,23.49013333333298,1.0,87.28115489611719,10.0,13.038404810405298,25.019992006393608,25.079872407968907,30.066592756745816,53.150729063673246,40.11234224026316,40.0,40.0,33.0,6.5,16.5,2.5,1.5,14.0,14.035668847618199,14.0,34.0,42.0,45.044422518220834,229.10696191953662,231.05410621756974,231.03462943896528,223.0201784592596
106,5,705,0,23.523499999999647,1.4142135623730951,90.13878188659973,10.0,13.0,26.019223662515376,26.076809620810597,27.018512172212592,51.03920062069938,38.05259518088089,37.5,38.0,33.0,8.5,15.5,1.5,0.5,12.0,12.041594578792296,12.0,35.0,42.0,46.010868281309364,224.1807306616695,224.1428116179504,222.1823575354263,217.0829334609241
107,5,706,0,23.55686666666632,1.4142135623730951,83.2946576918352,8.0,12.041594578792296,24.08318915758459,24.08318915758459,32.0624390837628,53.150729063673246,41.10960958218893,40.5,42.0,35.0,6.5,14.5,1.5,0.5,14.0,13.152946437965905,12.5,35.0,41.0,44.04543109109048,224.32119828495925,226.2211307548435,226.17913254763357,221.14474897677312
108,5,707,0,23.59023333333298,7.0,83.2946576918352,9.0,14.035668847618199,24.020824298928627,25.179356624028344,30.01666203960727,60.03332407921454,46.010868281309364,42.5,42.0,35.0,8.5,21.5,7.5,1.5,13.038404810405298,13.152946437965905,13.0,36.0,43.0,45.09988913511872,222.11033294288674,224.0803427344755,223.03587155433092,216.03703386225243
109,5,708,0,23.623599999999644,9.055385138137417,88.14193099768123,8.06225774829855,13.0,26.076809620810597,26.076809620810597,30.01666203960727,60.07495318350236,47.095647357266465,42.5,39.0,34.0,6.5,23.5,9.5,0.5,14.035668847618199,13.038404810405298,13.0,35.0,41.0,45.0111097397076,223.1815404552984,226.17913254763357,224.1807306616695,217.18655575334307
110,5,709,0,23.65696666666631,6.082762530298219,83.09632964216891,7.0,12.041594578792296,24.020824298928627,25.079872407968907,31.144823004794873,56.08029957123981,44.04543109109048,41.0,40.0,36.0,7.0,18.0,6.0,2.0,13.0,13.152946437965905,13.0,36.0,42.0,46.010868281309364,226.497240601293,225.26872841120226,223.22410264126944,216.23135757794242
111,5,710,0,23.690333333332976,4.123105625617661,83.2946576918352,8.0,12.0,23.08679276123039,24.08318915758459,29.068883707497267,53.08483775994799,41.10960958218893,39.0,40.0,33.0,7.5,16.5,4.5,1.5,12.041594578792296,12.165525060596439,12.5,35.0,42.0,47.01063709417264,228.21919288263203,228.1074308302998,227.07928130941406,221.0814329607984
112,5,711,0,23.72369999999964,1.4142135623730951,86.14522621712709,8.0,14.0,23.08679276123039,24.08318915758459,31.064449134018133,52.08646657242167,38.118237105091836,38.5,38.0,33.0,4.5,16.5,2.5,1.5,13.038404810405298,12.165525060596439,12.5,34.0,41.0,46.010868281309364,226.2675407565124,227.17834403833479,227.14092541856036,221.11083193728885
113,5,712,0,23.757066666666308,2.0,84.2140130857092,8.0,13.038404810405298,23.021728866442675,23.08679276123039,30.14962686336267,51.35172830587107,38.3275357934736,38.0,39.0,33.0,6.0,15.0,2.0,0.0,12.0,13.152946437965905,13.0,34.0,42.0,46.010868281309364,227.49505489130968,228.42942017174582,227.3719419805355,221.38202275704322
114,5,713,0,23.79043333333297,1.4142135623730951,85.21150157109074,7.0,14.035668847618199,23.021728866442675,24.186773244895647,30.14962686336267,52.23983154643591,38.2099463490856,37.5,39.0,33.0,6.0,16.0,2.0,0.0,13.0,12.165525060596439,12.5,35.0,42.0,46.010868281309364,225.31977276750482,227.26636354727023,227.2201575564985,220.27482833950864
115,5,714,0,23.82379999999964,1.0,87.14355971613737,8.06225774829855,14.035668847618199,23.08679276123039,23.08679276123039,29.068883707497267,51.24451190127583,37.21558813185679,37.0,38.0,33.0,6.5,15.5,1.5,0.5,14.0,13.038404810405298,13.0,35.0,41.0,46.09772228646444,227.17834403833479,228.1403077055872,227.14092541856036,221.11083193728885
116,5,715,0,23.857166666666306,1.0,87.28115489611719,9.0,14.035668847618199,23.08679276123039,23.194827009486403,30.14962686336267,53.23532661682466,39.20459156782532,39.0,40.0,33.0,6.5,16.5,2.5,0.5,14.035668847618199,13.152946437965905,13.5,35.0,41.0,46.010868281309364,226.3183598385248,229.21823662178366,228.21919288263203,221.22612865572637
117,5,716,0,23.89053333333297,1.0,86.28441342444185,10.04987562112089,13.038404810405298,24.08318915758459,25.179356624028344,29.017236257093817,52.15361924162119,39.11521443121589,39.0,40.0,33.0,7.5,15.5,2.5,0.5,13.0,12.041594578792296,12.5,35.0,42.0,46.04345773288535,225.26872841120226,226.2211307548435,225.22211259110415,217.23029254687293
118,5,717,0,23.92389999999964,5.0,81.30190649671138,8.06225774829855,13.038404810405298,23.021728866442675,23.08679276123039,31.016124838541646,57.07889277132134,44.04543109109048,41.5,44.0,37.0,9.5,16.5,2.5,3.5,13.038404810405298,13.341664064126334,13.5,35.0,42.0,48.0,230.4256930118688,230.4886114323222,227.3719419805355,219.3855054464629
119,5,718,0,23.957266666666303,9.055385138137417,80.22468448052632,6.0,12.0,23.08679276123039,24.08318915758459,30.01666203960727,57.0350769263968,45.044422518220834,40.5,43.0,37.0,10.0,17.0,4.0,5.0,13.038404810405298,13.152946437965905,12.5,34.0,40.0,46.0,225.26872841120226,225.26872841120226,223.22410264126944,217.18655575334307
120,5,719,0,23.99063333333297,9.055385138137417,82.15229759416349,5.0,13.038404810405298,23.021728866442675,23.08679276123039,30.0,57.0350769263968,44.01136216933077,39.5,43.0,38.0,10.5,16.5,3.5,6.5,13.038404810405298,13.341664064126334,12.5,34.0,40.0,47.01063709417264,227.14092541856036,225.14217730136662,223.14345161801185,218.11235636707977
121,5,720,0,24.023999999999635,9.0,81.2219182240853,6.0,12.041594578792296,23.021728866442675,23.08679276123039,29.017236257093817,56.0357029044876,44.01136216933077,39.5,44.0,38.0,12.0,15.0,2.0,7.0,12.041594578792296,12.165525060596439,12.5,34.0,41.0,47.01063709417264,225.22211259110415,226.14154859291116,224.0803427344755,216.05786262017867
122,5,721,0,24.0573666666663,1.4142135623730951,80.09993757800315,8.0,13.038404810405298,22.02271554554524,23.021728866442675,31.0,53.03772242470448,40.01249804748511,39.5,41.0,37.0,8.0,14.0,0.0,2.0,12.041594578792296,12.041594578792296,12.5,33.0,39.0,46.010868281309364,225.14217730136662,226.14154859291116,224.1093483101497,217.05759604307792
123,5,722,0,24.090733333332967,1.4142135623730951,86.20904824900923,7.0710678118654755,11.045361017187261,24.020824298928627,24.08318915758459,30.0,49.09175083453431,38.05259518088089,37.5,41.0,35.0,8.0,11.0,1.0,2.0,14.035668847618199,12.041594578792296,12.5,34.0,40.0,47.042533945356304,230.10649708341572,230.07824755939012,230.07824755939012,224.03571143904713
124,5,723,0,24.12409999999964,1.0,90.0222194794152,8.0,12.0,24.0,25.079872407968907,29.0,49.01020301937138,37.013511046643494,37.0,37.0,35.0,7.0,13.0,0.0,0.0,12.041594578792296,12.041594578792296,12.0,34.0,41.0,46.0,222.11033294288674,224.0803427344755,224.0557966221807,219.02054698132775
125,5,724,0,24.1574666666663,2.23606797749979,80.30566605165541,8.0,13.038404810405298,21.095023109728988,22.20360331117452,30.066592756745816,49.16299421312742,36.124783736376884,37.0,39.0,32.0,5.5,13.5,0.5,0.5,13.038404810405298,12.165525060596439,12.5,35.0,41.0,45.044422518220834,225.22211259110415,224.1807306616695,224.1428116179504,216.08331726442927
126,5,725,0,24.190833333332964,1.4142135623730951,80.39900496896712,9.0,14.035668847618199,23.08679276123039,23.194827009486403,30.066592756745816,52.15361924162119,38.118237105091836,38.5,43.0,35.0,9.0,13.0,1.0,2.0,13.038404810405298,13.152946437965905,13.0,34.0,41.0,47.042533945356304,223.10983842045155,225.14217730136662,225.14217730136662,217.0829334609241
127,5,726,0,24.22419999999963,1.4142135623730951,80.30566605165541,8.0,14.0,22.090722034374522,23.194827009486403,29.068883707497267,52.08646657242167,38.118237105091836,37.5,40.0,33.0,7.5,15.5,1.5,1.5,13.038404810405298,13.152946437965905,13.0,33.0,42.0,48.041648597857254,229.31419493786248,229.21823662178366,227.14092541856036,219.1118435867856
128,5,727,0,24.257566666666296,2.23606797749979,81.2219182240853,7.0,12.041594578792296,22.090722034374522,22.090722034374522,29.017236257093817,49.16299421312742,37.12142238654117,36.5,40.0,34.0,8.0,12.0,1.0,3.0,13.0,13.152946437965905,13.5,33.0,41.0,47.042533945356304,224.37691503361035,223.32263655975405,221.22612865572637,215.14878572745886
129,5,728,0,24.29093333333296,3.0,82.21921916437786,6.0,12.041594578792296,22.090722034374522,23.194827009486403,29.0,50.00999900019995,38.0,36.5,39.0,33.0,7.0,14.0,2.0,3.0,12.0,12.165525060596439,12.5,33.0,41.0,47.01063709417264,225.5681715136247,225.37524265100637,222.27235545609355,215.14878572745886
130,5,729,0,24.324299999999628,3.1622776601683795,83.2946576918352,7.0,12.041594578792296,23.021728866442675,24.186773244895647,29.017236257093817,51.0098029794274,39.0,37.5,40.0,33.0,7.5,14.5,2.5,2.5,12.041594578792296,13.152946437965905,13.0,33.0,42.0,45.044422518220834,226.3183598385248,226.3183598385248,226.2211307548435,219.18485349129398
131,5,730,0,24.357666666666294,4.123105625617661,86.20904824900923,7.0,13.0,23.021728866442675,24.08318915758459,29.017236257093817,53.0,40.0,38.0,41.0,35.0,9.0,15.0,2.0,4.0,12.041594578792296,12.041594578792296,12.5,33.0,42.0,44.04543109109048,224.37691503361035,227.26636354727023,225.22211259110415,219.18485349129398
132,5,731,0,24.39103333333296,5.0,87.14355971613737,6.0,13.038404810405298,25.019992006393608,25.079872407968907,29.0,53.009433122794285,40.0,37.5,41.0,36.0,9.5,14.5,1.5,4.5,12.041594578792296,13.038404810405298,13.0,33.0,41.0,45.09988913511872,227.56317804073663,227.43130831088317,226.3183598385248,219.18485349129398
133,5,732,0,24.424399999999626,3.1622776601683795,87.28115489611719,8.0,13.038404810405298,25.019992006393608,25.079872407968907,29.017236257093817,53.08483775994799,40.049968789001575,38.5,42.0,35.0,9.5,14.5,0.5,2.5,13.0,13.152946437965905,13.5,33.0,42.0,46.17358552246078,226.3183598385248,227.26636354727023,225.22211259110415,217.14741536569116
134,5,733,0,24.45776666666629,7.0,86.20904824900923,8.0,13.038404810405298,26.019223662515376,27.073972741361768,27.018512172212592,55.036351623268054,42.01190307520001,38.5,40.0,34.0,10.0,18.0,4.0,4.0,12.041594578792296,12.041594578792296,12.5,32.0,40.0,46.010868281309364,227.31695933211847,226.2675407565124,223.1815404552984,217.1128738697915
135,5,734,0,24.49113333333296,8.0,85.14693182963201,7.0710678118654755,11.0,25.019992006393608,26.019223662515376,27.0,53.009433122794285,42.01190307520001,38.0,39.0,34.0,9.5,16.5,4.5,3.5,12.0,12.165525060596439,12.5,34.0,43.0,46.04345773288535,225.43513479491168,227.31695933211847,226.2211307548435,220.14540649307222
136,5,735,0,24.524499999999623,8.0,88.14193099768123,8.0,13.038404810405298,25.019992006393608,27.073972741361768,27.018512172212592,56.0357029044876,43.01162633521314,39.0,39.0,34.0,9.5,19.5,6.5,2.5,11.045361017187261,11.045361017187261,11.0,33.0,42.0,48.041648597857254,232.2154172315008,231.10603626906848,229.0785891348207,222.05629916757596
137,5,736,0,24.55786666666629,5.0,83.09632964216891,6.082762530298219,13.038404810405298,23.021728866442675,24.08318915758459,29.0,53.03772242470448,40.01249804748511,37.5,39.0,35.0,8.0,16.0,2.0,3.0,13.0,13.341664064126334,13.0,32.0,42.0,48.041648597857254,228.70942263055102,228.56071403458645,226.43321311150447,218.27734651126764
138,5,737,0,24.591233333332955,8.06225774829855,86.14522621712709,8.0,14.035668847618199,24.020824298928627,25.079872407968907,27.018512172212592,57.07889277132134,43.04648650006177,39.0,40.0,35.0,10.5,19.5,4.5,3.5,12.0,12.165525060596439,12.5,31.0,42.0,47.042533945356304,228.26519664635694,228.17756243767704,226.14154859291116,218.11235636707977
139,5,738,0,24.62459999999962,9.055385138137417,91.19758768739445,7.0,12.041594578792296,27.073972741361768,28.160255680657446,27.0,55.036351623268054,43.01162633521314,38.5,36.0,30.0,6.0,22.0,9.0,1.0,11.0,10.04987562112089,10.5,32.0,43.0,45.0111097397076,228.49288829195538,229.31419493786248,227.17834403833479,222.08106627986098
140,5,739,0,24.657966666666287,8.06225774829855,84.29116205154607,7.0,13.0,23.021728866442675,25.079872407968907,28.0,56.00892785976178,43.01162633521314,39.0,39.0,32.0,7.5,20.5,6.5,2.5,11.045361017187261,12.165525060596439,12.0,32.0,43.0,46.09772228646444,232.48440807933767,234.3608329051593,232.2154172315008,223.10983842045155
141,5,740,0,24.69133333333296,9.219544457292887,88.20430828479978,7.0,13.0,25.019992006393608,27.073972741361768,27.0,56.0357029044876,43.04648650006177,38.5,38.0,32.0,8.0,21.0,7.0,2.0,12.041594578792296,12.165525060596439,12.5,31.0,43.0,46.09772228646444,229.42754847663784,229.42754847663784,228.31557108528537,220.22715545545242
142,5,741,0,24.72469999999962,8.0,84.29116205154607,8.06225774829855,14.035668847618199,25.079872407968907,26.076809620810597,28.0,58.034472514187634,44.01136216933077,40.0,40.0,33.0,8.5,21.5,7.5,2.5,12.0,11.180339887498949,11.0,32.0,43.0,47.095647357266465,224.64416306683776,225.5681715136247,224.50167037240502,218.27734651126764
143,5,742,0,24.758066666666284,7.0710678118654755,84.38009243891595,6.082762530298219,11.045361017187261,24.020824298928627,25.079872407968907,29.017236257093817,53.150729063673246,42.1070065428546,38.5,40.0,32.0,7.0,17.0,5.0,2.0,11.045361017187261,11.180339887498949,11.5,32.0,43.0,47.042533945356304,231.62469643800938,232.55106965997814,229.42754847663784,220.27482833950864
144,5,743,0,24.79143333333295,9.055385138137417,83.38465086573187,7.0,14.142135623730951,23.08679276123039,24.186773244895647,28.071337695236398,58.215118311311535,44.10215414239989,39.5,39.0,31.0,7.0,23.0,8.0,2.0,12.0,12.165525060596439,11.5,31.0,43.0,46.04345773288535,228.56071403458645,230.5558500667463,229.49074055394914,221.38202275704322
145,5,744,0,24.824799999999616,6.082762530298219,80.09993757800315,7.0710678118654755,14.035668847618199,22.02271554554524,23.021728866442675,29.017236257093817,56.142675390472796,42.1070065428546,39.0,39.0,35.0,8.0,19.0,4.0,2.0,12.041594578792296,12.165525060596439,12.5,31.0,44.0,47.095647357266465,232.7767170487633,233.6193485137736,231.42385356743154,221.27358631341428
146,5,745,0,24.85816666666628,7.0710678118654755,78.31347265956222,5.0990195135927845,12.041594578792296,22.02271554554524,22.090722034374522,32.01562118716424,56.142675390472796,44.10215414239989,40.5,43.0,36.0,7.5,16.5,4.5,3.5,12.0,13.152946437965905,13.5,30.0,43.0,47.095647357266465,224.08257406590099,224.89108474992955,222.50617968946392,216.27991122617004
147,5,746,0,24.891533333332948,2.23606797749979,73.55270219373317,7.0,12.041594578792296,21.095023109728988,22.20360331117452,31.064449134018133,52.15361924162119,40.11234224026316,39.0,44.0,35.0,8.5,12.5,0.5,3.5,12.0,12.36931687685298,12.0,31.0,43.0,46.09772228646444,226.6142096162551,227.27076362788065,223.89506470666117,216.59178193089414
148,5,747,0,24.924899999999614,2.23606797749979,83.21658488546619,8.0,11.045361017187261,21.095023109728988,22.090722034374522,32.0624390837628,50.24937810560445,39.20459156782532,39.5,40.0,34.0,5.0,13.0,2.0,1.0,12.0,12.165525060596439,12.5,30.0,43.0,46.09772228646444,230.05434140654683,230.7834482799839,230.5558500667463,222.32408776378685
149,5,748,0,24.95826666666628,2.23606797749979,78.63841300535,8.06225774829855,11.180339887498949,22.20360331117452,22.20360331117452,33.06055050963308,50.35871324805669,39.20459156782532,40.0,42.0,32.0,4.0,13.0,2.0,1.0,12.0,12.165525060596439,12.5,30.0,42.0,46.09772228646444,229.71286424577968,230.36058690670154,228.06358762415363,218.74185699129464
150,5,749,0,24.991633333332945,1.4142135623730951,76.53103945458993,8.0,13.152946437965905,24.08318915758459,24.186773244895647,32.0624390837628,52.23983154643591,39.11521443121589,39.5,43.0,34.0,6.5,13.5,0.5,0.5,11.0,11.180339887498949,11.5,31.0,42.0,43.04648650006177,224.62858233092243,226.1725005388586,221.90313201935658,214.59729728027799
151,5,750,0,25.02499999999961,1.4142135623730951,79.63039620647382,9.0,12.041594578792296,21.095023109728988,22.20360331117452,32.14031735997639,54.230987451824994,42.190046219457976,41.5,43.0,33.0,6.0,16.0,4.0,0.0,12.0,12.041594578792296,12.5,31.0,44.0,45.09988913511872,234.23279018958897,235.03191272676142,232.6972281742952,222.3803048833237
152,5,751,0,25.05836666666628,2.23606797749979,82.49242389456137,8.0,12.041594578792296,23.08679276123039,23.08679276123039,32.14031735997639,50.24937810560445,38.2099463490856,39.0,40.0,31.0,3.5,14.5,1.5,1.5,11.045361017187261,11.045361017187261,11.0,30.0,43.0,44.10215414239989,233.77339455121918,234.48027635602958,233.30880823492285,223.14345161801185
153,5,752,0,25.091733333332943,2.0,81.61494961096282,8.06225774829855,12.041594578792296,23.194827009486403,23.345235059857504,32.01562118716424,52.23983154643591,40.19950248448356,40.0,42.0,32.0,5.0,15.0,3.0,0.0,12.0,12.165525060596439,12.0,30.0,43.0,47.095647357266465,228.06358762415363,229.78685776170926,228.56071403458645,220.27482833950864
154,5,753,0,25.12509999999961,7.0710678118654755,83.60023923410746,6.082762530298219,12.165525060596439,23.08679276123039,23.194827009486403,31.016124838541646,56.22277118748239,44.10215414239989,40.5,43.0,33.0,7.0,18.0,6.0,3.0,13.0,12.165525060596439,12.5,29.0,42.0,47.16990566028302,226.07299706068392,226.79726629745784,225.49944567559362,218.33002542023394
155,5,754,0,25.158466666666275,7.280109889280518,86.46964785403026,8.06225774829855,13.038404810405298,26.1725046566048,28.160255680657446,31.016124838541646,59.07622195096772,46.04345773288535,42.5,41.0,32.0,5.5,22.5,8.5,0.5,11.0,11.045361017187261,11.0,29.0,44.0,45.17742799230607,231.95258136093247,232.62201099638014,230.31283073246266,222.14409737825582
156,5,755,0,25.19183333333294,9.055385138137417,84.71717653463199,8.06225774829855,13.152946437965905,24.186773244895647,26.1725046566048,30.066592756745816,60.29925372672534,47.16990566028302,42.5,43.0,32.0,7.5,22.5,9.5,2.5,12.0,12.165525060596439,12.0,30.0,44.0,48.093658625644196,229.7063342618135,228.56071403458645,226.37358503146962,217.23029254687293
157,5,756,0,25.225199999999607,3.1622776601683795,79.22752047110903,6.082762530298219,11.045361017187261,22.02271554554524,23.08679276123039,34.058772731852805,54.230987451824994,43.18564576337837,41.5,42.0,36.0,5.0,15.0,4.0,1.0,12.0,11.40175425099138,11.5,30.0,43.0,45.17742799230607,228.06358762415363,228.79029699705362,226.43321311150447,216.18741869035765
158,5,757,0,25.258566666666272,10.04987562112089,84.48076704197234,6.0,11.045361017187261,23.194827009486403,25.079872407968907,32.01562118716424,59.07622195096772,48.041648597857254,43.0,43.0,34.0,6.5,20.5,8.5,3.5,12.0,11.180339887498949,11.0,30.0,44.0,48.16637831516918,234.61670869739862,233.42022191746798,230.2628932329306,220.18401395196702
159,5,758,0,25.29193333333294,4.0,81.39410298049853,6.082762530298219,12.041594578792296,22.02271554554524,22.20360331117452,32.0624390837628,54.147945482723536,42.1070065428546,40.0,42.0,34.0,6.0,16.0,3.0,1.0,11.0,12.165525060596439,12.0,31.0,44.0,46.17358552246078,229.87170334775874,230.5558500667463,228.3703133071372,218.14673960433146
160,5,759,0,25.325299999999604,5.0990195135927845,83.2946576918352,6.0,13.038404810405298,22.090722034374522,23.08679276123039,31.064449134018133,55.14526271584895,42.1070065428546,39.5,40.0,33.0,5.5,18.5,5.5,1.5,13.0,12.36931687685298,12.5,29.0,43.0,45.17742799230607,229.78685776170926,230.62740513651016,228.3703133071372,220.18401395196702
161,5,760,0,25.35866666666627,6.082762530298219,85.37564055396598,6.0,12.165525060596439,24.08318915758459,26.076809620810597,30.01666203960727,54.147945482723536,42.04759208325728,39.0,39.0,31.0,5.0,19.0,6.0,1.0,13.0,12.165525060596439,12.5,29.0,43.0,47.095647357266465,228.70942263055102,230.5558500667463,228.3703133071372,220.22715545545242
162,5,761,0,25.392033333332936,6.082762530298219,81.49846624323675,6.0,12.041594578792296,23.021728866442675,23.194827009486403,31.064449134018133,55.14526271584895,43.104524124504614,40.0,43.0,34.0,7.5,16.5,4.5,2.5,11.0,12.36931687685298,12.0,29.0,42.0,46.09772228646444,226.97356674291393,226.71568097509268,225.5681715136247,219.3855054464629
163,5,762,0,25.4253999999996,1.4142135623730951,81.49846624323675,5.0990195135927845,12.041594578792296,22.02271554554524,23.194827009486403,33.06055050963308,51.24451190127583,39.20459156782532,38.5,43.0,34.0,5.5,12.5,0.5,1.5,12.0,12.165525060596439,12.0,29.0,42.0,46.17358552246078,231.8641843838759,232.6972281742952,232.48440807933767,222.27235545609355
164,5,763,0,25.458766666666268,2.23606797749979,83.60023923410746,6.0,12.041594578792296,24.08318915758459,24.331050121192877,32.01562118716424,51.15662224971465,39.11521443121589,38.5,40.0,30.0,3.0,16.0,4.0,1.0,12.0,12.165525060596439,12.5,28.0,43.0,46.17358552246078,227.16733920174352,228.87551201471948,226.497240601293,218.27734651126764
165,5,764,0,25.492133333332934,1.4142135623730951,85.84287972802403,5.0,10.04987562112089,23.194827009486403,23.345235059857504,33.06055050963308,47.16990566028302,37.12142238654117,37.5,42.0,30.0,3.0,11.0,1.0,1.0,13.0,12.165525060596439,12.0,29.0,44.0,45.17742799230607,221.90313201935658,223.80795338861395,222.72853431924702,215.45533179756774
166,5,765,0,25.5254999999996,2.23606797749979,86.70063436907483,6.0,10.04987562112089,24.08318915758459,24.186773244895647,32.01562118716424,47.16990566028302,37.12142238654117,37.5,41.0,30.0,3.5,11.5,1.5,0.5,13.0,12.165525060596439,12.5,29.0,43.0,45.17742799230607,221.41589825484527,224.18296099391677,224.98222151983475,217.74526401279087
167,5,766,0,25.558866666666265,2.23606797749979,88.45903006477066,9.055385138137417,11.180339887498949,24.186773244895647,25.317977802344327,28.0,46.17358552246078,35.05709628591621,36.0,37.0,28.0,4.5,13.5,2.5,1.5,12.041594578792296,12.165525060596439,11.5,30.0,45.0,46.17358552246078,223.29352879114074,224.98222151983475,223.64704335179573,216.453228204155
168,5,767,0,25.59223333333293,0.0,95.33624704172071,8.06225774829855,12.041594578792296,27.073972741361768,28.160255680657446,27.073972741361768,47.16990566028302,35.12833614050059,35.0,35.0,27.0,4.0,16.0,4.0,2.0,12.0,12.165525060596439,12.0,30.0,44.0,44.181444068749045,233.0407689654323,232.86047324524614,230.62740513651016,220.38375620721234
169,5,768,0,25.6255999999996,1.4142135623730951,92.65527507918802,7.0,10.198039027185569,27.16615541441225,28.160255680657446,29.017236257093817,45.17742799230607,35.05709628591621,35.5,38.0,27.0,3.5,12.5,2.5,0.5,11.0,11.40175425099138,11.5,31.0,44.0,46.09772228646444,223.40322289528413,225.07776433935007,222.9910312097776,215.75217264259473
170,5,769,0,25.658966666666263,2.23606797749979,92.5418824100742,7.0710678118654755,10.198039027185569,24.08318915758459,24.186773244895647,29.017236257093817,44.28317965096906,34.132096331752024,35.0,37.0,27.0,3.0,12.0,3.0,2.0,12.0,12.165525060596439,12.0,30.0,44.0,46.17358552246078,234.0363219673391,234.94041797868667,231.70023737579555,222.50617968946392
171,5,770,0,25.69233333333293,2.23606797749979,92.34717104492157,6.082762530298219,8.06225774829855,24.08318915758459,24.08318915758459,30.0,42.1070065428546,34.058772731852805,35.0,37.0,29.0,3.0,9.0,1.0,0.0,12.0,12.36931687685298,12.5,29.0,44.0,46.17358552246078,227.27076362788065,229.0589443789524,227.8793540450736,221.65288177689007
172,5,771,0,25.725699999999595,1.0,96.42095207992918,9.055385138137417,12.165525060596439,28.071337695236398,28.284271247461902,25.019992006393608,45.17742799230607,33.06055050963308,33.5,38.0,29.0,8.5,11.5,0.5,1.5,11.0,11.40175425099138,11.5,29.0,43.0,47.16990566028302,223.40322289528413,224.08257406590099,222.81157959136684,217.5890622251036
173,5,772,0,25.75906666666626,2.23606797749979,93.64827814754524,8.06225774829855,11.180339887498949,27.16615541441225,27.16615541441225,26.0,43.18564576337837,32.0624390837628,33.0,38.0,27.0,6.5,10.5,0.5,1.5,13.0,12.36931687685298,12.5,29.0,44.0,47.16990566028302,226.07299706068392,226.79726629745784,224.64416306683776,217.45114393812693
174,5,773,0,25.792433333332927,1.0,91.54780172128658,7.0710678118654755,11.180339887498949,26.076809620810597,27.16615541441225,27.073972741361768,45.39823785126467,34.23448553724738,34.0,38.0,28.0,6.0,12.0,1.0,1.0,12.0,11.180339887498949,11.5,30.0,44.0,46.04345773288535,225.39077177204928,227.16733920174352,226.97356674291393,219.73848092675985
175,5,774,0,25.825799999999592,1.4142135623730951,91.44397191723465,5.0990195135927845,9.055385138137417,24.186773244895647,25.179356624028344,28.0178514522438,41.19465984809196,32.14031735997639,32.5,37.0,28.0,4.5,8.5,0.5,1.5,12.0,12.165525060596439,12.0,28.0,45.0,45.17742799230607,229.59311836376978,233.34309503390068,232.04525420701884,226.71568097509268
176,5,775,0,25.85916666666626,2.23606797749979,94.42986815621421,6.0,10.04987562112089,25.079872407968907,26.1725046566048,27.073972741361768,42.2965719651132,32.2490309931942,32.5,37.0,28.0,5.5,9.5,0.5,1.5,12.041594578792296,12.165525060596439,12.5,28.0,44.0,45.17742799230607,224.8777445635739,228.4841351166422,226.97356674291393,219.58369702689677
177,5,776,0,25.892533333332924,2.23606797749979,95.524865872714,7.0,10.04987562112089,26.1725046566048,28.160255680657446,25.179356624028344,41.43669871020132,31.400636936215164,31.5,36.0,26.0,6.0,10.0,0.0,1.0,11.045361017187261,11.40175425099138,11.5,27.0,43.0,45.17742799230607,234.5591609807641,236.32604596192948,235.1276249188938,227.79376637651873
178,5,777,0,25.92589999999959,3.1622776601683795,94.64142856064674,6.082762530298219,9.219544457292887,25.179356624028344,25.317977802344327,28.071337695236398,40.44749683231337,31.25699921617557,32.5,38.0,27.0,4.5,7.5,0.5,0.5,12.0,12.165525060596439,12.0,28.0,45.0,45.044422518220834,227.85302280198084,230.471256342304,228.96506283710622,223.64704335179573
179,5,778,0,25.959266666666256,3.1622776601683795,91.54780172128658,6.082762530298219,9.055385138137417,22.090722034374522,24.186773244895647,28.071337695236398,40.311288741492746,31.25699921617557,32.5,38.0,28.0,5.0,7.0,1.0,1.0,11.0,11.180339887498949,11.5,28.0,45.0,45.17742799230607,230.95670589961227,233.5658365429328,234.13244115243833,226.79726629745784
180,5,779,0,25.99263333333292,2.23606797749979,90.6697303403953,6.082762530298219,11.180339887498949,25.079872407968907,25.317977802344327,28.071337695236398,43.41658669218482,32.2490309931942,33.0,39.0,28.0,5.5,9.5,0.5,1.5,12.041594578792296,11.180339887498949,12.0,27.0,45.0,48.16637831516918,230.37577997697588,231.82105167564055,231.14713928578047,222.64994947226015
181,5,780,0,26.025999999999588,3.1622776601683795,91.7877987534291,7.0,11.180339887498949,25.079872407968907,25.179356624028344,27.294688127912362,42.579337712087536,31.400636936215164,32.5,38.0,26.0,5.0,10.0,0.0,0.0,7.0710678118654755,7.0710678118654755,7.0,26.0,43.0,45.17742799230607,228.54321254414887,230.09780529157595,230.471256342304,223.98660674245681
182,5,781,0,26.059366666666254,2.23606797749979,94.76286192385707,7.0,10.198039027185569,26.30589287593181,27.459060435491963,26.076809620810597,42.42640687119285,32.2490309931942,32.5,39.0,27.0,7.0,9.0,0.0,3.0,4.47213595499958,3.1622776601683795,3.0,29.0,46.0,45.27692569068709,227.26416347501865,230.58620947489467,230.05434140654683,224.72205054244233
183,5,782,0,26.09273333333292,2.23606797749979,87.82368700982668,6.082762530298219,9.219544457292887,22.20360331117452,23.345235059857504,28.071337695236398,41.43669871020132,32.2490309931942,33.0,38.0,26.0,4.0,9.0,1.0,0.0,5.385164807134504,6.324555320336759,5.5,28.0,47.0,46.389654018972806,231.36551169091732,232.93990641364996,233.34309503390068,224.98222151983475
184,5,783,0,26.126099999999585,2.23606797749979,88.11923740024082,6.082762530298219,11.180339887498949,23.345235059857504,24.331050121192877,29.017236257093817,45.39823785126467,34.23448553724738,34.5,41.0,27.0,5.0,11.0,1.0,2.0,4.47213595499958,5.385164807134504,4.5,25.0,44.0,46.389654018972806,227.98245546532743,229.71286424577968,230.25420734483876,222.89908030317218
185,5,784,0,26.15946666666625,3.605551275463989,86.14522621712709,5.0990195135927845,10.198039027185569,23.345235059857504,24.331050121192877,30.01666203960727,42.42640687119285,32.2490309931942,33.5,41.0,27.0,4.0,8.0,1.0,2.0,5.0990195135927845,5.0990195135927845,4.5,26.0,45.0,46.389654018972806,228.25424421026653,231.94827009486403,233.23807579381202,225.97787502319778
186,5,785,0,26.19283333333292,2.8284271247461903,86.14522621712709,6.082762530298219,9.486832980505138,22.360679774997898,22.360679774997898,31.064449134018133,44.721359549995796,35.35533905932738,36.0,42.0,28.0,4.0,9.0,1.0,1.0,7.0710678118654755,7.280109889280518,6.5,26.0,46.0,46.389654018972806,236.4571842850202,237.77510382712484,236.4339231159522,230.95670589961227
187,5,786,0,26.226199999999583,3.605551275463989,83.18653737234169,6.082762530298219,9.219544457292887,23.345235059857504,22.561028345356956,32.14031735997639,44.721359549995796,35.510561809129406,36.5,41.0,27.0,2.0,10.0,1.0,1.0,10.04987562112089,9.486832980505138,8.5,26.0,45.0,46.389654018972806,228.97379762758882,232.57256931977167,233.23807579381202,226.97356674291393
188,5,787,0,26.25956666666625,4.123105625617661,81.39410298049853,6.082762530298219,10.198039027185569,22.20360331117452,22.561028345356956,31.25699921617557,43.73785545725808,33.54101966249684,35.0,42.0,27.0,3.5,8.5,0.5,0.5,9.055385138137417,9.486832980505138,8.5,26.0,46.0,48.25971404805462,236.04448733236708,235.6692597688549,233.34309503390068,224.08257406590099
189,5,788,0,26.292933333332915,2.8284271247461903,86.97700845625813,7.0710678118654755,10.198039027185569,23.345235059857504,22.360679774997898,31.064449134018133,46.52956049652737,36.345563690772494,37.0,40.0,27.0,2.5,12.5,2.5,1.5,11.045361017187261,10.44030650891055,10.0,24.0,44.0,51.35172830587107,232.93990641364996,234.5591609807641,233.13729860320507,224.8043593883357
190,5,789,0,26.32629999999958,4.47213595499958,83.54639429682169,7.0710678118654755,10.198039027185569,22.360679774997898,22.561028345356956,31.064449134018133,44.553338819890925,34.36568055487916,36.0,42.0,26.0,3.0,10.0,1.0,0.0,12.041594578792296,11.40175425099138,11.0,26.0,46.0,48.373546489791295,233.20591759215716,234.06195760951843,233.45235059857504,224.39696967650877
191,5,790,0,26.359666666666246,5.385164807134504,80.23091673413684,7.0710678118654755,11.180339887498949,22.360679774997898,20.396078054371138,31.25699921617557,44.91102314577124,33.734255586866,35.5,41.0,27.0,3.0,10.0,0.0,1.0,12.041594578792296,12.36931687685298,11.5,25.0,45.0,48.373546489791295,230.95670589961227,233.34309503390068,232.94849216082082,224.64416306683776
192,5,791,0,26.393033333332912,4.242640687119285,80.4114419718985,8.06225774829855,11.180339887498949,22.360679774997898,23.345235059857504,32.14031735997639,48.83646178829912,37.656340767525464,38.5,44.0,29.0,4.5,11.5,0.5,0.5,13.038404810405298,12.36931687685298,12.0,27.0,44.0,46.2709412050371,228.25424421026653,230.82894099310857,230.15212360523637,221.81523843054606
193,5,792,0,26.42639999999958,3.605551275463989,82.03657720797473,8.0,9.219544457292887,24.186773244895647,24.331050121192877,30.265491900843113,44.721359549995796,35.510561809129406,36.5,42.0,29.0,5.5,8.5,0.5,0.5,12.041594578792296,11.40175425099138,11.0,27.0,45.0,47.265209192385896,234.92339176846565,235.55254190944322,233.13729860320507,226.88322987827902
194,5,793,0,26.459766666666244,5.385164807134504,83.74365647617735,6.082762530298219,11.180339887498949,24.331050121192877,24.515301344262525,28.160255680657446,50.635955604688654,39.45883931389772,36.5,42.0,25.0,5.5,16.5,5.5,2.5,13.0,13.152946437965905,12.5,26.0,44.0,45.39823785126467,233.5658365429328,233.45235059857504,232.34887561595818,224.08257406590099
195,5,794,0,26.49313333333291,6.708203932499369,83.3606621854697,7.0710678118654755,12.041594578792296,23.345235059857504,23.53720459187964,29.154759474226502,54.589376255824725,42.579337712087536,39.0,42.0,27.0,5.5,19.5,7.5,1.5,13.038404810405298,12.36931687685298,12.0,26.0,45.0,49.25444142409901,236.54597861726586,240.30397416605493,239.92082027202224,231.62469643800938
196,5,795,0,26.526499999999576,2.23606797749979,80.23091673413684,6.082762530298219,12.165525060596439,22.20360331117452,22.360679774997898,31.25699921617557,50.80354318352215,38.63935817272331,37.5,42.0,28.0,4.0,15.0,3.0,1.0,11.0,12.36931687685298,11.5,28.0,45.0,46.389654018972806,232.4585984643287,232.14219780126146,229.96086623597503,220.6558406206371
197,5,796,0,26.55986666666624,4.123105625617661,77.10382610480494,8.06225774829855,15.297058540778355,22.360679774997898,22.360679774997898,30.265491900843113,57.706152185014034,42.42640687119285,40.0,44.0,31.0,7.5,19.5,4.5,2.5,13.038404810405298,12.36931687685298,12.5,26.0,45.0,46.2709412050371,235.55254190944322,238.3149177034455,237.8423847845459,228.56071403458645
198,5,797,0,26.593233333332908,2.23606797749979,83.72574275573791,6.082762530298219,14.142135623730951,20.396078054371138,20.396078054371138,32.01562118716424,54.230987451824994,40.11234224026316,39.0,41.0,30.0,3.5,18.5,5.5,0.5,13.038404810405298,11.40175425099138,11.0,27.0,45.0,46.389654018972806,234.33736364481018,238.01890681204299,237.53947040439405,226.3183598385248
199,5,798,0,26.626599999999573,7.0,81.49846624323675,7.0710678118654755,13.152946437965905,22.20360331117452,22.360679774997898,31.064449134018133,58.215118311311535,45.09988913511872,41.5,42.0,33.0,6.5,20.5,6.5,1.5,11.045361017187261,11.40175425099138,10.5,27.0,46.0,46.17358552246078,236.32604596192948,238.1134183535233,236.76359517459605,225.5681715136247
200,5,799,0,26.65996666666624,2.23606797749979,85.70880934886448,6.082762530298219,10.198039027185569,25.179356624028344,26.1725046566048,31.016124838541646,48.373546489791295,38.2099463490856,37.5,40.0,29.0,3.5,13.5,2.5,0.5,3.1622776601683795,2.8284271247461903,2.5,25.0,45.0,45.39823785126467,232.69078194032525,236.1228493814184,237.68256141332708,232.31013753170566
201,5,800,0,26.693333333332905,2.8284271247461903,90.55385138137417,9.055385138137417,13.152946437965905,27.16615541441225,28.284271247461902,23.021728866442675,47.38143096192854,34.23448553724738,33.0,37.0,27.0,9.0,15.0,2.0,2.0,5.0990195135927845,5.0990195135927845,5.0,25.0,43.0,44.40720662234904,220.20445045457188,223.89506470666117,224.57070156189118,221.32555207205516
202,5,801,0,26.72669999999957,2.0,91.54780172128658,8.06225774829855,12.041594578792296,25.179356624028344,26.1725046566048,25.019992006393608,45.27692569068709,33.24154027718932,33.0,34.0,24.0,4.0,16.0,4.0,1.0,2.23606797749979,3.0,2.5,22.0,42.0,41.43669871020132,222.52415599210798,224.18296099391677,224.72205054244233,221.50846484954022
203,5,802,0,26.76006666666624,5.0990195135927845,86.46964785403026,5.0,11.180339887498949,24.08318915758459,25.179356624028344,27.16615541441225,48.373546489791295,37.21558813185679,34.5,38.0,29.0,6.5,14.5,3.5,3.5,3.605551275463989,2.0,2.0,24.0,41.0,42.2965719651132,222.29934772733816,224.89108474992955,226.43321311150447,220.22715545545242
204,5,803,0,26.793433333332903,6.082762530298219,88.56635930193812,6.082762530298219,11.045361017187261,24.08318915758459,24.186773244895647,27.018512172212592,50.15974481593781,39.11521443121589,36.0,39.0,29.0,7.0,16.0,5.0,3.0,4.47213595499958,5.0990195135927845,5.0,24.0,42.0,44.28317965096906,226.38462845343543,227.06827167175956,225.80079716422614,219.5130975591206
205,5,804,0,26.82679999999957,3.1622776601683795,89.45389874119518,8.0,13.038404810405298,28.071337695236398,28.160255680657446,26.076809620810597,50.15974481593781,37.12142238654117,35.5,39.0,30.0,8.5,15.5,2.5,2.5,3.1622776601683795,4.123105625617661,4.0,24.0,42.0,44.40720662234904,222.40953216982405,225.17770760001977,225.88713996153035,220.5810508633958
206,5,805,0,26.860166666666235,1.4142135623730951,90.79647570252934,8.06225774829855,12.165525060596439,28.284271247461902,28.284271247461902,26.0,45.17742799230607,33.06055050963308,33.5,38.0,26.0,6.0,13.0,1.0,2.0,4.47213595499958,6.082762530298219,5.5,25.0,42.0,44.28317965096906,233.94443784796422,236.8459414893994,235.8495283014151,227.63567382991621
207,5,806,0,26.8935333333329,1.0,91.92388155425118,7.0710678118654755,11.045361017187261,27.16615541441225,26.30589287593181,27.018512172212592,45.17742799230607,34.132096331752024,34.0,41.0,28.0,7.5,10.5,0.5,3.5,6.082762530298219,5.0990195135927845,5.0,26.0,42.0,44.40720662234904,225.07776433935007,228.06358762415363,227.06827167175956,221.0
208,5,807,0,26.926899999999566,2.23606797749979,92.5418824100742,8.0,13.152946437965905,29.274562336608895,29.274562336608895,26.0,48.16637831516918,35.05709628591621,34.5,37.0,27.0,6.0,16.0,3.0,1.0,7.0710678118654755,8.246211251235321,8.0,27.0,43.0,45.27692569068709,233.8567937862828,234.85314560380067,232.86047324524614,226.63847863944022
209,5,808,0,26.960266666666232,3.0,93.64827814754524,8.0,15.033296378372908,30.265491900843113,30.265491900843113,27.018512172212592,50.24937810560445,35.22782990761707,35.0,38.0,27.0,5.5,17.5,2.5,0.5,7.0710678118654755,6.082762530298219,6.0,27.0,42.0,45.27692569068709,229.96086623597503,230.8679276123039,229.7063342618135,221.50846484954022
210,5,809,0,26.99363333333289,2.8284271247461903,87.13208364316786,7.0,14.035668847618199,26.1725046566048,27.294688127912362,29.017236257093817,52.15361924162119,38.118237105091836,37.0,43.0,29.0,7.0,16.0,3.0,3.0,8.06225774829855,8.246211251235321,7.0,27.0,42.0,45.27692569068709,237.47420912595962,238.47222060441337,235.41665191740367,226.2675407565124
211,5,810,0,27.026999999999564,3.605551275463989,83.02409288875127,7.0,13.152946437965905,24.186773244895647,25.317977802344327,29.017236257093817,52.23983154643591,39.11521443121589,37.5,45.0,32.0,9.5,13.5,1.5,5.5,8.06225774829855,8.246211251235321,8.0,28.0,42.0,47.16990566028302,228.96506283710622,228.87551201471948,224.72205054244233,217.51781536232843
212,5,811,0,27.06036666666623,1.0,91.35097153287424,10.04987562112089,14.142135623730951,27.16615541441225,28.160255680657446,28.071337695236398,53.23532661682466,39.11521443121589,38.5,42.0,34.0,10.0,15.0,2.0,2.0,9.0,9.055385138137417,9.0,27.0,42.0,47.16990566028302,226.63847863944022,228.42942017174582,226.2211307548435,217.18655575334307
213,5,812,0,27.093733333332896,1.4142135623730951,88.36288813749809,11.045361017187261,13.038404810405298,28.071337695236398,29.154759474226502,27.018512172212592,50.15974481593781,37.12142238654117,37.5,44.0,36.0,13.0,10.0,3.0,4.0,10.04987562112089,11.045361017187261,11.0,28.0,41.0,47.095647357266465,218.82641522448793,220.6558406206371,218.51544567833184,214.4574549881631
214,5,813,0,27.12709999999956,1.4142135623730951,87.46427842267951,10.0,14.035668847618199,28.071337695236398,28.160255680657446,28.071337695236398,53.150729063673246,39.11521443121589,38.5,44.0,35.0,11.5,13.5,0.5,3.5,9.055385138137417,9.055385138137417,9.5,28.0,42.0,46.2709412050371,224.64416306683776,226.56566377101365,225.43513479491168,218.27734651126764
215,5,814,0,27.160466666666228,9.055385138137417,87.09190547921202,9.055385138137417,14.0,26.019223662515376,26.076809620810597,28.0178514522438,60.07495318350236,46.09772228646444,41.5,40.0,36.0,10.0,22.0,7.0,2.0,9.055385138137417,11.180339887498949,11.0,27.0,41.0,45.17742799230607,223.98660674245681,224.8043593883357,222.72853431924702,216.59178193089414
216,5,815,0,27.193833333332893,5.0990195135927845,86.28441342444185,8.06225774829855,13.0,26.076809620810597,28.160255680657446,29.017236257093817,55.00909015790027,42.01190307520001,39.5,39.0,32.0,6.5,19.5,5.5,0.5,9.055385138137417,10.04987562112089,10.5,28.0,42.0,45.17742799230607,230.5558500667463,233.54871012274933,230.4886114323222,220.32702966272657
217,5,816,0,27.22719999999956,10.04987562112089,90.35485598461214,8.0,12.041594578792296,27.073972741361768,28.160255680657446,28.071337695236398,58.137767414994535,46.09772228646444,41.0,40.0,32.0,8.0,22.0,10.0,2.0,11.045361017187261,12.165525060596439,12.0,29.0,41.0,47.042533945356304,223.80795338861395,224.89108474992955,222.72853431924702,218.51544567833184
218,5,817,0,27.260566666666225,12.041594578792296,88.2779700718135,8.06225774829855,12.0,26.076809620810597,28.071337695236398,29.0,61.032778078668514,49.040799340956916,43.0,43.0,36.0,10.5,21.5,8.5,4.5,9.0,10.04987562112089,10.0,28.0,41.0,48.16637831516918,228.79029699705362,230.70327262524907,229.49074055394914,224.43707358633955
219,5,818,0,27.29393333333289,16.0,84.1486779456457,7.0710678118654755,13.038404810405298,24.020824298928627,25.079872407968907,29.017236257093817,65.06919393998976,52.03844732503075,44.0,43.0,38.0,11.5,24.5,10.5,6.5,9.055385138137417,11.045361017187261,11.0,29.0,41.0,46.09772228646444,232.62201099638014,233.42022191746798,229.31419493786248,219.22819161777528
220,5,819,0,27.32729999999956,13.038404810405298,78.40918313565064,6.0,12.041594578792296,22.090722034374522,23.194827009486403,30.01666203960727,61.07372593840988,49.040799340956916,42.5,43.0,35.0,9.0,22.0,10.0,5.0,11.045361017187261,12.165525060596439,11.5,30.0,42.0,47.16990566028302,231.21634890292685,232.2154172315008,229.2640399190418,220.18401395196702
221,5,820,0,27.360666666666223,6.082762530298219,82.29823813423954,7.0710678118654755,13.0,24.08318915758459,25.179356624028344,29.0,55.036351623268054,42.04759208325728,39.0,38.0,31.0,5.5,20.5,7.5,0.5,11.0,12.165525060596439,12.0,30.0,42.0,44.28317965096906,226.497240601293,228.56071403458645,227.49505489130968,219.32852071721086
222,5,821,0,27.39403333333289,5.0990195135927845,94.26027795418386,7.0,13.038404810405298,26.1725046566048,27.073972741361768,27.018512172212592,52.08646657242167,39.05124837953327,36.5,32.0,25.0,1.5,23.5,9.5,2.5,11.045361017187261,11.045361017187261,10.5,29.0,41.0,47.265209192385896,227.2201575564985,228.17756243767704,227.14092541856036,219.1118435867856
223,5,822,0,27.427399999999555,6.082762530298219,85.37564055396598,6.0,13.152946437965905,25.079872407968907,25.179356624028344,28.0178514522438,53.150729063673246,40.049968789001575,37.0,39.0,31.0,7.0,18.0,4.0,3.0,10.0,11.045361017187261,10.5,30.0,42.0,46.09772228646444,226.3183598385248,228.21919288263203,226.14154859291116,220.14540649307222
224,5,823,0,27.46076666666622,3.1622776601683795,83.38465086573187,7.0710678118654755,11.0,23.08679276123039,24.08318915758459,29.017236257093817,50.08991914547278,39.11521443121589,37.5,40.0,32.0,7.0,14.0,2.0,2.0,10.0,11.180339887498949,10.5,28.0,42.0,46.17358552246078,226.43321311150447,227.3719419805355,226.2211307548435,218.14673960433146
225,5,824,0,27.494133333332886,3.605551275463989,85.58621384311844,7.0,13.152946437965905,24.186773244895647,25.179356624028344,26.076809620810597,49.36598018878993,36.22154055254967,34.5,36.0,26.0,5.0,18.0,5.0,0.0,9.0,9.219544457292887,8.5,29.0,42.0,45.17742799230607,233.6193485137736,234.54637068179076,233.36237914453991,226.2675407565124
226,5,825,0,27.527499999999552,3.1622776601683795,86.83317338436964,8.0,14.035668847618199,25.179356624028344,26.30589287593181,26.1725046566048,49.49747468305833,35.510561809129406,34.5,35.0,23.0,3.0,20.0,6.0,2.0,8.06225774829855,9.055385138137417,9.0,30.0,44.0,47.265209192385896,228.06358762415363,229.78685776170926,229.63013739489858,223.37860237721964
227,5,826,0,27.56086666666621,2.8284271247461903,84.01190391843289,7.0710678118654755,13.152946437965905,26.1725046566048,28.284271247461902,27.294688127912362,49.8196748283246,36.6742416417845,35.0,40.0,27.0,6.5,15.5,2.5,2.5,8.06225774829855,8.246211251235321,8.0,29.0,42.0,48.093658625644196,222.29934772733816,224.18296099391677,221.9954954497951,214.75567512873786
228,5,827,0,27.594233333332884,2.0,83.86298349093002,7.0710678118654755,12.165525060596439,25.179356624028344,26.30589287593181,27.294688127912362,46.87216658103186,34.713109915419565,34.0,39.0,27.0,6.0,13.0,1.0,2.0,8.0,8.246211251235321,8.5,29.0,43.0,47.265209192385896,221.65062598603234,222.64321233758733,219.31712199461307,214.13313615599057
229,5,828,0,27.62759999999955,3.605551275463989,86.70063436907483,7.0710678118654755,12.041594578792296,24.186773244895647,26.30589287593181,26.076809620810597,47.51841748206689,35.510561809129406,34.0,34.0,23.0,2.5,18.5,6.5,2.5,8.0,9.219544457292887,9.0,29.0,45.0,47.265209192385896,222.19360926903366,224.18296099391677,221.81523843054606,217.5890622251036
230,5,829,0,27.660966666666216,7.280109889280518,82.60750571225353,4.123105625617661,11.045361017187261,23.194827009486403,24.08318915758459,28.284271247461902,50.635955604688654,39.6232255123179,35.5,37.0,27.0,4.0,18.0,7.0,2.0,8.06225774829855,8.246211251235321,8.0,29.0,43.0,47.16990566028302,221.53103620034824,222.19360926903366,220.90722034374522,215.75217264259473
231,5,830,0,27.69433333333288,7.0710678118654755,85.28774824088158,5.0990195135927845,10.198039027185569,23.08679276123039,25.179356624028344,27.16615541441225,49.49747468305833,39.319206502675,35.5,32.0,25.0,1.5,20.5,9.5,1.5,8.0,8.06225774829855,8.0,32.0,44.0,48.093658625644196,229.96086623597503,229.7063342618135,225.43513479491168,218.27734651126764
232,5,831,0,27.727699999999547,4.47213595499958,85.28774824088158,6.0,10.04987562112089,22.090722034374522,24.08318915758459,26.30589287593181,46.52956049652737,36.49657518178932,34.0,30.0,23.0,0.5,19.5,8.5,2.5,6.0,7.280109889280518,6.5,33.0,42.0,47.095647357266465,233.34309503390068,235.9364321167886,232.55106965997814,222.3803048833237
233,5,832,0,27.761066666666213,2.0,83.05419917138447,5.0,10.04987562112089,23.0,23.0,28.160255680657446,45.17742799230607,35.12833614050059,34.0,27.0,24.0,2.5,19.5,7.5,5.5,7.0,9.055385138137417,8.0,35.0,42.0,46.04345773288535,233.77339455121918,236.35777964771967,235.10423220350586,225.00888871331284
234,5,833,0,27.79443333333288,1.0,81.0,4.0,10.04987562112089,23.0,24.0,28.160255680657446,43.18564576337837,33.13608305156178,32.5,25.0,25.0,3.0,18.0,6.0,6.0,8.0,8.06225774829855,8.0,36.0,39.0,44.04543109109048,237.92856070678022,241.53053637169774,239.25300416086733,228.1074308302998
235,5,834,0,27.827799999999545,1.4142135623730951,83.02409288875127,6.0,11.0,22.090722034374522,23.08679276123039,26.30589287593181,44.28317965096906,33.37663853655727,32.5,25.0,27.0,0.0,18.0,4.0,5.0,7.0710678118654755,7.0710678118654755,7.0,36.0,38.0,44.04543109109048,238.75719884434898,242.24987100099764,240.05207768315609,228.0021929719098
236,5,835,0,27.86116666666621,3.1622776601683795,82.15229759416349,6.0,11.0,23.08679276123039,24.08318915758459,25.495097567963924,39.45883931389772,28.635642126552707,29.5,21.0,26.0,1.5,15.5,1.5,7.5,7.0,8.06225774829855,7.5,35.0,37.0,39.01281840626232,240.40798655618744,244.0327846827143,241.0082986123092,229.17678765529462
237,5,836,0,27.89453333333288,1.4142135623730951,88.20430828479978,8.0,12.0,23.08679276123039,25.179356624028344,21.213203435596427,42.190046219457976,30.265491900843113,29.5,22.0,28.0,4.0,17.0,2.0,3.0,7.0710678118654755,9.219544457292887,8.0,36.0,35.0,38.01315561749642,245.246814454337,248.0020161208372,245.20399670478457,232.6972281742952
238,5,837,0,27.927899999999543,3.0,86.14522621712709,6.082762530298219,11.0,23.08679276123039,25.079872407968907,24.186773244895647,38.2099463490856,27.294688127912362,28.5,23.0,28.0,1.5,12.5,0.5,4.5,5.0,6.082762530298219,5.5,36.0,37.0,38.01315561749642,244.16592718886884,248.0020161208372,244.20483205702544,231.70023737579555
239,5,838,0,27.96126666666621,1.0,85.09406559801923,6.082762530298219,11.045361017187261,22.090722034374522,24.08318915758459,24.186773244895647,40.311288741492746,29.274562336608895,29.5,25.0,29.0,3.0,13.0,0.0,3.0,5.0990195135927845,7.0,6.5,35.0,36.0,37.013511046643494,242.3489220112192,244.0327846827143,242.05164738129753,228.31557108528537
240,5,839,0,27.994633333332875,2.0,83.21658488546619,7.0,11.0,24.08318915758459,25.179356624028344,21.587033144922902,37.33630940518894,26.476404589747453,27.0,21.0,27.0,3.0,13.0,1.0,4.0,6.0,7.0710678118654755,6.5,35.0,35.0,40.11234224026316,245.20399670478457,248.0020161208372,246.24581214713075,231.78006816808042
241,5,840,0,28.02799999999954,1.0,90.19977827023745,8.0,13.038404810405298,23.08679276123039,25.079872407968907,19.235384061671343,39.20459156782532,26.1725046566048,26.5,19.0,25.0,3.0,17.0,2.0,5.0,6.082762530298219,7.0710678118654755,6.5,36.0,35.0,39.05124837953327,247.2023462671825,251.00796800101784,249.24285345822858,235.61409125941512
242,5,841,0,28.061366666666206,3.0,83.09632964216891,7.0710678118654755,11.045361017187261,24.08318915758459,25.079872407968907,20.396078054371138,35.510561809129406,24.515301344262525,25.5,21.0,25.0,3.0,12.0,2.0,4.0,8.0,8.06225774829855,7.5,37.0,35.0,41.19465984809196,248.2438317461282,249.0020080240318,245.05101509685693,230.31283073246266
243,5,842,0,28.094733333332872,2.23606797749979,85.21150157109074,5.0,11.0,22.20360331117452,23.194827009486403,23.345235059857504,37.33630940518894,26.476404589747453,27.0,22.0,28.0,2.0,12.0,2.0,3.0,8.06225774829855,9.219544457292887,8.0,37.0,35.0,41.19465984809196,243.24884377936928,247.01821795163207,244.05122413132864,228.26519664635694
244,5,843,0,28.12809999999953,2.23606797749979,86.14522621712709,6.0,11.0,22.090722034374522,22.20360331117452,21.37755832643195,36.345563690772494,25.495097567963924,26.0,21.0,26.0,2.5,12.5,1.5,3.5,8.06225774829855,9.055385138137417,8.5,35.0,35.0,42.04759208325728,240.25195108468944,244.00819658363937,241.05186163977245,229.2640399190418
245,5,844,0,28.161466666666204,3.1622776601683795,87.14355971613737,6.0,11.045361017187261,23.08679276123039,24.08318915758459,24.331050121192877,38.47076812334269,27.459060435491963,28.5,23.0,28.0,1.5,12.5,1.5,4.5,7.0710678118654755,8.06225774829855,7.5,37.0,36.0,43.04648650006177,242.20652344641752,246.0081299469593,243.10080213771406,230.31283073246266
246,5,845,0,28.19483333333287,0.0,84.29116205154607,5.0,11.045361017187261,22.090722034374522,24.186773244895647,23.53720459187964,39.45883931389772,28.442925306655784,28.0,21.0,28.0,1.5,14.5,0.5,3.5,9.055385138137417,8.06225774829855,8.0,36.0,34.0,43.104524124504614,243.29611587528478,247.01821795163207,243.01851781294363,230.21728866442677
247,5,846,0,28.228199999999536,1.0,81.09870529176159,7.0,12.0,21.02379604162864,21.095023109728988,22.561028345356956,40.311288741492746,28.442925306655784,28.5,22.0,26.0,2.0,16.0,1.0,4.0,8.06225774829855,9.055385138137417,8.5,37.0,35.0,44.10215414239989,239.1693960355296,242.00826432169626,239.0334704596827,226.2211307548435
248,5,847,0,28.2615666666662,1.0,81.15417426109393,7.0,12.041594578792296,24.020824298928627,24.08318915758459,23.53720459187964,43.41658669218482,31.400636936215164,30.5,26.0,31.0,5.5,14.5,0.5,0.5,8.06225774829855,9.055385138137417,8.5,36.0,34.0,44.10215414239989,236.4148895480147,240.05207768315609,238.00840321299583,226.2211307548435
249,5,848,0,28.294933333332867,3.0,78.16009211867653,8.0,13.0,21.095023109728988,22.090722034374522,24.515301344262525,42.2965719651132,29.427877939124322,30.5,26.0,31.0,4.5,13.5,1.5,3.5,10.04987562112089,9.055385138137417,9.0,36.0,36.0,43.104524124504614,246.0995733437992,247.00809703327542,241.16799124261908,226.497240601293
250,5,849,0,28.328299999999533,1.0,80.15609770940699,5.0,11.0,21.02379604162864,21.02379604162864,28.160255680657446,43.104524124504614,32.14031735997639,32.5,24.0,29.0,1.5,16.5,3.5,6.5,9.055385138137417,10.198039027185569,9.0,36.0,35.0,45.044422518220834,242.404620418011,246.05080776132397,241.03319273494262,226.2675407565124
251,5,850,0,28.3616666666662,1.0,75.05997601918082,4.123105625617661,12.0,20.024984394500787,20.024984394500787,28.071337695236398,45.09988913511872,33.13608305156178,32.5,26.0,29.0,0.5,17.5,3.5,4.5,8.06225774829855,8.246211251235321,7.5,36.0,37.0,44.01136216933077,245.09997960016236,249.0020080240318,245.16525039246488,228.42942017174582
252,5,851,0,28.395033333332865,1.4142135623730951,72.17340230306452,3.1622776601683795,11.0,19.026297590440446,20.09975124224178,29.068883707497267,44.181444068749045,33.24154027718932,32.5,28.0,33.0,1.5,13.5,0.5,1.5,10.04987562112089,10.04987562112089,9.0,37.0,36.0,40.049968789001575,242.7447218787671,247.2023462671825,244.00819658363937,230.0347799790284
253,5,852,0,28.42839999999953,1.0,76.05918747922567,5.0,12.0,20.09975124224178,21.095023109728988,29.274562336608895,46.2709412050371,34.36568055487916,34.0,29.0,32.0,1.5,15.5,1.5,3.5,10.04987562112089,12.165525060596439,10.5,38.0,38.0,42.04759208325728,248.39484696748443,249.0501957437496,245.0081631293129,231.21634890292685
254,5,853,0,28.4617666666662,1.4142135623730951,74.02702209328699,5.0,11.045361017187261,20.024984394500787,22.02271554554524,29.154759474226502,44.28317965096906,33.24154027718932,33.5,26.0,28.0,2.0,17.0,3.0,6.0,9.055385138137417,9.055385138137417,8.0,37.0,38.0,42.1070065428546,251.9622987670973,252.23996511258878,247.00809703327542,233.0772404161333
255,5,854,0,28.495133333332863,8.06225774829855,83.05419917138447,5.0,12.0,23.08679276123039,24.08318915758459,28.071337695236398,53.08483775994799,41.10960958218893,37.0,28.0,31.0,1.5,23.5,9.5,3.5,9.219544457292887,9.055385138137417,8.5,38.0,38.0,46.04345773288535,229.42754847663784,234.07691043757393,233.00214591286493,220.11133546457802
256,5,855,0,28.52849999999953,2.8284271247461903,83.02409288875127,7.0,13.0,23.021728866442675,25.019992006393608,27.16615541441225,49.25444142409901,36.345563690772494,35.0,28.0,30.0,2.0,20.0,5.0,4.0,10.04987562112089,11.045361017187261,10.0,36.0,37.0,44.04543109109048,231.42385356743154,237.10335299189677,236.0,224.0803427344755
257,5,856,0,28.561866666666194,3.1622776601683795,84.09518416651456,6.0,15.0,23.021728866442675,25.079872407968907,28.160255680657446,52.15361924162119,37.21558813185679,35.5,27.0,31.0,1.0,23.0,6.0,5.0,5.0,7.0710678118654755,6.0,37.0,38.0,40.01249804748511,244.24782496472716,250.0319979522621,248.05039810490126,234.30749027719963
258,5,857,0,28.59523333333286,3.1622776601683795,83.05419917138447,6.0,14.035668847618199,22.0,24.020824298928627,26.476404589747453,49.49747468305833,35.510561809129406,33.5,26.0,29.0,1.5,21.5,5.5,3.5,4.123105625617661,5.0,4.5,38.0,40.0,43.01162633521314,246.0995733437992,249.0180716333656,245.246814454337,231.5534495532295
259,5,858,0,28.62859999999953,5.0990195135927845,81.00617260431454,6.082762530298219,13.0,22.02271554554524,24.0,27.294688127912362,51.35172830587107,38.47076812334269,35.5,27.0,28.0,0.5,23.5,8.5,4.5,5.0,6.0,6.0,36.0,38.0,45.044422518220834,238.6063704095094,244.16592718886884,242.0185943269649,231.03462943896528
260,5,859,0,28.661966666666192,7.0,88.02272433866155,6.082762530298219,13.038404810405298,22.02271554554524,25.079872407968907,26.076809620810597,52.15361924162119,39.11521443121589,35.5,24.0,26.0,1.0,27.0,10.0,6.0,5.0,6.0,5.5,38.0,41.0,42.01190307520001,242.404620418011,245.05101509685693,242.0185943269649,231.17525819170183
261,5,860,0,28.69533333333285,5.385164807134504,85.05292469985967,6.0,12.041594578792296,24.08318915758459,25.079872407968907,28.160255680657446,51.35172830587107,39.319206502675,36.5,26.0,29.0,0.5,23.5,8.5,5.5,4.0,4.123105625617661,4.0,37.0,38.0,43.104524124504614,246.17270360460358,252.44603383693712,252.07141845120006,241.0186714758838
262,5,861,0,28.728699999999524,3.0,87.20665112249179,8.0,15.033296378372908,23.08679276123039,25.079872407968907,27.294688127912362,53.23532661682466,38.2099463490856,36.5,25.0,31.0,1.0,25.0,6.0,7.0,5.0,6.082762530298219,5.0,40.0,39.0,45.044422518220834,237.21087664776252,244.0184419260151,244.0184419260151,233.21449354617735
263,5,862,0,28.76206666666619,8.06225774829855,87.20665112249179,8.0,16.0,25.079872407968907,28.071337695236398,26.476404589747453,58.309518948453004,42.42640687119285,38.0,27.0,33.0,4.0,28.0,9.0,4.0,6.082762530298219,7.0,7.0,40.0,38.0,44.04543109109048,240.3518254559345,243.0740627874558,241.0020746798666,232.07757323791543
264,5,863,0,28.795433333332856,7.0710678118654755,88.14193099768123,8.0,17.029386365926403,25.019992006393608,28.071337695236398,27.294688127912362,59.30430001273095,42.2965719651132,38.5,28.0,33.0,3.5,28.5,8.5,3.5,8.246211251235321,8.0,7.5,43.0,41.0,45.044422518220834,241.16799124261908,245.0081631293129,241.05186163977245,229.31419493786248
265,5,864,0,28.82879999999952,11.0,87.20665112249179,8.0,15.0,24.08318915758459,27.073972741361768,27.294688127912362,61.1310068623117,46.17358552246078,40.5,26.0,32.0,2.0,32.0,13.0,5.0,7.0710678118654755,9.0,8.0,47.0,42.0,47.095647357266465,239.1693960355296,243.00823031329617,242.03305559365234,232.2154172315008
266,5,865,0,28.862166666666187,9.0,89.27485648266257,7.0710678118654755,13.038404810405298,25.079872407968907,27.16615541441225,27.294688127912362,56.0357029044876,43.104524124504614,38.5,27.0,34.0,3.5,25.5,8.5,3.5,6.324555320336759,6.0,6.0,50.0,43.0,48.093658625644196,239.07530194480566,242.24987100099764,241.40629652103112,232.62201099638014
267,5,866,0,28.895533333332853,8.06225774829855,87.46427842267951,6.0,13.038404810405298,24.186773244895647,26.076809620810597,26.0,53.03772242470448,40.01249804748511,36.0,23.0,32.0,1.5,25.5,10.5,4.5,9.219544457292887,8.0,8.0,51.0,43.0,50.15974481593781,238.03361107205006,242.20652344641752,241.46635376383188,231.70023737579555
268,5,867,0,28.92889999999952,1.4142135623730951,87.69264507357501,6.0,13.0,24.186773244895647,25.317977802344327,26.076809620810597,46.010868281309364,33.015148038438355,32.5,22.0,33.0,1.5,18.5,2.5,4.5,8.06225774829855,8.06225774829855,8.0,52.0,41.0,51.15662224971465,242.03305559365234,248.2438317461282,246.45689278249046,236.76359517459605
269,5,868,0,28.962266666666185,2.0,89.94442728707543,6.0,12.041594578792296,23.345235059857504,25.317977802344327,28.0178514522438,46.04345773288535,34.0147027033899,34.0,21.0,34.0,0.5,18.5,3.5,6.5,8.246211251235321,8.0,7.5,52.0,41.0,49.16299421312742,244.07375934335914,247.29132617218906,245.58908770545975,236.93247983339052
270,5,869,0,28.99563333333285,3.1622776601683795,91.0823802938856,7.0710678118654755,12.165525060596439,26.30589287593181,27.294688127912362,27.0,49.16299421312742,37.05401462729781,35.5,19.0,33.0,1.0,23.0,8.0,8.0,8.54400374531753,7.0,6.5,50.0,38.0,52.3450093132096,238.30232898568156,241.74780247191492,242.09502266672067,234.44615586526473
271,5,870,0,29.02899999999952,1.0,89.10667763978185,7.0710678118654755,12.165525060596439,25.317977802344327,26.476404589747453,29.017236257093817,48.25971404805462,36.124783736376884,36.0,19.0,33.0,3.0,22.0,5.0,10.0,8.54400374531753,7.0710678118654755,6.5,51.0,36.0,50.35871324805669,238.41140912296962,241.74780247191492,242.00206610688264,232.34887561595818
272,5,871,0,29.062366666666183,1.4142135623730951,88.95504482602435,7.0710678118654755,14.035668847618199,24.331050121192877,25.317977802344327,27.0,47.095647357266465,33.06055050963308,33.5,20.0,33.0,0.5,20.5,3.5,7.5,9.486832980505138,9.055385138137417,8.5,52.0,37.0,51.35172830587107,236.76359517459605,241.09956449566639,241.29857024027308,230.471256342304
273,5,872,0,29.09573333333285,1.4142135623730951,92.07062506576133,8.06225774829855,13.038404810405298,24.331050121192877,25.495097567963924,28.0,48.093658625644196,35.05709628591621,35.5,21.0,35.0,0.0,20.0,3.0,8.0,8.54400374531753,7.0710678118654755,7.0,51.0,35.0,51.35172830587107,238.3149177034455,242.7385424690525,242.98559628093184,235.1871595134394
274,5,873,0,29.129099999999514,2.23606797749979,86.49277426467485,8.06225774829855,14.142135623730951,24.515301344262525,24.331050121192877,30.01666203960727,51.15662224971465,37.05401462729781,37.5,22.0,38.0,0.0,21.0,3.0,9.0,7.615773105863909,8.06225774829855,7.5,51.0,36.0,51.478150704935004,236.1228493814184,239.64139876073165,239.28643923131122,230.37577997697588
275,5,874,0,29.16246666666618,4.123105625617661,88.28363381737297,7.0710678118654755,13.038404810405298,25.317977802344327,27.459060435491963,29.017236257093817,53.03772242470448,40.01249804748511,38.0,24.0,39.0,2.5,21.5,4.5,4.5,8.54400374531753,8.246211251235321,7.5,52.0,34.0,51.62363799656123,234.85314560380067,238.2120903732638,235.44001359157284,226.497240601293
276,5,875,0,29.19583333333285,8.06225774829855,89.44271909999159,7.0710678118654755,12.165525060596439,25.495097567963924,26.476404589747453,29.0,56.142675390472796,44.04543109109048,40.0,24.0,40.0,3.0,24.0,8.0,5.0,8.54400374531753,9.055385138137417,8.5,52.0,35.0,51.478150704935004,234.23279018958897,237.65521244020718,234.7977853387889,225.86943130932968
277,5,876,0,29.229199999999512,7.0710678118654755,89.62700485902673,8.06225774829855,13.152946437965905,25.495097567963924,25.709920264364882,28.0178514522438,56.22277118748239,43.104524124504614,39.5,23.0,40.0,3.5,24.5,6.5,5.5,6.708203932499369,8.0,7.5,50.0,35.0,54.45181356024793,239.64139876073165,243.24884377936928,240.55976388415417,231.36551169091732
278,5,877,0,29.26256666666617,8.0,91.2414379544733,7.280109889280518,13.152946437965905,27.294688127912362,28.442925306655784,30.01666203960727,58.077534382926416,45.0111097397076,41.0,25.0,40.0,2.5,25.5,8.5,4.5,7.615773105863909,8.06225774829855,8.0,51.0,34.0,52.46903848937962,237.32045845227924,239.64139876073165,235.91523901605,227.72790781983662
279,5,878,0,29.295933333332844,7.0710678118654755,93.38094023943002,7.0710678118654755,14.317821063276353,26.476404589747453,28.442925306655784,29.0,57.21887800367987,43.04648650006177,39.5,22.0,38.0,1.0,27.0,9.0,7.0,7.280109889280518,8.06225774829855,7.5,49.0,34.0,52.46903848937962,238.42189496772312,238.89118861942146,235.32530675641326,225.5770378385176
280,5,879,0,29.32929999999951,10.198039027185569,92.07062506576133,8.06225774829855,14.142135623730951,27.294688127912362,28.284271247461902,26.019223662515376,58.137767414994535,44.04543109109048,39.0,22.0,36.0,3.0,29.0,11.0,5.0,7.615773105863909,8.06225774829855,8.0,49.0,34.0,51.478150704935004,241.19701490690136,242.5077318355025,238.76766950322232,228.84492565927695
281,5,880,0,29.362666666666176,6.082762530298219,92.07062506576133,7.280109889280518,13.152946437965905,25.317977802344327,27.459060435491963,29.017236257093817,55.14526271584895,42.04759208325728,39.0,23.0,37.0,1.0,25.0,8.0,6.0,6.708203932499369,7.0710678118654755,6.5,50.0,35.0,50.48762224545735,246.272207120495,246.71035649116962,243.11519903124116,233.3452377915607
282,5,881,0,29.39603333333284,4.123105625617661,91.0823802938856,7.0710678118654755,14.035668847618199,26.30589287593181,27.459060435491963,28.0178514522438,53.03772242470448,39.01281840626232,37.0,22.0,36.0,1.0,24.0,6.0,7.0,6.324555320336759,7.0,7.0,50.0,36.0,50.48762224545735,246.6576574931336,248.16325271885037,242.62110378118388,232.93990641364996
283,5,882,0,29.429399999999507,7.0710678118654755,93.90420650854784,7.0710678118654755,14.142135623730951,26.30589287593181,27.294688127912362,27.018512172212592,55.08175741568164,41.012193308819754,37.5,20.0,33.0,0.5,28.5,11.5,8.5,8.54400374531753,9.055385138137417,8.0,50.0,35.0,50.35871324805669,245.89835298350414,248.26195842295292,243.50154003619772,233.68354670365648
284,5,883,0,29.462766666666173,8.06225774829855,93.64827814754524,6.082762530298219,14.035668847618199,26.1725046566048,27.16615541441225,27.018512172212592,55.036351623268054,41.012193308819754,37.0,20.0,31.0,1.5,29.5,12.5,7.5,8.54400374531753,8.06225774829855,7.5,51.0,37.0,52.3450093132096,252.50742563338608,253.78928267363852,248.8875247978492,238.1134183535233
285,5,884,0,29.49613333333284,7.0710678118654755,96.74709297958259,7.0,15.033296378372908,25.317977802344327,27.294688127912362,26.019223662515376,55.00909015790027,40.0,36.5,18.0,30.0,2.0,31.0,12.0,10.0,7.615773105863909,8.0,7.0,51.0,36.0,51.24451190127583,253.33377192944488,254.568261965234,249.72384747957094,238.92467432226417
286,5,885,0,29.529499999999505,4.123105625617661,94.64142856064674,7.0710678118654755,13.038404810405298,24.331050121192877,26.1725046566048,27.073972741361768,51.0098029794274,38.0,36.0,18.0,29.0,3.5,27.5,10.5,10.5,7.615773105863909,8.0,7.5,52.0,37.0,51.35172830587107,258.37956575549856,258.7740327003465,254.043303395307,242.3984323381651
287,5,886,0,29.56286666666617,2.23606797749979,99.72462083156798,7.0710678118654755,13.038404810405298,26.30589287593181,27.294688127912362,29.154759474226502,51.0,38.01315561749642,37.0,20.0,32.0,3.0,25.0,8.0,10.0,8.54400374531753,8.0,8.0,52.0,37.0,52.3450093132096,264.27258654654287,264.61292485439935,258.93628559937287,248.26195842295292
288,5,887,0,29.59623333333284,2.23606797749979,99.29753269845128,5.0990195135927845,11.180339887498949,26.476404589747453,27.459060435491963,28.160255680657446,42.01190307520001,31.016124838541646,32.0,15.0,31.0,5.0,19.0,4.0,11.0,9.486832980505138,9.0,8.5,53.0,38.0,51.478150704935004,264.18932605235966,266.54267950930483,260.9291091465266,249.35917869611296
289,5,888,0,29.629599999999503,1.4142135623730951,102.95630140987001,5.0990195135927845,11.045361017187261,27.459060435491963,28.442925306655784,26.076809620810597,41.012193308819754,30.0,30.5,16.0,30.0,3.0,18.0,4.0,9.0,9.486832980505138,9.0,8.5,53.0,38.0,52.61178575186362,271.1844390815963,272.5307322119838,267.8245694479877,256.2225595063791
290,5,889,0,29.66296666666617,3.1622776601683795,103.81714694596457,6.0,14.035668847618199,27.459060435491963,29.427877939124322,23.194827009486403,46.010868281309364,32.0624390837628,30.5,14.0,27.0,2.5,25.5,7.5,9.5,9.219544457292887,11.0,10.0,51.0,35.0,48.507731342539614,263.32109676210905,264.5467822522134,260.76809620810593,247.07286374670934
291,5,890,0,29.696333333332834,2.0,104.6900186264192,6.082762530298219,13.038404810405298,27.294688127912362,29.427877939124322,23.194827009486403,44.01136216933077,31.064449134018133,30.0,14.0,26.0,3.0,24.0,7.0,9.0,9.219544457292887,10.0,9.5,51.0,35.0,47.67598976424087,265.1527861441399,267.36678926149375,265.6106172576691,252.9584946191766
292,5,891,0,29.7296999999995,3.0,106.92053123698928,6.082762530298219,15.033296378372908,27.459060435491963,30.4138126514911,23.345235059857504,47.042533945356304,32.14031735997639,30.5,14.0,28.0,2.0,26.0,7.0,9.0,9.486832980505138,10.0,9.5,52.0,36.0,44.553338819890925,268.06715576511795,270.22398117117586,267.4210163767986,254.70963860835735
293,5,892,0,29.76306666666617,3.0,109.89540481748998,5.0990195135927845,12.041594578792296,28.442925306655784,30.4138126514911,23.345235059857504,43.04648650006177,31.144823004794873,29.5,13.0,27.0,3.0,23.0,8.0,9.0,9.486832980505138,9.0,8.0,54.0,37.0,50.635955604688654,279.1146717748818,277.46170906991836,271.8124353299532,259.3067681338071
294,5,893,0,29.796433333332832,5.0,109.89540481748998,6.082762530298219,11.0,28.442925306655784,30.59411708155671,22.360679774997898,44.10215414239989,33.13608305156178,30.5,13.0,27.0,2.0,24.0,9.0,8.0,9.486832980505138,10.0,9.5,53.0,36.0,49.64876634922564,283.0635970943632,282.29948636155893,276.65321252427196,264.003787851614
295,5,894,0,29.82979999999949,1.4142135623730951,110.8873302050329,5.0990195135927845,13.038404810405298,29.614185789921695,30.59411708155671,24.186773244895647,43.0,30.01666203960727,29.5,14.0,28.0,3.0,22.0,5.0,9.0,8.54400374531753,9.0,8.0,49.0,33.0,51.478150704935004,278.1150840928985,279.5174413162799,276.9566753122228,261.50334605889844
296,5,895,0,29.863166666666164,6.0,107.91200118615167,5.0,15.033296378372908,29.427877939124322,31.400636936215164,25.317977802344327,51.088159097779204,36.22154055254967,33.0,17.0,31.0,1.0,27.0,7.0,7.0,9.219544457292887,9.0,8.5,50.0,34.0,48.662100242385755,276.04528613979267,280.25702488965374,277.5211703636319,261.84346468835156
297,5,896,0,29.89653333333283,2.0,105.92922165295089,5.0,14.035668847618199,28.284271247461902,29.427877939124322,26.1725046566048,47.042533945356304,33.13608305156178,32.0,18.0,32.0,1.0,22.0,5.0,6.0,11.180339887498949,11.0,10.5,51.0,36.0,49.25444142409901,281.0284683088174,282.25520367213784,278.4600509947522,264.7564918939666
298,5,897,0,29.92989999999949,2.23606797749979,108.04628637764465,5.0990195135927845,13.038404810405298,29.274562336608895,30.4138126514911,27.16615541441225,47.0,34.0147027033899,33.0,18.0,33.0,1.5,21.5,3.5,6.5,9.219544457292887,10.04987562112089,9.5,51.0,36.0,49.36598018878993,284.0017605579233,285.08595195133694,280.25702488965374,267.54065111679756
299,5,898,0,29.96326666666616,3.0,101.71037311896953,6.082762530298219,15.033296378372908,26.30589287593181,28.284271247461902,26.1725046566048,50.00999900019995,35.05709628591621,33.5,19.0,31.0,1.0,25.0,6.0,7.0,12.36931687685298,12.0,11.0,48.0,35.0,47.265209192385896,273.045783706689,276.2191159206763,272.4132889563209,258.69866640553056
300,5,899,0,29.996633333332827,2.0,95.75489543621255,6.082762530298219,13.038404810405298,25.317977802344327,27.459060435491963,28.071337695236398,49.0,36.013886210738214,35.0,22.0,34.0,0.0,21.0,4.0,6.0,11.40175425099138,12.0,11.5,50.0,37.0,45.39823785126467,271.0,272.04595200076034,268.2256512714621,254.4425278918601
301,5,900,0,30.029999999999493,1.0,96.62815324738438,7.0710678118654755,15.033296378372908,26.1725046566048,28.284271247461902,28.071337695236398,51.0,36.013886210738214,35.5,24.0,35.0,1.5,21.5,3.5,5.5,12.165525060596439,13.038404810405298,11.5,50.0,37.0,49.49747468305833,268.00746258266764,270.1851217221259,265.31867631209076,254.6369965264278
302,5,901,0,30.06336666666616,3.1622776601683795,96.62815324738438,7.0710678118654755,15.0,27.294688127912362,28.284271247461902,28.160255680657446,53.009433122794285,38.01315561749642,36.5,25.0,36.0,2.5,22.5,3.5,4.5,12.36931687685298,12.0,11.5,50.0,39.0,49.25444142409901,272.0073528417936,272.04595200076034,267.15164233071823,255.38402455909414
303,5,902,0,30.096733333332825,3.0,95.42536350467836,6.082762530298219,15.033296378372908,26.1725046566048,28.284271247461902,31.144823004794873,55.00909015790027,40.049968789001575,38.5,27.0,36.0,0.5,23.5,4.5,5.5,13.341664064126334,13.0,12.5,50.0,38.0,46.2709412050371,268.02984908401527,269.0018587296378,265.06791582535976,252.1983346495373
304,5,903,0,30.13009999999949,3.0,92.43916918709297,7.0,16.0312195418814,26.076809620810597,27.294688127912362,31.064449134018133,57.0087712549569,41.048751503547585,39.5,28.0,37.0,1.5,24.5,5.5,4.5,12.36931687685298,12.041594578792296,11.5,49.0,39.0,49.25444142409901,270.0296280040396,270.0018518455012,264.04734423962685,251.2866888635369
305,5,904,0,30.16346666666616,5.0990195135927845,93.53608929178085,7.0,16.0,27.294688127912362,29.427877939124322,31.144823004794873,59.033888572581766,43.04648650006177,40.5,27.0,37.0,1.0,27.0,7.0,6.0,12.36931687685298,12.0,11.5,50.0,38.0,49.36598018878993,268.00746258266764,268.02984908401527,263.1216448717209,250.28783430282823
306,5,905,0,30.196833333332822,7.0,96.33275663033837,9.0,17.0,28.071337695236398,30.14962686336267,30.066592756745816,63.0317380372777,46.04345773288535,42.5,29.0,37.0,3.0,30.0,9.0,5.0,12.36931687685298,12.0,11.5,48.0,38.0,51.24451190127583,262.1221089492453,262.32232081925474,256.4995126701024,242.7447218787671
307,5,906,0,30.23019999999949,6.082762530298219,94.42986815621421,7.0,17.0,28.160255680657446,29.154759474226502,34.132096331752024,64.03124237432849,47.042533945356304,44.0,31.0,40.0,1.5,28.5,8.5,4.5,11.180339887498949,11.045361017187261,10.0,49.0,39.0,51.15662224971465,271.01660465735307,271.0,262.0019083899963,248.05039810490126
308,5,907,0,30.263566666666154,6.0,90.35485598461214,7.0710678118654755,16.0312195418814,26.076809620810597,29.154759474226502,34.132096331752024,63.00793600809346,47.042533945356304,44.0,31.0,39.0,1.0,28.0,8.0,5.0,12.165525060596439,11.045361017187261,10.0,49.0,39.0,52.15361924162119,270.0074073057997,269.0018587296378,261.01724080987447,247.12952069714376
309,5,908,0,30.29693333333282,8.0,91.44397191723465,8.0,16.0,26.076809620810597,29.274562336608895,33.06055050963308,65.03076195155643,49.040799340956916,45.0,31.0,40.0,2.5,29.5,9.5,4.5,12.165525060596439,12.041594578792296,11.0,50.0,40.0,52.15361924162119,269.0074348414928,269.0018587296378,262.03053257206494,248.12899870833317
310,5,909,0,30.33029999999949,7.0,90.35485598461214,8.06225774829855,16.0312195418814,27.073972741361768,29.274562336608895,34.132096331752024,65.00769185258002,49.040799340956916,45.5,32.0,40.0,2.0,29.0,9.0,5.0,12.165525060596439,12.0,11.0,49.0,39.0,52.23983154643591,265.0018867857359,264.030301291348,256.09568524284043,243.24884377936928
311,5,910,0,30.363666666666152,9.0,89.35882720806042,7.0710678118654755,17.0,27.073972741361768,29.154759474226502,33.13608305156178,66.03029607687671,49.040799340956916,44.5,33.0,41.0,4.0,29.0,9.0,2.0,12.165525060596439,11.0,11.0,50.0,40.0,52.15361924162119,265.0018867857359,264.0170449043016,255.04901489713697,242.1672975444868
312,5,911,0,30.397033333332818,10.0,88.36288813749809,8.06225774829855,17.0,25.079872407968907,28.160255680657446,33.13608305156178,68.0294054067798,51.03920062069938,46.0,34.0,42.0,5.0,30.0,10.0,2.0,12.165525060596439,11.045361017187261,10.5,49.0,39.0,52.15361924162119,264.0018939326004,264.030301291348,257.09531306501873,243.24884377936928
313,5,912,0,30.430399999999484,10.0,87.36704184073076,7.0710678118654755,16.0,25.079872407968907,27.16615541441225,34.132096331752024,67.02984409947557,51.03920062069938,46.0,35.0,43.0,5.0,28.0,8.0,1.0,12.165525060596439,12.041594578792296,11.5,49.0,39.0,52.23983154643591,263.00760445279906,263.00760445279906,257.0486335306998,243.20567427590993
314,5,913,0,30.46376666666615,9.0,87.28115489611719,7.0710678118654755,16.0,25.079872407968907,27.16615541441225,35.12833614050059,67.02984409947557,51.03920062069938,46.5,36.0,43.0,4.5,27.5,7.5,1.5,13.152946437965905,13.038404810405298,12.5,50.0,40.0,52.15361924162119,261.0019157017818,263.0304164920856,256.0488234692751,244.20483205702544
315,5,914,0,30.49713333333281,11.0,87.36704184073076,7.0,16.0,25.179356624028344,27.073972741361768,33.13608305156178,67.06713054842886,51.088159097779204,45.5,33.0,41.0,4.0,30.0,10.0,3.0,12.36931687685298,12.0,11.5,49.0,40.0,48.25971404805462,263.0304164920856,264.0018939326004,256.0703028466987,243.34748817277733
316,5,915,0,30.53049999999948,10.0,87.20665112249179,8.0,16.0,24.08318915758459,26.076809620810597,33.13608305156178,67.06713054842886,51.088159097779204,46.0,35.0,41.0,5.0,29.0,9.0,2.0,13.152946437965905,12.0,11.5,48.0,40.0,50.24937810560445,258.0310058888272,260.0,253.04940229133123,240.20824298928628
317,5,916,0,30.563866666666147,11.045361017187261,86.20904824900923,8.0,17.0,26.019223662515376,27.073972741361768,33.13608305156178,69.1158447825099,52.15361924162119,46.5,36.0,42.0,6.0,30.0,10.0,1.0,12.36931687685298,12.0,12.0,47.0,40.0,53.150729063673246,259.0077218926108,260.0076921939041,254.09643838511394,240.29981273400944
318,5,917,0,30.597233333332813,11.0,82.21921916437786,6.0,15.0,22.02271554554524,25.079872407968907,35.12833614050059,67.06713054842886,52.08646657242167,46.5,37.0,43.0,5.0,27.0,9.0,0.0,12.165525060596439,12.0,11.0,47.0,41.0,51.088159097779204,262.0686932847951,264.0170449043016,257.00778198334774,241.1016383187804
319,5,918,0,30.63059999999948,12.0,84.29116205154607,7.0710678118654755,16.0312195418814,25.019992006393608,27.16615541441225,34.132096331752024,69.18092222571191,53.150729063673246,47.0,40.0,47.0,9.5,25.5,6.5,3.5,11.045361017187261,10.0,9.5,46.0,40.0,50.08991914547278,261.00766272276377,262.03053257206494,256.1952380509833,243.52617929085162
320,5,919,0,30.663966666666145,12.0,85.21150157109074,7.0710678118654755,16.0,25.079872407968907,26.076809620810597,34.132096331752024,69.1158447825099,53.150729063673246,47.0,40.0,46.0,9.0,26.0,7.0,3.0,11.045361017187261,11.0,10.5,45.0,39.0,51.088159097779204,258.0174412709342,260.0173071162764,254.19677417308034,244.4606307772276
321,5,920,0,30.69733333333281,14.035668847618199,82.15229759416349,6.0,16.0,23.021728866442675,26.076809620810597,34.058772731852805,70.06425622241343,54.08326913195984,47.0,37.0,42.0,5.5,30.5,11.5,0.5,12.165525060596439,12.041594578792296,11.5,48.0,41.0,52.23983154643591,257.09531306501873,258.0174412709342,251.00796800101784,237.0759372015642
322,5,921,0,30.73069999999948,15.033296378372908,85.09406559801923,6.0,16.0,23.021728866442675,26.019223662515376,35.22782990761707,72.17340230306452,56.22277118748239,48.5,39.0,43.0,6.0,31.0,12.0,1.0,13.038404810405298,13.038404810405298,12.5,45.0,40.0,50.15974481593781,254.00787389370433,256.00781238079435,254.09643838511394,240.25195108468944
323,5,922,0,30.764066666666142,8.06225774829855,82.09750300709517,7.0,16.0,23.021728866442675,25.019992006393608,35.12833614050059,66.12110101926616,50.15974481593781,46.0,38.0,42.0,5.0,26.0,7.0,1.0,12.165525060596439,12.041594578792296,11.5,46.0,41.0,48.16637831516918,257.12448347055556,259.0077218926108,255.01764644824092,244.10038918445008
324,5,923,0,30.79743333333281,5.0990195135927845,86.00581375697809,9.0,17.0,26.0,27.018512172212592,33.13608305156178,64.1248781675256,47.16990566028302,44.5,38.0,39.0,5.5,25.5,6.5,1.5,12.165525060596439,12.041594578792296,12.0,46.0,42.0,49.09175083453431,262.0477055804916,263.0,258.0310058888272,247.12952069714376
325,5,924,0,30.83079999999948,3.605551275463989,84.02380615040002,8.06225774829855,15.0,23.0,25.019992006393608,36.124783736376884,62.12889826803627,47.16990566028302,45.5,39.0,41.0,4.0,22.0,4.0,2.0,13.038404810405298,14.035668847618199,13.0,45.0,41.0,49.16299421312742,251.24092023394596,254.03149411047443,253.00790501484337,244.10038918445008
326,5,925,0,30.86416666666614,5.0990195135927845,81.02468759581859,6.082762530298219,14.0,22.02271554554524,24.020824298928627,35.05709628591621,60.03332407921454,46.04345773288535,43.5,37.0,39.0,3.0,22.0,6.0,2.0,13.038404810405298,13.038404810405298,13.0,46.0,41.0,49.09175083453431,253.09681941897256,254.00787389370433,252.01785651020842,241.13274352522097
327,5,926,0,30.89753333333281,5.0,84.02380615040002,8.0,15.033296378372908,24.020824298928627,26.0,34.132096331752024,62.12889826803627,47.095647357266465,44.5,38.0,40.0,5.0,23.0,6.0,2.0,12.041594578792296,13.0,12.5,44.0,41.0,51.088159097779204,246.03251817595168,252.00198411917316,251.07170290576354,242.24987100099764
328,5,927,0,30.930899999999472,3.0,86.05230967266364,9.0,14.0,24.020824298928627,25.019992006393608,33.13608305156178,59.07622195096772,45.09988913511872,43.5,36.0,39.0,4.5,21.5,4.5,3.5,11.045361017187261,12.041594578792296,11.5,43.0,41.0,50.08991914547278,244.00204917172314,250.0319979522621,251.19912420229494,242.404620418011
329,5,928,0,30.964266666666138,6.0,83.02409288875127,9.0,15.0,22.02271554554524,24.0,33.06055050963308,63.0317380372777,48.041648597857254,45.0,38.0,40.0,6.0,24.0,7.0,2.0,13.038404810405298,13.038404810405298,12.5,43.0,41.0,50.08991914547278,241.0,246.03251817595168,248.2438317461282,239.47024867402632
330,5,929,0,30.997633333332804,5.0990195135927845,84.02380615040002,9.0,16.0,23.0,25.019992006393608,32.14031735997639,62.12889826803627,46.17358552246078,43.5,38.0,40.0,7.0,23.0,4.0,1.0,11.180339887498949,12.0,11.5,43.0,41.0,50.039984012787215,250.01799935204664,253.03161857759991,252.1983346495373,242.46443038103547
331,5,930,0,31.03099999999947,4.123105625617661,87.05170877128145,9.0,13.038404810405298,22.02271554554524,24.020824298928627,32.14031735997639,58.077534382926416,45.17742799230607,43.0,34.0,37.0,3.5,22.5,6.5,4.5,10.198039027185569,10.04987562112089,9.5,42.0,41.0,47.042533945356304,244.00819658363937,250.0319979522621,249.24285345822858,239.40969069776602
332,5,931,0,31.06436666666613,1.4142135623730951,86.00581375697809,6.0,11.0,21.02379604162864,22.0,35.05709628591621,51.088159097779204,40.11234224026316,40.5,36.0,37.0,1.5,14.5,1.5,3.5,9.055385138137417,9.055385138137417,8.0,40.0,38.0,48.041648597857254,253.00790501484337,254.04920783186867,251.16130275183716,240.25195108468944
333,5,932,0,31.0977333333328,1.0,86.00581375697809,5.0,10.0,21.02379604162864,23.021728866442675,35.014282800023196,50.039984012787215,40.049968789001575,40.0,37.0,38.0,2.5,12.5,1.5,1.5,12.0,11.045361017187261,10.5,41.0,41.0,46.04345773288535,251.0019920239678,252.07141845120006,250.1619475459847,241.29857024027308
334,5,933,0,31.131099999999467,1.4142135623730951,86.00581375697809,6.0,12.041594578792296,22.0,23.0,34.058772731852805,53.03772242470448,41.10960958218893,40.5,38.0,37.0,3.5,15.5,1.5,1.5,11.045361017187261,11.0,10.0,40.0,40.0,47.0,240.00208332429116,245.05101509685693,246.16457909293123,237.30360300678117
335,5,934,0,31.164466666666133,1.0,85.0235261559999,6.0,13.0,22.0,22.02271554554524,36.013886210738214,55.036351623268054,42.04759208325728,42.0,39.0,41.0,4.0,15.0,0.0,1.0,11.045361017187261,10.0,9.5,39.0,39.0,46.010868281309364,242.03305559365234,243.29611587528478,240.53274205396653,233.69424468736923
336,5,935,0,31.1978333333328,0.0,78.10249675906654,5.0990195135927845,12.041594578792296,20.09975124224178,20.09975124224178,37.013511046643494,54.00925846556311,42.0,42.0,38.0,42.0,3.0,14.0,0.0,2.0,11.045361017187261,13.0,12.5,38.0,37.0,49.040799340956916,233.01931250435015,236.25621684941964,237.60892239139505,232.86047324524614
337,5,936,0,31.231199999999465,5.0990195135927845,78.05767098754612,6.082762530298219,12.0,19.1049731745428,21.02379604162864,35.014282800023196,58.008620049092706,46.010868281309364,43.5,42.0,45.0,8.5,14.5,0.5,2.5,12.041594578792296,13.038404810405298,12.5,39.0,39.0,48.041648597857254,229.0349318335524,235.17227727774377,237.41314201197878,230.5558500667463
338,5,937,0,31.26456666666613,10.0,77.05841939723393,7.0,13.038404810405298,19.026297590440446,21.095023109728988,34.0147027033899,64.03124237432849,51.0098029794274,46.0,43.0,46.0,10.5,19.5,3.5,4.5,13.038404810405298,13.038404810405298,12.5,40.0,40.0,49.01020301937138,226.00884938426637,231.1384866265244,233.36237914453991,226.497240601293
339,5,938,0,31.2979333333328,11.045361017187261,75.02666192761077,6.0,13.038404810405298,19.026297590440446,21.02379604162864,35.014282800023196,65.06919393998976,52.03844732503075,46.5,45.0,47.0,11.0,19.0,4.0,5.0,13.038404810405298,14.035668847618199,13.0,39.0,39.0,46.010868281309364,227.00881040171106,233.10512649875378,235.25730594393875,229.42754847663784
340,5,939,0,31.331299999999462,8.06225774829855,77.02596964660685,6.082762530298219,13.0,20.0,21.02379604162864,33.06055050963308,60.03332407921454,47.042533945356304,43.0,43.0,45.0,11.0,16.0,2.0,5.0,13.038404810405298,13.038404810405298,13.0,38.0,38.0,46.010868281309364,221.03619613086,227.17834403833479,230.31283073246266,221.38202275704322
341,5,940,0,31.36466666666613,10.04987562112089,77.00649323271382,7.0,13.038404810405298,20.024984394500787,22.0,33.0,63.0,50.00999900019995,45.0,45.0,46.0,12.5,17.5,2.5,5.5,13.038404810405298,13.038404810405298,13.0,39.0,39.0,49.01020301937138,231.0,236.05296015936761,237.17082451262846,228.31557108528537
342,5,941,0,31.3980333333328,10.0,76.05918747922567,7.0,14.0,20.024984394500787,22.02271554554524,34.0147027033899,65.00769185258002,51.0098029794274,46.0,44.0,47.0,11.5,19.5,3.5,4.5,13.038404810405298,14.035668847618199,13.0,37.0,38.0,49.01020301937138,222.08106627986098,228.26519664635694,231.48650068632512,225.5681715136247
343,5,942,0,31.43139999999946,11.045361017187261,72.17340230306452,6.0,12.0,20.024984394500787,22.090722034374522,34.058772731852805,63.071388124885914,51.088159097779204,45.5,42.0,47.0,10.5,18.5,3.5,4.5,13.038404810405298,13.0,13.0,38.0,39.0,47.0,225.00222221124838,225.14217730136662,225.37524265100637,219.58369702689677
344,5,943,0,31.46476666666613,11.045361017187261,72.11102550927978,5.0,11.0,19.026297590440446,19.026297590440446,34.0147027033899,61.032778078668514,50.039984012787215,44.5,43.0,47.0,11.0,16.0,3.0,5.0,13.038404810405298,13.0,12.5,37.0,37.0,47.01063709417264,230.00869548780108,230.13908837917995,228.3703133071372,220.51077071199947
345,5,944,0,31.49813333333279,11.045361017187261,73.17103251970687,6.0,13.0,20.024984394500787,20.09975124224178,33.06055050963308,63.00793600809346,50.00999900019995,44.5,41.0,46.0,10.5,19.5,4.5,4.5,12.041594578792296,13.0,12.5,36.0,36.0,45.0,228.00877176108818,229.17678765529462,228.3703133071372,221.5784285529618
346,5,945,0,31.531499999999458,11.0,74.10802925459562,7.0,14.0,20.024984394500787,22.02271554554524,32.01562118716424,64.00781202322104,50.00999900019995,44.5,43.0,47.0,13.0,19.0,3.0,6.0,12.041594578792296,13.038404810405298,12.0,38.0,37.0,47.042533945356304,233.13729860320507,235.47823678633233,233.77339455121918,226.07299706068392
347,5,946,0,31.564866666666124,10.0,84.2140130857092,9.0,15.0,22.090722034374522,24.08318915758459,31.064449134018133,65.03076195155643,50.039984012787215,45.0,40.0,46.0,12.0,22.0,5.0,3.0,11.045361017187261,12.0,11.5,39.0,38.0,46.04345773288535,229.0785891348207,229.36869882353173,229.78685776170926,223.98660674245681
348,5,947,0,31.59823333333279,12.041594578792296,78.05767098754612,7.0,14.0,21.02379604162864,22.02271554554524,33.015148038438355,66.03029607687671,52.03844732503075,46.0,45.0,48.0,13.5,19.5,4.5,6.5,12.041594578792296,13.0,12.5,38.0,38.0,47.01063709417264,225.10886255321003,228.31557108528537,229.55827146935917,224.64416306683776
349,5,948,0,31.63159999999945,11.045361017187261,77.10382610480494,6.0,13.038404810405298,19.026297590440446,20.024984394500787,34.0,64.0,51.0098029794274,45.5,44.0,48.0,12.0,18.0,4.0,6.0,13.038404810405298,13.0,13.0,38.0,37.0,47.042533945356304,220.14540649307222,227.3719419805355,230.62740513651016,226.79726629745784
350,5,949,0,31.66496666666612,11.045361017187261,76.05918747922567,6.0,12.041594578792296,18.027756377319946,20.09975124224178,36.013886210738214,65.00769185258002,53.03772242470448,47.5,48.0,51.0,13.5,15.5,2.5,7.5,14.0,14.0,14.0,37.0,36.0,46.04345773288535,216.18741869035765,222.3803048833237,227.56317804073663,223.64704335179573
351,5,950,0,31.698333333332787,11.045361017187261,78.05767098754612,6.0,12.041594578792296,19.1049731745428,21.02379604162864,34.0147027033899,63.00793600809346,51.03920062069938,45.5,44.0,47.0,11.5,17.5,3.5,4.5,13.038404810405298,14.0,13.5,38.0,37.0,46.010868281309364,224.0557966221807,230.13908837917995,234.30749027719963,229.36869882353173
352,5,951,0,31.731699999999453,10.0,78.00640999302557,7.0,15.0,20.024984394500787,22.0,34.0147027033899,66.007575322837,51.0098029794274,46.0,48.0,49.0,14.5,17.5,1.5,7.5,13.038404810405298,14.0,14.0,38.0,37.0,49.09175083453431,216.05786262017867,223.1815404552984,228.3703133071372,224.37691503361035
353,5,952,0,31.76506666666612,11.045361017187261,74.02702209328699,6.0,13.0,19.026297590440446,20.024984394500787,35.0,65.00769185258002,52.009614495783374,46.5,49.0,51.0,15.0,15.0,1.0,9.0,13.038404810405298,14.0,13.5,38.0,37.0,48.041648597857254,223.10983842045155,227.2201575564985,230.3670983452281,226.43321311150447
354,5,953,0,31.798433333332785,11.180339887498949,77.00649323271382,6.082762530298219,12.0,19.0,20.0,34.0147027033899,63.0317380372777,51.03920062069938,45.5,47.0,48.0,13.5,15.5,2.5,7.5,13.038404810405298,13.038404810405298,13.0,38.0,35.0,46.09772228646444,235.01914815605983,237.03375287076733,238.0756182392477,232.07757323791543
355,5,954,0,31.83179999999945,10.04987562112089,76.10519036176179,6.0,12.041594578792296,18.027756377319946,19.026297590440446,34.0,62.0,50.00999900019995,45.0,44.0,48.0,12.0,16.0,3.0,6.0,13.0,14.0,14.0,37.0,36.0,47.01063709417264,222.08106627986098,227.14092541856036,231.26175645791503,226.3183598385248
356,5,955,0,31.86516666666612,10.0,82.02438661763951,7.0,13.0,20.024984394500787,22.02271554554524,32.0,62.0,49.0,44.0,45.0,47.0,14.0,16.0,1.0,7.0,13.038404810405298,13.0,13.0,37.0,36.0,45.0,219.22819161777528,224.43707358633955,228.63289352147035,225.71885167172013
357,5,956,0,31.898533333332782,9.055385138137417,77.00649323271382,8.0,14.035668847618199,21.0,23.0,32.01562118716424,63.00793600809346,49.040799340956916,44.5,45.0,46.0,13.5,17.5,2.5,5.5,13.0,13.038404810405298,12.5,39.0,38.0,45.044422518220834,225.31977276750482,229.49074055394914,231.78006816808042,226.71568097509268
