,video_id,frame_seq,gap,time_seconds,m1,m3,m4,m5,m6,m7,m8,m9,m10,m11,m12,m13,m14,m15,m16,m17,e1,e2,e3,b1,b2,b3,m_0_16,m_1_15,m_2_14,m_3_13,label_measures
0,4,0,0,0.0,30.791779216179503,197.16358781279985,9.886644471037448,14.05156192639534,48.95636340402496,51.73275878001783,55.94478134260751,110.45643090868664,96.4847354378983,80.98668458637167,78.36854765770761,72.55216182784756,19.64747654338555,34.89068192689024,19.227658668526946,10.846567275893849,18.17637470649273,16.83634885598467,16.15535512978846,49.28661850840737,47.279125761355886,78.34814868720535,399.9999999999999,397.1454131656124,391.5535614184427,380.346806963209,{}
1,4,1,0,0.0333333333333333,30.684554684527026,189.53678090922264,9.852216748768472,15.389654533806176,47.393156535194855,50.17864661378059,55.74996788490683,111.46510836438188,96.14875191137622,80.72572275733557,77.43243456524522,74.32656927839594,20.241673766018494,35.5032531927784,16.921610873179418,12.744757556382012,18.11308010921202,16.77772055756294,17.48387958890214,48.46220835515007,46.427331098248686,79.46776287714596,400.00000000000006,397.2142065927343,391.6104343805925,380.3976483120277,{}
2,4,2,0,0.0666666666666666,29.27995967052672,189.428449156883,9.74893959624855,15.319762222676347,45.98038342684864,48.764589717627366,55.72563236570659,110.02374687194808,94.70398464927176,79.99384420466288,77.3642887723297,72.82792121362621,19.48331422670276,34.84545385770207,19.00661119511028,10.656619383666168,19.54755539833968,19.54755539833969,18.841302885767675,49.86159935286804,44.986926416905305,78.10335043707722,399.99999999999983,394.3816851291152,388.68715747841895,377.5157260418408,{}
3,4,3,0,0.0999999999999999,27.85023077873868,186.61732881450752,11.22678694438945,15.380792668157309,44.58212192935991,47.36586600797957,57.09297309641412,111.4357304656288,96.09338632016905,82.13898529743136,80.71693286096848,75.21420821552522,20.928902162725308,33.449146440278696,17.682912905581702,12.180188260138491,18.15612914782008,19.544830827006,18.84219478313304,49.12263742477165,47.17504387048552,79.422002744163,400.0000000000001,392.8881914403908,385.8488410062601,373.2580360165376,{}
4,4,4,0,0.1333333333333332,29.659582121457746,185.2132612035924,11.38681884619148,17.007079203951967,45.283740239004736,48.10328413316454,56.512093891621625,114.47968293876376,97.49384209133392,82.64231425666821,79.219167645688,76.45416867663687,21.36059062710644,36.6109229690843,16.835338793250855,11.28197466667774,18.360693694235746,17.007079203951967,17.750514508359345,46.54544743394271,45.34598309243887,77.79532892688698,400.00000000000006,395.622474716661,389.9753683653357,377.14271681854143,{}
5,4,5,0,0.1666666666666665,29.76852323149916,185.89355865981656,10.023583163286853,18.48257411905908,46.86494123296024,49.7961281182097,55.284400287069886,113.4393312073215,94.98634272848484,80.00695043785481,77.16635010380622,73.23138774954703,20.03828218956096,38.14068932531978,18.44217296152817,11.559939606990383,17.01058470371379,15.84867655605089,16.45493795731892,47.38548039857943,46.058023218829305,79.58497793522895,400.00000000000006,394.2416829452283,387.05570264454633,375.6611105356178,{}
6,4,6,0,0.1999999999999998,31.199469935157907,184.4371429755444,10.017546071895955,17.059266249678508,46.83671500600708,49.76613647036663,56.66779806629059,114.83096938699174,97.79300666476036,82.10482774719577,77.66361818326129,74.13922667944206,19.38415327100614,38.85562254773754,19.31271290268552,11.0415058148933,17.00033941988722,17.059266249678508,17.109968212798492,49.46848615270704,46.92044634927004,79.65051610948773,400.0,391.37720476214,381.259433515758,369.82522553368847,{}
7,4,7,0,0.2333333333333331,32.93347398744452,184.9855806020853,8.709847894059976,15.81574390180303,46.02140459665189,48.76842199168509,57.29350276606628,114.63172939532892,98.84191731148027,82.28892139572469,79.27330343798917,74.00681246866276,19.441866362812675,37.874584755454975,21.215759279127667,11.226771168144808,18.61457225377296,17.41969578811985,17.419628438213522,46.192171540843134,45.60875787058848,77.53391104473212,399.9999999999998,389.7924873179602,379.6696689207161,366.6337942278756,{}
8,4,8,0,0.2666666666666664,34.71681591483819,179.65579534092828,8.798922792418269,18.86049581774921,46.49206171794904,47.93247064332744,54.98732191311342,117.24958917193996,98.40684767929471,80.96456018562446,78.36345088186897,73.47529810360425,21.022278134530723,41.20302090608192,19.951233127102057,12.743824994405202,17.418575929710276,17.597845584836605,17.539368617892478,47.99570108477437,44.74230121258489,79.88745107221251,400.0000000000001,392.53346534407285,382.34769519499474,367.7042756296884,{}
9,4,9,0,0.2999999999999997,36.19226902819539,178.1352436853247,8.798922792418288,20.303072151016167,44.93578175339836,49.3732377140399,54.9682918651605,120.14072264946915,99.85276547383086,81.60276791503071,80.19767659880193,73.17620044631599,21.932161904873794,43.291142083014165,20.706189878249347,15.069902898702708,18.8049419538707,17.597845584836595,18.26618711097388,49.14237221008574,46.84964530315156,79.88745107221239,400.0,393.9780800024232,382.21632868309786,367.5221310856924,{}
10,4,10,0,0.333333333333333,40.666218491721175,174.55937082563264,8.82876228079056,18.92445677739469,43.76036169508585,48.09502240496453,55.17379855253358,123.5088946722494,104.59432525971738,84.1741520860038,81.8288417416228,77.97353706592799,24.834587619267552,43.50068775742335,22.16800188524536,16.513555027559505,18.868714515582194,17.65752456158112,18.328760979032552,46.23152856937386,45.49259517319896,80.04001685170222,400.00000000000006,392.5761729408902,380.7449986618048,364.49633122746434,{}
11,4,11,0,0.3666666666666663,42.67648750477051,169.464528326591,8.951411693750275,20.654932627464746,42.77785697657363,45.83281551042816,54.449311644017605,126.59207819686785,105.9656362258327,84.40913451282927,84.12093631675583,77.76410753479274,26.7118556589229,45.37063029613592,22.29830614191212,19.762162016465822,16.25438660123005,16.453021914066777,16.38612600531951,49.68536900306432,47.84090054819416,82.8814344611532,400.0000000000002,392.4437199218288,380.3147245087092,363.8462201238768,{}
12,4,12,0,0.3999999999999997,45.42612175771125,163.3135606698991,8.91342939756669,20.72330241153756,44.180020027247565,47.25640027306577,54.218274355977854,129.0264828009901,108.44644933272154,85.44386711540267,87.193570878858,85.58967576235733,32.44242394740115,42.35741194031482,19.61126301539537,24.27713971794293,19.04966396291114,17.826858795133607,17.86155925193998,45.6381064967936,44.47163732115672,81.07288571259097,400.0,391.1163057501216,376.1636176942835,359.77765841739347,{}
13,4,13,0,0.433333333333333,47.30240748357258,161.80047816359203,8.99154099481161,20.904908186302265,41.62649653275152,47.509824637904536,54.693408652880834,131.63454005659665,110.87487176990264,86.91585963191591,87.93781267031812,86.34256890305613,32.7274229127346,44.19323748993031,21.13697991622155,24.377318818472588,16.260202572478086,16.5267810363536,17.285961759315626,47.15939386968307,47.55820481149857,81.6362761934624,400.00000000000006,392.528271881067,381.9367345248478,363.8805383836237,{}
14,4,14,0,0.4666666666666663,42.377274439745776,150.96569745335484,10.33284762915432,20.510116920720897,41.15016838871133,45.51147282246542,54.14648782604672,127.26612344734366,106.76386999351766,85.4825135792284,88.36450978609184,84.50514095255295,32.35354002661501,40.62361609848404,18.01874150204196,22.680057106186386,16.074138580593246,16.140423969359105,16.21436126817963,43.655977324836016,45.61072257818691,73.29769903077968,400.00000000000006,389.4044365931464,377.41919422343375,359.6216951411905,{}
15,4,15,0,0.4999999999999996,29.879509419366386,145.50191192235445,14.995534946194736,25.409743163967725,43.50215177040231,48.11914987515312,53.73673362548287,123.98898872249802,98.58104110640664,83.4591197527331,90.13255380996054,88.97912076303237,36.00358867911592,34.19105103394293,6.838210206788517,23.31582516290576,14.921114958557355,16.68231367371165,16.72477918045894,47.949859522300784,48.938516419667735,74.97767473097396,400.0000000000001,392.07057383075966,381.236677172369,366.0055518826259,{}
16,4,16,0,0.533333333333333,11.98913976090969,140.1771559010109,19.711564139066542,28.63152418975292,40.5742053849056,43.69256075402599,55.47001962252292,115.63850039551107,87.03745958574281,80.90249272215073,90.72689846209904,89.46163408649966,34.84438853979162,25.39211938090193,5.271934898330869,17.577251178670224,16.485067171250815,15.646286735257895,15.406454455828168,45.028526308096815,43.66402551088177,76.79720189549944,400.00000000000017,393.7866673211653,382.9053506808322,366.3590835535402,{}
17,4,17,0,0.5666666666666663,7.535468246332542,129.99837776039942,20.89962857444836,31.17479279599984,37.21073076846474,40.57973840542973,54.75941990000481,114.26192211010816,83.0875241553214,79.25888643880126,96.03151385946036,98.42106167267912,42.62470393649272,16.947472382602086,16.30637418881156,22.750659928990387,17.73392290712707,18.27970932566135,18.1588981903488,42.40406624642213,43.353224611254575,74.25988312132228,399.9999999999999,389.3954723610061,371.2994156066115,351.7507453202859,{}
18,4,18,0,0.5999999999999996,9.059472004260426,128.0683305760949,22.538227919068405,31.41825286453326,34.54563364744822,39.17915566644609,55.1870645104742,118.12106336008202,86.70373566929005,82.06964205894957,95.45165561903168,97.53106624741535,41.48759592436471,21.498422786999072,12.10753607816946,19.88855649405673,16.450607501728655,16.981408187777888,16.836518313687293,49.83877731900248,51.31448808753285,72.0460133020468,400.0,393.6132288277684,384.1674619830876,365.8786468908216,{}
19,4,19,0,0.633333333333333,13.46367527182452,125.40464775706572,22.49958166764418,34.486398322987725,36.175750987617214,37.64312908508063,53.60784859863503,123.977483539877,89.51806946400598,82.57853202205706,97.75487884950928,101.08657754780552,46.06344829361211,24.36148108340683,11.819597763003344,23.33441607114997,17.903613892801275,19.83657567347993,19.04662839802944,44.81510504700748,46.97778665818211,79.3045011442484,400.0,394.88005147117394,380.6767041753031,359.21258924027205,{}
20,4,20,0,0.6666666666666663,19.511171012056696,126.782876724938,22.645223738187124,34.7096322715795,34.70963227157956,41.09079536782923,53.95485763118464,130.73940554534929,96.06389289709448,86.00184221121287,100.46063077854228,105.4832451568069,49.3250767513282,27.44082838889005,8.777060342083473,28.1166286623776,16.52870353620706,18.50992206454547,17.829446721513534,45.35370724293301,46.93057454773694,75.3587176052265,400.0,396.2878837082556,381.9320337134437,360.3901159705872,{}
21,4,21,0,0.6999999999999996,34.38592271714086,130.02386129501718,17.934987542870267,31.419341866556632,37.50262844630068,42.127149287671,52.32083400243707,136.05993174331869,104.64166800487408,87.13659143399764,99.19520517035107,99.57269220905432,47.24879434435536,36.2177842133608,3.5022408590800183,31.184623697317534,14.968482196672406,16.98199678791279,16.169028157788716,45.71787468739237,48.98942902282039,73.52666077023213,400.00000000000006,396.0848253949469,386.2165949726084,366.24583801705927,{}
22,4,22,0,0.733333333333333,47.75442669146866,141.7767913970976,18.11957203729045,27.179358055935733,42.127149287671,46.55478872847417,50.83701485849362,143.75793249155373,116.6416247779892,92.4531136968123,103.37696862928864,100.31296053847213,51.22222221386789,41.49732696910246,13.654818665595483,33.90391561360042,16.451177703545255,15.549997631612404,16.185955784095995,45.96012136224826,46.89264556380101,72.4782881491618,399.9999999999998,396.0848253949469,386.07009896799536,367.3767610715054,{}
23,4,23,0,0.7666666666666663,47.24219052069781,159.24907505341704,16.433681756643736,22.48473609939016,44.486434859002806,49.0594258614272,53.24107103770015,139.28938930977378,116.87109463025264,93.0745758669168,98.68466348463863,94.9749000967784,43.71985070570713,42.2574272766397,19.403962842738903,29.806172431416087,16.23527993515218,16.75913279145999,16.83026285316555,43.261294206762216,45.467322769253656,77.3326528884499,399.9999999999999,394.6082546331341,381.946482481744,366.661920023224,{}
24,4,24,0,0.7999999999999996,45.69011601100644,171.2033370128794,16.444232579128762,22.49917184560465,45.97332192120141,48.89221840364456,53.45766842194829,137.91996576360393,115.4848845604688,92.519999929243,95.86300773918634,90.712968680625,39.89021481324295,44.40779293478795,20.19357420330641,26.33748044860777,13.31881327432786,15.35577899754912,14.682128895021435,43.27839840440174,42.8266405922472,79.06923290315285,400.0,394.6095050600719,383.0059107507198,367.6600916934366,{}
25,4,25,0,0.8333333333333329,44.43599607746756,178.4270545679972,13.588215973516432,19.38545637640473,46.06809566360487,49.19212386312415,54.85015571643454,132.17064595811794,112.79519260456226,90.45928663976866,93.8859934455146,86.43053507633459,35.42992163052793,41.83798706509981,21.93752130754291,24.49414973060243,14.811998692489206,16.804463599812397,16.007792803737175,47.083198926602506,47.77596275736698,77.33143760182931,400.0,393.0647678858103,384.968105941277,372.3562058101382,{}
26,4,26,0,0.8666666666666663,41.395917652895086,176.70744367581594,13.55284225680702,19.612408112136613,45.9481682376259,48.86546768519252,53.103870566305496,127.45098487373544,107.9533517313055,87.04100635464226,90.72249907054852,84.01692305229068,34.513994211621764,39.90475140277039,19.919505230707443,23.4695160639028,16.43523533886747,14.477940511678916,14.791711804980764,45.09828576985242,45.36124953527423,75.8873744500968,400.00000000000017,393.1313789787488,384.5732689975546,373.4467395068787,{}
27,4,27,0,0.8999999999999996,35.29359125808277,177.61431709629687,13.511118960710462,20.98257506541652,46.01721300358647,48.71503220173535,54.40094748484006,123.97011980322858,103.09570714736267,85.23491027031167,88.26085619004851,82.29096830503926,31.1123003237986,38.5008566210422,17.015820551365778,18.795306363243697,16.18682868318537,13.902826712723838,14.473697962969029,44.69215518310557,45.126776141766896,78.55062916541083,400.0,394.44464400116783,384.8458246166018,370.707286976463,{}
28,4,28,0,0.9333333333333328,27.88193129243456,177.08807816578087,14.883089385984425,19.4709177220091,47.06446107958768,48.51293606097785,54.175263110975465,116.21315641399114,96.86109554317194,82.73614026099858,86.29016756890047,82.12226281690641,30.2576961259104,31.881240418838388,12.13215685561073,17.947837904904702,14.666858676304406,13.845150313935314,14.535163955839778,44.48188269230874,43.78723190030979,76.78200760105784,400.00000000000006,393.3853116319801,383.58257620634384,372.4805767255594,{}
29,4,29,0,0.9666666666666662,20.64682996912287,177.04330894775475,13.562187086994284,17.21791469433583,44.73950086352003,46.1911447742806,53.28281802082348,104.23543397765796,87.39923290797434,77.00911185268012,82.39436442979064,78.91466276458084,27.464788143263604,23.570836279814444,4.556752180631918,14.995857176261609,16.248010219202545,16.7722738350222,15.969345142123814,43.454845795299406,42.62634539882086,76.18152374726053,400.0000000000002,390.8058852221433,383.6191421183533,370.9464898742319,{}
30,4,30,0,0.9999999999999996,10.446036425637985,171.95711696530552,16.516633813050085,19.709542108849064,44.93010154235673,46.3879297937892,53.36687708541915,99.86760474911829,80.26472282653091,74.87685516825303,83.6629159933911,80.21332730613256,28.7978313421861,17.842270161928923,2.3399017240078592,14.691922902962574,13.619965158170764,14.014828525899352,13.99369290361392,46.648413766012,44.66178317262694,76.50607475611825,399.9999999999999,394.9099167868877,389.4284621115924,376.3734611995541,{}
31,4,31,0,1.0333333333333328,12.145181060548,168.76481215622465,15.01987114738884,19.649863527755983,44.79405755444449,46.24747164338436,51.73769987013819,98.31553082228504,78.7373238084748,72.58487439765406,82.33311524234796,80.09365450775618,29.70578797943909,17.059421478214574,4.413054976989827,15.742091634336871,13.57872522521407,14.505590215686588,14.095429329490004,43.076685894796526,45.05268066061279,71.92729517893089,400.00000000000006,394.71838446780816,387.8468289026028,374.8983954906072,{}
32,4,32,0,1.066666666666666,17.627286275993715,163.16694339334254,16.366524430821727,21.31421719928244,44.521759875264095,45.96633883506159,53.02349788472495,108.06864539165984,86.97387287983639,78.05524802054856,85.78540686266166,83.64386045994524,31.801964080339587,23.318145638808915,0.4365459974767987,17.824255444147866,13.496181790506006,13.887456491387262,13.866512957589125,44.52769174263551,44.76655653370773,75.57011155119947,400.0,392.2834333804251,382.1897104238952,369.1411444024158,{}
33,4,33,0,1.0999999999999992,23.72393465006574,158.86953500945327,18.00325426068346,22.637480337136378,41.856715950181055,46.46849584331648,55.0738001246484,119.30999725437876,96.74697979881142,84.72827026685172,93.35491194227802,90.51463086234992,36.99282993929256,27.21054381300729,2.657168402855348,19.72326990603358,16.54531972215889,15.93856258165863,16.337719965488873,47.06402717829246,48.35802342960645,76.39567351875583,400.00000000000006,396.3175692022284,386.5944157209597,370.43784807745584,{}
34,4,34,0,1.1333333333333324,9.343219017266222,158.1531294766544,16.317230521569673,20.89207285127594,40.322241844740766,43.2470954386379,63.79783658020621,110.12520557265584,89.23874734598238,84.53086871285251,97.90689236964612,94.45581237445124,32.53816592128271,13.849620553508773,6.848622949891592,17.91019916360699,14.846607274108992,15.42338795052979,15.414549429611611,46.94786628308097,46.30542179710184,74.80412446419763,400.00000000000006,396.36892986124366,386.2971952945706,370.6856647791069,{}
35,4,35,0,1.1666666666666656,7.569433892563848,155.77932863092994,22.464381589308665,16.92576873496366,37.3784557824882,40.51864027027532,62.63062240320439,109.37967969860284,92.62301810690032,88.70700482286583,103.05732891688804,98.03532892046184,38.07395762762809,8.784410417201457,7.794732893475782,17.347983701009525,14.91892096897728,16.92576873496365,16.23152930440989,45.04259605915095,43.54581104392955,74.94827544020373,399.9999999999999,394.91011339108985,383.7681737146223,368.2607831515732,{}
36,4,36,0,1.1999999999999988,7.468485879460859,153.33848473174325,22.16479053412352,22.16479053412341,38.19445756487968,39.97827274914038,61.79536352113424,113.54895094925016,91.38777254188147,87.59126940817691,103.62234695137217,98.1552654446341,39.18888633624556,12.593812756592968,9.608070326573738,18.43512900932785,16.178036300999814,16.70004211547178,16.69819165562467,49.13051371903401,47.19425568539765,75.39956272292665,400.0,396.4633612236431,386.7809403915211,371.3734462076986,{}
37,4,37,0,1.233333333333332,3.26509398662402,154.49105402722608,21.951535507003992,20.90680244324804,38.21694529372871,39.6678685871024,63.05943902838827,108.8506140418589,88.0486339065523,86.4076301593879,101.43257364694335,98.05581703385684,36.77093138769635,9.075033397669756,11.93228899335844,16.185703573303897,16.128374539683374,16.648777951510073,16.632149760130233,49.401299873183206,49.30389343242106,72.27593640575755,399.9999999999999,394.6551936125904,385.2395827537122,369.9223243949191,{}
38,4,38,0,1.2666666666666653,2.052321293626349,154.98083559809118,23.26467098320937,21.96079684950369,39.2900282096842,40.86645320413744,58.21144437250312,104.97979507662576,83.03662533635188,82.10086733058819,94.4894684921108,91.65616455674284,34.98602667469294,11.808139180494436,10.387428038117946,14.430366031852088,16.029141718401736,17.950480103853117,17.13377637705986,49.440747754700055,48.66138621373935,74.70562272855199,399.99999999999983,394.9212279043215,387.0272044623376,371.977218996661,{}
39,4,39,0,1.2999999999999985,3.2599068331940013,156.54342798696024,22.06164679480249,19.17534726189437,39.470458693281344,42.50398493539039,60.05665054961944,104.33739109061604,85.17033005812767,83.61857734922836,97.77129702941994,89.8134529185856,33.77798754121835,10.54108273758203,8.973999589602442,13.014135830487533,16.102751891865243,18.032913585159204,17.20118611649582,47.23286550707519,45.15158320116467,77.61043347150195,400.0,395.1082392492409,385.7449284703496,373.5403757658752,{}
40,4,40,0,1.3333333333333317,4.36753640188053,160.56596153515568,20.58876404565861,19.1486574532668,39.4155204971393,42.31980258484182,61.42218755350109,105.46593126363416,86.33789636454814,84.1544098409999,98.07558380073124,90.42012932430168,32.84539389472263,11.21317605883661,8.544884872031332,14.70736689870074,16.08033877149246,16.5991922455002,16.510051718357886,45.63095583149817,44.85270423534652,71.70685529134758,400.00000000000006,395.33911891299897,385.92813051581714,371.1692223252578,{}
41,4,41,0,1.366666666666665,1.4316058507073337,159.55181373965274,15.812603455380042,17.416236853676615,37.33171322093384,40.18709128168174,68.8511630703935,102.1368255672631,84.76750888812785,84.62744002766459,93.42831895275252,88.57104593464726,22.263802853084087,11.11237862502236,5.474193546128333,8.691551236577538,14.387460738077724,14.946403881334296,14.813901793160426,40.43562650763568,40.01393399480981,73.51543468661853,400.0000000000001,392.33575594278585,381.77736717597713,367.0387252510128,{}
42,4,42,0,1.399999999999998,28.502608712248765,164.30320431980886,18.72127729784714,22.81807410086607,44.215656855724205,48.47763440265158,57.00521742449776,126.96590233824212,104.14816151133554,89.85156694745967,94.39801034275814,91.55891395390626,36.056524138419206,33.90192222140013,10.636888525356085,18.30633794839173,15.656875913513206,14.515402873619063,14.526061660769642,46.810087857837686,44.82660955877677,74.23297680969792,399.9999999999997,395.6253896636506,386.6753524611733,370.6077185344055,{}
43,4,43,0,1.4333333333333311,41.09188611551007,173.24057738707438,17.062477002788874,20.03886298208442,45.4312446694986,49.67455890073588,52.50411548921963,130.5528462998733,110.60472160904152,89.98655240999528,91.84992967762446,87.23366171419735,37.07583987237547,40.91761769575919,18.886823910167777,22.099807758466568,14.169615901900098,14.450229596780552,14.37024279644919,46.13967497664609,43.40212071926487,75.31254157382057,400.0000000000001,393.8490557052088,383.42886375774447,370.3586321067146,{}
44,4,44,0,1.4666666666666646,38.63801825439421,177.65628625976896,17.23197596842197,22.9412797518302,48.67632236930994,51.5967985179748,51.53722936378446,130.295178278619,107.36598270834412,87.946514918545,91.9038338202526,85.88557457963583,37.4338859276387,41.24231560334158,17.451384542778214,22.20016722482734,12.879339418131396,14.593778447830337,13.784007818027304,46.33589438771779,44.102555997645055,79.03164085341781,400.00000000000006,395.629521833259,386.7616043372588,372.2046287698698,{}
45,4,45,0,1.4999999999999978,32.48855746581908,176.658626908045,14.125459767747447,21.235222316932884,46.63541453431869,50.87127007500171,49.45928429882586,117.2753483853781,96.06351222667286,79.72886783334314,86.47426306237094,80.49556602814653,34.059986472175126,33.68825401408856,12.623414722520522,20.04257503183021,14.125459767747447,14.195911375700875,14.98546471661183,46.03286939304434,45.86249201642136,75.077848501536,400.00000000000006,392.8935122275715,385.75179777686657,372.9362145795279,{}
46,4,46,0,1.533333333333331,21.26323087964224,175.82747771329548,15.593035978404306,18.428133429023305,46.80058101779206,49.63445195079866,49.61420538583203,104.89860567290188,86.47047224387858,75.70657994533599,84.51657085848029,78.38457372895152,31.92290317059883,23.265070995160045,4.79300023772106,19.11113745580178,14.17548725309486,13.069153493369669,13.61059908775053,44.16407361900068,40.99156393784244,78.08107501240572,400.0000000000002,392.8682011698133,385.70091576659377,374.2758170386296,{}
47,4,47,0,1.5666666666666642,12.714420159017958,165.34178826822946,14.127133510019975,21.190700265029907,45.22889549172927,48.05302463944261,48.05302463944261,96.07489490475236,74.88713390161894,68.33896810658757,82.10795921264895,77.37007697236726,31.85420826597164,16.107266321734414,5.2362031878842,18.89786362830808,12.792663483111852,11.64953272980307,12.14369816926569,43.16226053848874,40.29499847074538,74.99365903925333,400.00000000000006,395.68333139036463,388.5603804626911,375.8056498926088,{}
48,4,48,0,1.5999999999999974,15.498826814178244,162.86769393050344,12.628780635648802,21.09468913257389,44.92425076519187,47.7911966166651,47.72935764754687,96.83081910645426,75.82463629432887,67.83712588831384,80.04657682554324,76.72092562448199,30.82385974316935,18.214098939145515,5.773700001842428,19.445821606205243,12.706496942316887,11.571065885229997,12.063183870516127,42.80236268032508,42.9717245470458,78.62917774946243,399.9999999999999,391.5827181339998,384.5402196352149,369.0650424383456,{}
49,4,49,0,1.6333333333333306,13.979094170591196,158.06270018318182,14.048815771037791,22.366550672945955,43.35773299247873,44.82038552907652,50.32473901412846,100.65918526443008,78.29540769454606,71.26115570840204,82.58229687643978,79.40307230185374,30.74542789812984,19.57937085568176,4.381126547904955,19.346744667297344,14.048815771037798,14.255934791639126,14.073884397252357,46.75786386525178,47.06803211643094,72.7047298812703,400.00000000000017,392.97170648070977,385.9141563450554,371.8675530292765,{}
50,4,50,0,1.666666666666664,11.175429888531497,151.10094558169874,14.038960049037202,25.144717249195725,41.93113776392183,44.78894250448775,51.68636323445805,101.98536528906828,76.84377878644008,71.1949063687074,82.70760566990538,81.81961668456262,30.67456687964653,19.60586207111993,6.994860603840152,18.01682914998031,13.969287360664286,14.03896004903726,13.374360419591994,48.745921669077774,47.71772389657562,67.1107594543524,399.9999999999999,394.4190623203083,385.9797771005221,371.9609676560896,{}
51,4,51,0,1.699999999999997,5.588635189987731,144.07681447571167,16.82401980165092,27.94317594993836,37.72328753241701,41.93804344012926,54.50710245145924,104.78690981226912,76.84373386233077,73.93283598743477,86.29938413118833,85.20222523377043,31.425765561756748,18.87113303558857,9.404219120725202,17.10000510118533,12.651811010471588,12.88116764742074,12.711369511513569,48.05555970690583,48.43172847173474,68.58897156299649,399.99999999999983,394.4172108989145,384.5842969196725,367.7182873504511,{}
52,4,52,0,1.7333333333333305,5.722363175980997,134.68843282210298,19.479780984713884,27.792213856155985,37.498369715159136,40.27235276114457,56.9029541124294,109.65106111550446,81.88473884471537,79.02336306411962,92.42097983422605,89.0268131219853,33.91052797825876,18.82361263806933,10.727435159329788,16.908555272905915,15.266646225285909,16.71225131115844,16.052228808808422,49.12199989504444,48.1878255705744,68.06259401305675,400.00000000000006,394.4013168384344,386.1317062564748,367.9549408554936,{}
53,4,53,0,1.7666666666666635,9.75035692291835,132.72667765386663,22.06253919739145,34.500284647467495,37.25606149091495,41.45908632673196,53.77743929364161,119.99675174948273,85.50345889821604,80.59901095605778,96.90192277506172,99.89476501082991,44.68875096776071,21.55384967481825,16.175966068643675,23.623450089783773,16.546904398043615,16.604259524606277,16.629893297204887,45.41580390164268,43.06923094043631,75.85251298884454,400.0,391.72900784424695,376.5052066069552,355.8011988477867,{}
54,4,54,0,1.7999999999999967,16.594894765060243,125.893605647875,19.293833984414512,27.56261997773501,37.235049168325176,40.06072974033603,57.89790595015865,121.3068450175726,93.753432426917,85.42555410401235,97.04392418982638,101.01720577605954,41.162888028582586,22.208634235890656,9.809522048501664,22.981646217648063,15.22195441168104,15.407972977052278,15.290176999161702,41.97455060942795,41.12423742949471,74.43183331827896,400.00000000000006,391.7384332019021,375.1048790552575,354.39677645630866,{}
55,4,55,0,1.83333333333333,33.45819698076471,135.224475793511,16.71459558476029,26.46477634253725,39.02558801484538,44.59401337819468,59.958717766114844,136.56647454344275,110.11706711757634,93.37210169810244,102.62540283992638,100.6519868113594,41.682586587645176,34.88440144986521,5.3763932746785486,26.15941641017736,15.384895207496808,16.94515262201135,16.148603210143563,43.92793002172334,44.30862838943909,78.05117602969088,400.0,394.3433468889049,380.2978644460994,360.78088789535377,{}
56,4,56,0,1.8666666666666631,46.42250242085936,147.87533676335747,18.341678147732896,23.91462245923053,45.01575992325755,49.25607963784036,56.28728143860631,144.92179006703617,121.0125653134261,97.78824139434516,104.91372862944267,104.64353138867524,48.50812463893334,40.07797072698679,14.494151986885754,32.7594854627697,16.93942283287856,16.939422832878638,16.26201393362186,46.49708517550653,44.0498701662693,77.38362487952719,400.00000000000017,392.9749707811129,378.6751178804807,361.66690282280086,{}
57,4,57,0,1.8999999999999964,49.28080742336327,159.13152563493335,16.896276830867375,23.936392177062263,46.46476128488535,50.70838259766604,54.91289970031914,145.02637613161204,121.08998395454978,96.35550888128614,104.8226078792424,100.61043013083288,47.85717818211555,42.16840675806424,16.436819073591266,32.03431121576489,15.488253761628467,16.954842957362246,16.973055724218966,45.66560230563678,44.73301682628406,77.49245273230808,400.00000000000006,394.3696421611626,380.2079456077001,361.8728860064885,{}
58,4,58,0,1.9333333333333296,48.22325235515866,160.2083939024159,15.594896728404468,21.265768266006088,43.94925441641254,49.64037493504638,55.30917037542336,140.38270839934876,119.1220526948148,94.89068464296116,104.21309765594248,101.15708795487171,47.455238725953,37.535082882840015,14.07664572151225,32.49979228729342,15.659205853725478,15.85056781218248,15.66798756067078,46.47351540229292,43.0849865109503,76.6092558328717,399.9999999999999,390.0811535116504,378.7005507707551,364.4224449171587,{}
59,4,59,0,1.9666666666666628,46.8273474879769,157.4442887498621,15.601954041461,19.85703241640488,43.96914320775363,48.22422158269751,52.65152054804325,134.86353644550428,115.02711570764114,91.48418506129394,100.703521540339,99.2851620820244,47.515041853540254,34.74980672870856,12.056055395674376,31.91308781207925,15.666292269227322,15.666292269227322,14.89277431230363,42.55078374943906,39.714064832809726,78.0226633187403,400.0,391.4697799781786,381.5386942866367,364.52114023061546,{}
60,4,60,0,1.999999999999996,41.68244048427715,156.6808156681998,17.237661139731852,21.59490573196251,44.55378748620016,47.42532786372375,54.88750894440612,135.30313505014482,113.70833184275332,92.79740181783228,105.63584794232304,104.28867828929764,50.2365210432086,30.25484900402307,8.030583171178534,33.79621114580851,16.060242533977863,15.866349198356463,15.815126375786406,40.76196560920647,37.01893136367465,80.45524327052182,400.00000000000006,391.2375291687581,379.7614064368998,368.2106136046486,{}
61,4,61,0,2.033333333333329,39.99566949315885,154.593105395821,17.18945643511934,20.187992762338364,41.49602503538936,44.34470796838095,53.297830264021286,130.53687875308202,110.3712847504816,90.31312328335468,107.22267739311263,104.5171487355512,52.733652316573625,24.551062133643768,3.3094413043383497,35.76773302644989,14.90360705385999,14.346264362020396,14.29259930705723,38.280009637042326,36.63736723780895,77.29655269791056,400.00000000000006,391.47271723921193,380.1056479829175,364.07017415962935,{}
62,4,62,0,2.0666666666666624,37.4324044319896,151.74116007218433,17.323569839202165,19.193907224972072,40.5125876628364,44.69068864328752,52.28833331186743,125.98613678431992,106.9349156764178,88.22246601697566,106.38519592847832,104.02216691352282,53.00518531822547,20.705023196558106,0.122225638704549,35.51877060755493,16.838898289049677,14.45819497231772,14.398180239401142,41.5893106632164,39.34035891105185,78.16486222066298,400.00000000000006,394.3092462103336,385.9992497340912,371.1200072247551,{}
63,4,63,0,2.099999999999996,29.07060552128344,144.60439838995123,17.48098470146269,20.78542084502868,37.85614164814894,40.88071521772013,52.12047323501928,119.09387429956112,98.34242663628108,83.58737462147707,101.95813479845872,97.56711561627384,48.18478246511171,18.961219195798208,1.713162786988789,30.75376692371128,15.156367968265418,14.589572903727268,13.863312455875302,43.76049798609219,42.96213086205853,75.71228329629788,400.0,398.1093357400351,392.6538277554428,379.8119439278646,{}
64,4,64,0,2.133333333333329,21.68956391968861,144.35695061365462,17.259057686382107,19.122430024394845,37.51270354683791,38.93688998966343,51.15849894070972,109.0993905749119,90.01223230447485,78.94560654291263,96.87633739069116,92.34116424886427,43.756022349848365,14.109427552350382,5.0390812686965205,27.714946977831005,15.436970485736218,12.978963329887868,12.975634266893678,41.57242046674651,38.8009257689634,76.4494234646494,400.00000000000006,398.618658717022,391.1507492609014,376.8644775451588,{}
65,4,65,0,2.166666666666662,14.61033736251134,145.71653045979346,14.3980693625936,20.51259026101901,38.919903560764745,41.76889993319419,51.4363370196598,100.86791272618034,80.35685549381233,72.47176029419307,96.56096512437556,89.72208070224752,42.3092178055536,6.8899208730395,12.095638866002671,28.121084452183425,14.110078882425622,12.89395303470327,13.575695942433356,39.80843171089484,40.82916072912289,77.48301468341211,400.0,397.16000772425866,389.5416752611079,376.7109655841512,{}
66,4,66,0,2.199999999999996,16.259625244346314,145.4095322730096,14.331760512862266,20.41812160477316,38.74066188802528,41.74738398208569,49.81025566052029,100.69664304425612,80.27863419516677,71.58535643286729,95.37145695214656,87.36567024740776,42.10606515822218,8.459896454797672,12.0170894969242,27.66705699431816,13.528825970381334,12.834571240332776,13.501355624430914,42.45085219067417,39.71778425050599,75.70234800128473,399.9999999999999,395.70627515887577,392.2193079911227,373.5415314433605,{}
67,4,67,0,2.2333333333333285,30.19152447515769,144.0151340549791,13.004115978328157,20.561312724252904,43.46319464228429,44.88706297314535,48.76279173409395,112.14182459028214,91.604699178198,76.37317785529154,97.49927410413466,88.69951961440682,44.805207689150336,18.782002104143544,0.9234310266997454,32.6710732930585,15.466886641729833,14.360643727410782,14.361232754603236,46.50582500981474,42.35247460013324,80.73951863911674,400.00000000000006,395.6872055187784,386.6108269723894,367.8119436644873,{}
68,4,68,0,2.2666666666666617,44.85561440656963,143.37846986530104,13.095925624936,23.31932352520556,42.33696140080893,45.20396766668234,51.61952308379741,132.56247756253038,109.24338720059367,86.86314223795995,101.7377456800158,95.0006479378124,46.97043987682275,34.17752393938042,9.878553430983686,34.783105758904185,16.489251797355763,14.7484351667993,15.328789806698808,51.77724556929377,44.96445009964978,78.30892402337906,399.9999999999999,397.41386208558185,390.4266143290829,372.9129285605177,{}
69,4,69,0,2.299999999999995,48.369350839063976,141.6262180164686,14.201730408749468,25.91572607872133,41.404803418489855,45.644812239803485,50.690430336698206,138.80693129294852,112.9193865030665,88.73822871149406,102.06845878432102,98.77854825446428,49.98633196413209,38.33761171767628,11.823369817793775,35.19391943359108,16.19246400593926,15.878017296044844,15.82406348681718,49.73045003403215,47.56154605508951,75.60337568338656,399.99999999999983,394.38898293446033,384.1745264974369,367.2403825158111,{}
70,4,70,0,2.333333333333328,48.01142118829169,142.16166540311391,12.7815878233733,22.977396536530364,42.5559043284679,46.92010996282045,49.90371633214541,133.4287637835036,110.53870302389248,86.58776073809025,100.89335538190176,98.48635684396385,49.82486973531684,33.738096173431245,10.07730054550052,36.13707138290943,17.055101569884567,16.996593330313917,16.993409677842465,47.562291109655234,46.63158500831918,75.45864362917683,400.0,393.155147021891,380.6839181677593,359.79991146687854,{}
71,4,71,0,2.3666666666666614,41.2581484402342,144.72228188206105,12.852520515481832,23.10491188255025,41.38003393012045,45.77180607137512,51.586111010899344,128.6896748792323,105.6419142121204,85.03149851228369,96.50578289501924,92.94811371489747,43.15677073003775,33.95811257963237,9.919807308538113,30.72095413645832,16.612755110383432,17.266815053996144,16.458226342275793,48.90993845825301,45.833035383552726,75.70464285183091,399.99999999999983,392.5654706226878,383.8423766307938,365.5798124999831,{}
72,4,72,0,2.3999999999999946,24.431244401557183,146.94834889154112,14.3440722798487,20.4356618891837,43.19758967946812,46.028672290161616,53.11738236626009,112.23970550946252,91.89122592843384,79.67600084291405,93.34203361032668,88.92489116391675,38.01612849184568,21.081091386837272,0.0956781757345197,25.657697459471365,16.705984020384868,15.95757096958712,15.838724674717128,48.30153238330556,46.61919112664046,74.71143180121172,400.0,394.46134214750384,383.95122831905246,371.11972206393375,{}
73,4,73,0,2.433333333333328,8.71046182371373,149.4905436941987,15.81685870361097,26.404611269065786,44.7597447771811,47.79504942507142,52.26277094228261,103.11330330333097,76.75525743221435,72.33503552753155,91.10574726271022,82.55433416025716,34.65762139043744,16.09089565536408,10.851255260502796,20.682580520479178,16.761026132866387,14.391332473496034,14.391012321153426,48.46067406422844,46.46881076908272,78.1715011046792,400.0000000000001,395.4214675902739,386.16262747664,370.1579281945689,{}
74,4,74,0,2.466666666666661,7.241490048099752,148.03217818567035,17.101147989946696,28.72122228606305,42.982235666396406,45.99694715808176,46.237484295641146,99.22935118778425,70.50983948186935,66.77237321594947,85.31170270671709,77.33864637898648,35.2551183758859,17.738076800406475,12.938454773416254,20.264193656717225,15.295731759521836,14.272562421262242,14.27256023815528,48.6830082902122,46.57527953822808,75.74995855345139,400.0,394.10505567341954,384.6572173237868,367.396871739435,{}
75,4,75,0,2.4999999999999942,8.589343694605612,144.18430196584004,18.357032265140543,29.954727685710168,41.16883541159902,45.53819249704488,45.973974603236336,102.64564390249696,72.69123641848142,68.34684859404905,87.96584463792254,80.51689977285344,38.45180281094355,18.31265123544722,12.09460877345458,22.370658512686475,17.861548627398186,15.59692681327941,15.596724642852791,49.37109832210578,48.04490024911362,79.52903417299008,400.0000000000001,395.2031613553913,384.3813979581142,365.8266895273213,{}
76,4,76,0,2.5333333333333274,10.340384527761673,146.23512039313374,18.464693652335207,31.37680114797055,42.82335567416989,45.805267528768816,47.64035791191975,107.4698146512118,76.13188227325014,70.93124615528347,89.87976379029783,83.70499809331545,39.32681562225599,20.59826419527667,12.781607874033284,21.635247747441724,17.96630407342537,14.274451891390004,15.688304194495627,50.73363469607048,47.21417536751076,81.4078792855421,400.00000000000006,395.105538034686,386.0926976074162,370.21323189166543,{}
77,4,77,0,2.5666666666666607,14.26626960220224,147.5577844375241,17.093608038335955,28.708559006009192,44.21153638613068,47.18792485254222,45.7790113931153,105.8205314986174,77.1272624275735,69.97823425548142,87.17525952109622,80.54565851298645,38.10822458998996,21.90963321113861,8.538606599601621,23.21159099947824,16.615370262719203,14.26626960220224,14.265623374077109,50.18528088428144,47.60532772088442,76.98342914368264,400.0,393.7291836087198,382.81734337397694,365.5519273467202,{}
78,4,78,0,2.599999999999994,14.39981280365036,146.97199600880214,15.532195985708778,29.78654847848795,42.57181030343106,46.93764713201243,45.73281356573706,105.25927517104056,75.48684754859178,68.24889496700268,87.05409778452633,78.16134739792943,36.989889274738175,22.5796813149459,7.576623329380652,22.42949264175013,16.09948014611695,14.190603434476946,14.89239264742099,47.609809403087496,46.45572801958241,78.28744295802626,400.0,395.0925771577661,385.8324151026672,368.4094925656958,{}
79,4,79,0,2.633333333333327,15.60451291492974,146.6693580941918,17.011958036384996,29.80233602543988,45.40675461429249,48.36532467075425,45.99633562658338,108.29569560579128,78.51981284955816,70.572484117854,88.66194287981381,82.51152690074736,39.82826920459297,22.58822850623841,7.691952464868052,23.744380870589737,17.870236205736116,15.604512914929796,16.308040323010232,50.3909401251633,49.10894804768549,76.75885330566348,400.0,392.75154964876896,380.7293560690138,363.5451301058393,{}
80,4,80,0,2.6666666666666603,17.21875788212366,148.4522922257943,15.794203652276488,30.16461757348561,45.958725753043296,50.373683478781366,47.7265908696435,110.85494076212308,80.69981452207783,72.03771378587595,89.51594869066406,83.96792725533061,39.10764896863782,24.068969588606308,8.10955473632788,24.147664928114523,17.687381108553982,17.218757882123604,16.506347461860855,53.01705022672553,49.08228325131171,80.39519003939009,400.0,393.3374848610352,380.8394964348213,363.6717264245861,{}
81,4,81,0,2.699999999999993,14.422205101855928,142.61135999632003,16.970562748477157,28.42534080710388,44.04543109109059,46.86149805544,48.60041152089143,108.23123393919155,79.81227975693962,72.58268094627812,90.36417106466172,83.91976636458861,38.63476036407479,21.0274433456932,9.29450997283277,24.05172171845476,17.492855684535947,17.029386365926406,17.029379004738644,50.26477326875224,47.58092413690355,78.10249675906655,399.99999999999983,394.6061327450449,385.0324661635691,366.2157833846051,{}
82,4,82,0,2.7333333333333267,14.320025506682,143.51183743613876,17.158017473075653,30.058209711621647,44.2636029261177,47.215465382742295,48.96751369401216,110.46389197143938,80.41514011189554,73.1892886254584,91.08106129057757,85.94079585630698,39.638744405941054,21.8937231459671,10.06635314211303,23.53575238191462,19.010481015143508,17.158017473075653,17.867975139960436,50.46661835313122,48.11066336242408,81.53093862718225,400.00000000000006,394.7681448712182,385.1253733538457,364.9764257918523,{}
83,4,83,0,2.76666666666666,11.539758324040651,142.73892739236018,17.235505935625227,28.94687523205259,43.03524209622535,46.0034281179322,51.84500882387086,109.54123859162944,80.61328601570901,74.81643367485498,91.90025012293307,85.82564996734038,37.04549464965913,20.591459582541347,9.956923352146418,20.990055393275725,19.096335511358067,17.235505935625284,17.948769357371987,48.68449232310508,47.3930418963252,82.0366131068048,400.0,393.10297575897937,383.3883234675138,365.9787341006662,{}
84,4,84,0,2.799999999999993,10.198176703500351,145.0939296135682,17.36686913118978,30.42408571961994,41.9243062731076,44.91830892487897,50.99088351750196,108.94402442361104,78.53258253041223,73.35853692841016,89.50249726348903,85.60348864345752,36.65147512373642,21.31749213945841,10.891018986503012,20.37251856352418,19.241881320440328,17.545606626857346,17.36686731569955,50.96504546509371,47.00250920970549,79.53270262710336,400.0,394.4730680832838,385.9009469120312,369.9900756800307,{}
85,4,85,0,2.8333333333333264,12.978963329887774,142.76859662876575,15.831169345154231,30.235216637138404,43.09404833605352,47.49350803546252,51.91585331955116,110.95713082788389,80.72344141393299,74.18934489298846,92.48985720184128,86.92940805836582,37.83316959836213,21.191313994239067,10.575911083968094,23.32387261460616,19.12243002439484,17.259057686382082,17.25792809445113,47.94307713195354,46.72672888181839,77.72855452789916,400.0,396.0957304676206,384.73004152692494,364.65529826218574,{}
86,4,86,0,2.86666666666666,12.921439701924772,140.56570431953705,15.696277359044217,30.101212147795778,42.9030526501193,47.17523367653543,51.86273167828827,110.46536145067194,80.36566975730902,73.84749072092825,91.0954075315624,86.21174558933069,36.9217568987612,21.737863335699103,9.783231578086143,22.58097109771279,17.65020258554455,18.60494711123801,17.89217840236182,50.06946567809186,47.03905004292855,75.84259865625707,400.0,394.7221155263786,383.4180709806102,364.6508212391539,{}
87,4,87,0,2.899999999999993,15.84460180555518,140.03863350931397,17.214034142550872,30.260870670731304,44.67733721402042,47.53380541666554,50.71733447406048,113.90530713482742,83.64517083453244,75.66836108526815,93.06215950790988,86.5221861978282,39.22006968724327,24.04448470290617,9.058693381739545,24.819475494185497,17.451480312930453,18.648536987763496,17.939455204256774,50.23996425507755,47.27443826803912,77.58260344819395,400.0,396.06828781656367,386.2890033571971,370.2712779314556,{}
88,4,88,0,2.933333333333326,18.59526512507507,135.20567532781118,16.96526193224646,32.63945719748031,39.68646639901914,44.03167334248349,48.585231007786206,116.62546489976172,83.9975610127458,74.60356581287238,92.2266726311401,84.94250770155861,40.1732732479947,27.906865639305465,7.347231292608171,24.761430783349965,19.993752928162444,19.84323319950951,19.84225446726896,53.046694600815584,50.02739247091338,76.46140224798991,400.0,390.7026933978793,379.4917538701802,359.4985750793352,{}
89,4,89,0,2.9666666666666592,17.27377598857637,131.73693494031738,19.878538956230827,37.02634827867848,37.16222524274668,42.80932372279845,50.200891771542125,124.19014756456114,87.18205478496581,78.46472999992721,98.47009941951175,89.3000036422032,43.852265448582216,30.19006194252472,7.938638658565196,25.65148413382269,21.48691999215714,21.34571197843212,20.63658800560711,54.52489381102436,51.72119898721888,76.79259802285574,400.00000000000017,393.4443450355662,381.32856456049984,358.43577343349665,{}
90,4,90,0,2.9999999999999925,17.396526845072454,129.83766168162256,21.44978546970281,37.28946480671129,38.84721371171658,43.27922056054093,50.55762920207847,126.49514784982144,89.22239888275675,80.47018334728051,100.21140720430044,91.55600166889536,45.47223922585994,30.52912061129291,9.408049495005455,25.6055747089066,21.639610280270475,21.49739881457065,20.78394934271637,55.742693257907774,52.96731865688105,78.8569369950242,399.99999999999983,393.4020344547605,382.2370762233467,363.6214916297265,{}
91,4,91,0,3.0333333333333257,17.110748922857027,127.61073303616529,21.3145553243328,37.19035323197076,38.60230150199429,42.84172598580911,51.64596853873553,127.11133824643144,89.92620742807964,81.32120588394906,101.40231563592278,92.09653159939892,45.25636800488945,30.26152717381001,7.915038158076413,25.604695365524208,21.736666704465204,21.50318338462225,21.404879200014307,54.6054897316765,53.15564700287004,81.19449973765354,400.0,394.81502133776416,385.2821651269784,363.7795120301239,{}
92,4,92,0,3.066666666666659,14.16978315114735,130.8138255013107,19.78953685099248,35.361268823317474,38.30281545610359,42.50934945344182,51.07042060813801,120.37505324917302,85.01869890688371,77.89206839791711,97.23344467955104,89.02848862996717,42.10934340389866,27.20052958583301,9.383829045213702,23.81323451172318,21.56802835626132,21.19613791844256,21.196136461424885,53.505115694987325,49.29260952393665,79.15814740397003,399.99999999999983,393.3168474792645,379.495583055391,359.55837704305065,"{'neutral': (['m1', 'm3', 'm12', 'e1', 'e2'], 3.001587604405639, 124)}"
93,4,93,0,3.099999999999992,11.407316674041176,132.67691240003637,19.8086489445566,34.22195002212385,41.12966518371111,44.066918953023695,51.63913181819155,116.88164863139184,82.6599167994933,76.84582461481409,96.30688149808265,88.07005742243877,40.80191926107318,24.515471656959107,9.453627632273196,22.45626563804808,20.00975713548528,20.009757135485337,19.90565818280612,52.09635227388796,49.639345092232645,73.91432028758004,400.0,392.06105273585325,379.79552198855566,359.7863394499622,"{'neutral': (['m1', 'm3', 'm12', 'e1', 'e2'], 3.001587604405639, 124)}"
94,4,94,0,3.1333333333333253,10.083407024751684,140.47456307025703,17.11210916319842,28.66242811753108,42.99364217629663,45.72132980331215,53.45156903284886,109.13395845999868,80.47797023625725,75.31154165051373,92.65524033942722,87.56993258665909,36.903471857244256,18.8716237247221,11.080372397086649,22.603959690056683,20.41734308449386,20.014991458245422,19.256520871147245,49.75670383786451,45.46451747773003,80.05996583298169,400.0,394.7985442561282,382.2263036542695,363.65468780015055,"{'neutral': (['m1', 'm3', 'm12', 'e1', 'e2'], 3.001587604405639, 124)}"
95,4,95,0,3.1666666666666585,11.407316674041288,138.2918888813335,15.563938456437292,27.031693336406484,42.65881245326606,44.225637466678826,51.42546513160967,105.31293150987985,78.28138204839016,72.52009466985231,91.61768740443284,83.9088584434644,36.46625057873808,17.463828572070838,10.881186558074944,23.649925886428207,17.21304393939715,17.03769426742666,16.987974932504812,51.011510161470994,46.41159164566656,80.84783833621988,400.00000000000006,393.12935138418095,382.0580049038803,364.69394927078105,"{'neutral': (['m1', 'm3', 'm12', 'e1', 'e2'], 3.001587604405639, 124)}"
96,4,96,0,3.199999999999992,11.411672451525073,139.9286256819726,14.15443763743887,25.63477684415125,41.266922481246965,45.646689806100056,52.84744630878686,103.9460114366954,78.31127306404865,72.5608832236781,92.61973409592116,84.25893838534006,35.69416630286537,15.43531515799583,11.607858960281362,22.87061941093281,20.266070534415373,18.45512877805648,18.403946655608365,48.807909668805,45.796140857488695,82.29074032554657,399.9999999999998,391.87347304045926,380.97530700249854,362.54430649939775,"{'neutral': (['m1', 'm3', 'm12', 'e1', 'e2'], 3.001587604405639, 124)}"
97,4,97,0,3.233333333333325,10.11152584041571,145.2826059558702,17.159828375762313,27.319838399891328,43.11353521404787,47.534927175213134,51.97363626283264,106.43551754095289,79.11582454961689,74.0043198129909,92.45783914939216,86.37008019305364,37.57288730865218,16.931579597316727,11.79503297790592,23.20958102104084,19.078388798956816,20.070805713680084,19.30961043963645,48.70207165070861,45.467949705153785,80.28322285472034,400.0,394.647555521924,383.1187621894727,365.9115180707061,"{'neutral': (['m1', 'm3', 'm12', 'e1', 'e2'], 3.001587604405639, 124)}"
98,4,98,0,3.266666666666658,17.121988504984184,147.2889143384388,11.463754537435396,21.517308236593248,42.86986754173148,45.7004378268358,52.91698437697988,103.00708878969331,81.49629908450899,72.87778707566844,90.298708880162,84.48909300996468,34.520848461998185,15.514765437805522,7.382888380748739,24.48677794130259,17.58797807002946,17.12198850498424,17.072186336159803,47.15062047995116,45.16916895532725,81.24783417977478,400.00000000000006,394.7390230827379,382.2700373954606,366.5892897965072,"{'neutral': (['m1', 'm3', 'm12', 'e1', 'e2'], 3.001587604405639, 124)}"
99,4,99,0,3.2999999999999914,35.59199025864405,148.62671219389907,11.468900516306826,22.80508361565525,41.4738707724054,45.61016723131016,51.703092011234,121.45043716024205,98.65921269662444,80.81067946672107,91.88193180583863,87.52913174088638,38.13431361251583,31.69973960345624,7.475460981113542,28.10394824545216,18.979077902308703,18.547678867428008,18.499400276046742,48.44855724468519,43.906505002996056,78.35611509655811,400.00000000000006,391.9045207260855,382.0392821464531,363.73150759493166,"{'neutral': (['m1', 'm3', 'm12', 'e1', 'e2'], 3.001587604405639, 124)}"
100,4,100,0,3.3333333333333246,52.55532294625601,143.85862413707477,9.939269478115396,22.89512924638949,42.691423956864185,48.3599028965393,51.82132796572908,136.90768943698143,114.02566507242123,87.7466104133145,94.67879160787204,92.99150984754344,42.26163277049437,43.02568488837892,17.318514672051833,32.23344872325845,18.94377063140577,18.51317413933916,18.464592848878794,49.77481192969341,45.06315720273796,82.54956245623266,400.0,393.2726454985244,379.3566831502284,359.84200921287646,"{'neutral': (['m1', 'm3', 'm12', 'e1', 'e2'], 3.001587604405639, 124)}"
101,4,101,0,3.366666666666658,49.69690567350606,148.29136987271664,11.354659116073226,24.29505708059883,44.09077881817131,48.444789845502,51.586435761281095,136.72820165614152,112.45018594514428,87.60256890991315,96.34275603308448,91.17970988017998,42.32753385719542,42.93356214038681,15.9613682897716,31.025499900532623,18.93625593616475,19.921279403849034,19.16859589237629,49.04893845259235,45.837775601395634,78.17932237116273,399.9999999999999,390.2983424665696,379.389432720459,362.3191704911554,"{'neutral': (['m1', 'm3', 'm12', 'e1', 'e2'], 3.001587604405639, 124)}"
102,4,102,0,3.399999999999991,31.465000899737586,147.3982396259313,11.39482932274504,22.967012749460263,41.4043710562071,45.66825262879834,54.59196609100426,120.3304901872326,97.36788310249834,81.55948363974886,93.90181858727745,88.68372717123736,36.832418480800015,28.913944901208083,3.260314347464828,25.57023639869232,19.00324811151511,18.57129968192829,18.56909852465992,47.84441809775512,45.78736227316711,79.81465882208586,400.00000000000006,393.26608473481417,378.293960998809,361.1712667884746,"{'neutral': (['m1', 'm3', 'm12', 'e1', 'e2'], 3.001587604405639, 124)}"
103,4,103,0,3.433333333333324,15.80086868311034,148.03878352791622,14.305434343452738,24.48695925674849,41.584300731506254,44.43904375022215,56.083871063540265,110.6060807817726,86.13012031869435,78.20101730099464,91.91253327662196,85.75714768756325,32.812940101673746,21.701679961424304,3.843170233168564,20.202291164089672,19.08582993017617,18.59706464648846,18.60820412692317,47.17550647614368,45.42358903925785,80.22530434775275,400.00000000000017,393.2121287095941,380.4277375284552,363.04249992002826,"{'neutral': (['m1', 'm3', 'm12', 'e1', 'e2'], 3.001587604405639, 124)}"
104,4,104,0,3.466666666666657,11.521754205400557,153.0974090273701,15.84241203242572,21.794472411690844,41.791182984283935,44.73961843104051,56.62827910940081,105.6182623440466,83.84253552765527,78.05243079490452,92.48843513192004,89.50001353293868,34.51144943339955,14.540438425152049,9.752537153665514,20.36464718660796,17.521023690979085,15.90774184374303,15.89808157092591,44.537121894498966,42.78584257036445,82.2943865036669,400.0,397.4718190283566,383.3581284291055,367.8456493112353,"{'neutral': (['m1', 'm3', 'm12', 'e1', 'e2'], 3.001587604405639, 124)}"
105,4,105,0,3.4999999999999907,7.1932673751703495,152.82942557817032,14.458288485985747,20.34563255948365,40.30797935475893,41.82005056115216,53.54033519133244,95.48368149850316,75.15501518947441,71.43813531149806,89.33638845780536,85.16661570350703,33.838698704167825,8.0178773246937,12.94218038691264,20.06653497854245,15.01998323946496,12.94788127530664,12.938209174765746,43.70716088934063,43.21473058311878,76.3706863149689,399.99999999999983,394.529567935563,383.3653855286768,367.63156220074814,"{'neutral': (['m1', 'm3', 'm12', 'e1', 'e2'], 3.001587604405639, 124)}"
106,4,106,0,3.533333333333324,4.340538713576159,152.09100104169462,17.362154854304293,24.638903596582725,40.537522966562655,41.98347911163325,53.70899032393068,99.99999999999996,75.36110820366103,73.08947359361616,92.16424633807064,85.80321706627132,35.426359754903444,10.880270329607129,13.832120514559731,19.394902975780383,9.150659071358444,8.800822082749862,7.945050286541573,47.021726185654046,45.68299976374601,76.69649888473705,400.00000000000006,397.29038286226097,391.7187560472814,378.733939740232,"{'neutral': (['m1', 'm3', 'm12', 'e1', 'e2'], 3.001587604405639, 124)}"
107,4,107,0,3.566666666666657,8.808303292720588,152.68431484602482,16.215148302829586,20.605071354335163,39.63736481724248,42.57346591481604,53.1750524860724,98.5345204694169,77.9312252057477,73.20851191566385,95.14926726189526,88.45050397506338,39.18231567084917,6.300526420593428,13.535861485093848,23.646885920537105,7.90569415042101,9.28476690885257,8.90373793568881,47.02548595223985,47.68781674029964,76.33862853691139,400.0,401.9617840816076,400.7347777133468,387.8377282424648,"{'neutral': (['m1', 'm3', 'm12', 'e1', 'e2'], 3.001587604405639, 124)}"
108,4,108,0,3.5999999999999903,28.750206362085137,156.69521861864484,15.812613499146734,17.25012381725107,41.71257652244128,46.0227857970658,50.39493763377895,112.16265799465936,94.91923191798918,80.192836832424,96.73788527363996,88.97184212776307,42.79765081477785,18.90862678996104,0.0844135124551712,28.19411316003124,7.741229974947785,7.741229974947781,6.62646072773191,44.232680526515935,44.90798862615748,77.67878005476196,400.00000000000006,400.2891964847936,394.7268270146801,377.6167505432602,"{'neutral': (['m1', 'm3', 'm12', 'e1', 'e2'], 3.001587604405639, 124)}"
109,4,109,0,3.633333333333324,58.78525148766147,165.06063908232198,17.25994414140581,22.97851434882279,44.45728335173604,50.18808442065977,51.62087630877789,150.53013569038674,127.57712290105192,97.96568788239024,107.1046613232656,103.39978310139168,53.90145998409315,45.04589740497977,20.91900752106892,36.8146602025015,10.135388187527784,10.13538818752786,10.165824389288332,42.059814846994925,44.959641925313065,81.71411194690997,400.0,395.98119834382544,389.11707565421335,374.9956662178793,"{'neutral': (['m1', 'm3', 'm12', 'e1', 'e2'], 3.001587604405639, 124)}"
110,4,110,0,3.6666666666666567,73.45635391633566,169.6950483227448,17.00707920395202,21.18541580104128,45.217616465246735,50.864610265725055,50.84499792249901,162.4460820852254,141.26434973718597,104.38913927677476,108.55515524105084,104.5920684211664,55.865199750177965,55.61850157464295,33.32812771420873,40.51420682737262,9.986900783448666,11.38681884619144,11.42371712840179,43.11647467898345,42.97323057705995,77.79532892688705,400.0000000000001,400.50585144323327,392.6897137948538,374.66720469641865,"{'neutral': (['m1', 'm3', 'm12', 'e1', 'e2'], 3.001587604405639, 124)}"
111,4,111,0,3.69999999999999,77.42019719661963,177.8936799161824,17.261163240118687,24.410971156511813,50.25300077628482,54.54693336745888,51.624522377580185,170.60601859930995,146.22010818278932,107.31678435703571,112.5503852619467,107.81217864116472,58.78812008836951,60.210381097642994,34.66561454344412,41.7289782074767,12.980546724835053,11.820627043096442,11.633775446641607,46.00774658088096,45.80799082115149,83.1901869031403,400.00000000000006,399.007321391897,391.0618768414572,371.70629061937393,"{'neutral': (['m1', 'm3', 'm12', 'e1', 'e2'], 3.001587604405639, 124)}"
112,4,112,0,3.733333333333323,76.60695064308668,181.75507130497328,15.666784738736046,24.112868754953265,48.246591883858486,53.91801366860629,51.08224185619723,167.37768731898615,143.26583011543306,104.8624888216113,103.00173486999716,102.28144301775944,51.71695499066993,64.58616941731748,40.38436318212939,35.8705342414396,11.435538997254572,11.69645938980326,12.148922574409823,43.31355004789626,40.74450910824825,79.44328979929907,400.0,397.31520268507154,386.2462926314922,366.74179926651726,"{'neutral': (['m1', 'm3', 'm12', 'e1', 'e2'], 3.001587604405639, 124)}"
113,4,113,0,3.766666666666656,83.34127045274889,183.65581985622305,17.007079203951943,24.010137907846783,48.04104134134126,53.68830051108999,50.9234019751196,175.13277062194138,151.12263271409458,109.28267472005216,103.8028901169618,98.76291469025853,50.645413446637406,73.62643347405856,48.10957675395639,34.85983003469846,12.789473292667374,12.711249480624788,12.766352849715645,45.98581352383616,46.32656657941513,80.55412132867292,400.0000000000001,397.59907797257006,391.0480644430429,373.2616693170144,"{'neutral': (['m1', 'm3', 'm12', 'e1', 'e2'], 3.001587604405639, 124)}"
114,4,114,0,3.7999999999999896,83.3787010367047,182.29830947645823,15.542949168713587,24.02092144255732,49.454838264088686,55.12493212879904,50.88745479466717,173.79843161379736,149.77751017124007,107.92567860930188,106.66256923676129,100.43278905984812,52.81278601792417,70.03629591880178,44.55579326779775,38.481952519593165,13.027173714399842,14.409782020009333,13.512151497610148,44.700037239353264,43.43692786681268,79.17818926159889,400.0,400.23702079442256,390.5622491338309,369.767689166703,"{'neutral': (['m1', 'm3', 'm12', 'e1', 'e2'], 3.001587604405639, 124)}"
115,4,115,0,3.833333333333323,90.47584958488795,187.9761874383278,14.200427811906865,22.60792606358337,50.88745479466721,56.53747484230122,52.28082902203662,179.50047291271014,156.89976020552692,111.62771487677544,104.17745775702446,98.9741035781509,49.3609098695876,77.86109980387266,53.736457701822246,36.455014731987376,12.795217355017654,12.795217355017678,12.771869348144378,44.48867822936958,46.31773606194332,80.5903001364232,399.99999999999983,400.2993713621347,392.1361312912578,375.5086727803368,"{'neutral': (['m1', 'm3', 'm12', 'e1', 'e2'], 3.001587604405639, 124)}"
116,4,116,0,3.866666666666656,86.69860045673082,186.00559599075,12.661082567876248,23.76910538541355,50.3539915694899,55.94478134260758,53.13094144974802,176.19320836397276,152.42756356953424,109.02691336844616,102.98731810339932,97.89031863116338,47.37416632756373,75.65204011188689,50.37650848244243,35.99319490325587,14.05156192639544,14.051561926395332,14.069114981583027,44.05762557508135,43.14994073755986,82.54015992896811,399.9999999999999,400.2320788041655,390.5837740173387,372.5887923846369,{}
117,4,117,0,3.899999999999989,83.62261769381102,186.8144229274978,14.004670157568796,23.68978499378837,50.18595418371462,55.740670573619816,51.5789481505997,172.80169770607486,149.1128054028293,107.20040702474518,102.67135991019114,98.86151770224012,49.34134418705588,71.88161471940305,46.69778020602871,36.61336113722757,12.541650879064427,15.391895745643422,14.718431223778282,43.94536359048851,43.0356665734879,82.22929771217814,399.9999999999999,398.8404680572401,390.6721204315105,371.4316923084516,{}
118,4,118,0,3.9333333333333225,88.14765617752273,188.8755787723449,12.663635821679426,22.37543407110649,51.7431912894339,57.354101718310886,53.160053584625246,176.22873976319912,153.85653376745643,109.71234182135498,103.07792267875244,99.23694317514042,48.15191577710016,74.9689363114096,51.15486338901496,36.76864924821359,14.054395586450674,14.054395586450749,14.071952181415044,48.32650575453707,47.27896588991561,81.1591570995405,399.99999999999983,398.7610990557856,389.1980077402299,368.5637545759373,{}
119,4,119,0,3.966666666666656,84.76723634225732,184.8046314990441,13.958076443575605,23.610968780758085,51.40734434050252,56.96103622617397,50.01898488208892,172.24358388982466,148.63617338352577,106.18615370150678,102.30214024149086,98.62619893111868,50.596211055028846,71.68085555225827,46.64284021179839,37.90380992676256,15.34068671464768,15.340686714647664,15.36266038202723,48.06466656769706,45.706515538401646,82.04981365702531,400.00000000000006,395.8918583324005,384.9229168782123,365.6556040000383,{}
120,4,120,0,3.999999999999989,81.68405436206466,190.11928567325967,14.081364854557023,23.97970026678284,50.71246715639057,56.34305837488889,50.69291347640536,170.4077881338752,146.4529642178712,105.57609164808105,94.91254294942844,91.46370848996582,42.52273697889092,77.19666907806288,51.33814344478208,29.237764778539088,14.151596536392102,14.151596536392178,14.120115970804648,49.44360433588452,47.24748553210097,81.72045816140391,400.0,394.5823566846484,386.4071227115626,369.9005963730589,{}
121,4,121,0,4.033333333333323,64.10174727238281,176.94024418295712,15.325057890347315,25.077367456931864,52.94110907574534,57.12067031856724,48.78144644539525,153.25057890347304,128.17321144654116,96.07297748801022,100.1303170644768,96.58257622676103,49.652811461188094,54.834380316272814,29.15215990991419,35.033940772442804,16.718244971288005,15.576305091789196,15.396884030349725,48.10456491139541,46.28401369204138,83.69564866337065,399.9999999999999,393.1775361893278,380.913755997132,364.6878418405806,{}
122,4,122,0,4.066666666666656,48.62625852687092,163.8730839909412,15.339299776947431,23.608834134288013,47.21766826857614,49.995178166727854,52.790957993785646,140.27112471267256,116.66368182800662,92.35095144102128,102.82302399510267,100.09218518541957,48.71538724053363,38.81031087998815,14.186476189286054,33.83462999793829,15.526752351113435,16.72282406606176,15.991606927890189,46.53997327349799,43.53142204249119,80.54778704639475,400.0000000000001,390.3612055277769,376.6087318869039,358.7533326850534,{}
123,4,123,0,4.099999999999989,36.352749412985474,153.80009367032324,14.051561926395337,20.97274004595315,43.34366276163656,46.14002810109697,54.690214940507126,125.86750716676768,104.90097847489275,86.65019672272598,97.33731761295832,95.5995743787742,41.9901956041943,29.328366493298176,7.195836756098743,29.64431980860445,17.009626307894493,16.77819203676253,16.085973165527037,44.76268594600626,43.23821119965382,79.69641217462191,400.00000000000017,391.6933324515882,379.1163994121806,362.4557668277798,{}
124,4,124,0,4.133333333333322,28.164649488667976,152.11518338254572,15.490557218767378,18.36110506882136,39.43050928413516,43.6779142287147,52.18066670629089,114.14503875535144,95.80121791022228,81.67748351713709,94.35157578703765,91.53511083817084,40.83874175856852,21.123487116501,0.0,26.75641701423456,17.131887458865137,15.554436076243809,15.490557218767378,43.65520670743538,40.83874175856852,76.04455361940347,400.0000000000001,391.5291504707828,380.2644912144585,364.7757058129954,{}
125,4,125,0,4.166666666666655,23.89721580178169,148.7755149416523,12.629635478021235,18.242806801586173,40.69549209584615,43.50207775762865,53.39893401413693,108.13552749994936,89.90935606316125,77.90104012540178,92.2261000433828,90.24592849553676,37.89611769322772,16.839254107667557,4.326752791553417,25.14973784784047,17.071794101562748,15.499875930024496,16.12982256887227,42.75299515113375,41.45107133817979,75.77781286812731,399.99999999999983,392.9445449228369,381.7059681925947,366.26211715319175,{}
126,4,126,0,4.199999999999989,12.716958410765642,149.80416808907526,14.12995378973966,19.83233522249334,42.389861369218806,43.80285674819277,52.3571514408054,99.00047027351788,79.17818926159882,72.76926201715906,89.01870887535961,86.19271811741169,35.32488447434906,11.30396303179174,9.890967652817722,22.607926063583363,15.79776859639426,15.542949168713562,15.542949168713562,42.38986136921889,40.97686599024488,80.55313034423774,400.0,392.9753286462206,383.13285671465496,367.5119220553652,{}
127,4,127,0,4.233333333333322,19.576112141720035,142.7355878535082,13.982937244085749,21.020963983053,41.9488117322573,44.767242189054016,46.228360303112645,100.76450361693873,79.75179013734093,69.85837455128888,90.62015297863992,82.65098550147485,40.54488716452392,13.957693914683771,8.062374114324882,26.93671813918945,15.44465899416007,15.444658994160074,15.4023967906611,41.36044523967232,42.47892488559023,79.7027422912887,400.0,390.1865916490068,377.6040358617879,360.8031362371789,{}
128,4,128,0,4.266666666666655,15.602738778923715,144.68689432964428,17.021169577007836,28.36861596167971,45.38978553868726,46.80821633677132,44.06277137720453,105.0022080275616,76.64777956694647,68.73593899986986,84.87728645166658,81.00720910283673,39.02528307966037,21.958482348795712,8.857909956793833,23.809388906931645,15.667080242734654,15.858538429475272,15.63655475412321,47.6187778138634,45.93613548828512,76.59526309653492,400.00000000000006,394.3263129936234,382.9999552663761,367.41738662585095,{}
129,4,129,0,4.299999999999988,18.309405148330058,143.66531345839343,16.90098936768917,29.576731393456136,45.06930498050453,47.88613654178608,42.34626370870025,107.0766564872705,77.51406613510493,68.25061985071636,85.68621271693365,81.84346055887619,41.56616697675207,23.21165511621672,7.387153993284414,26.45770662861304,16.959571828849384,16.959571828849363,16.218323549068657,45.89821366425167,45.6356653801607,74.65932213296499,400.0,392.9707185257525,381.72225113900464,367.6936380405463,{}
130,4,130,0,4.3333333333333215,23.727279958211405,143.6195047991455,18.16659006363129,30.65290480020506,46.000463172133074,48.785885332571176,36.4665133464468,108.7588344412262,78.13745836019052,66.08868558622135,89.3048514830204,80.54461821796161,48.80038071507164,23.63405688294148,7.878018960980512,32.58001947517471,16.950394614862354,15.577722463883587,15.38457926761214,47.577662644507,45.8132340363502,75.23894814595766,399.99999999999983,388.82444624635775,377.6805880776664,363.75099395752335,{}
131,4,131,0,4.366666666666655,30.4469107934278,139.8064018258849,16.607405887324212,30.446910793427683,45.67036619014159,48.43826717136233,38.9723996649588,116.32595778954229,85.90531971103319,70.50097884330893,92.47683286066768,87.34053400282187,51.23399477152645,26.2561030655636,6.578684153542326,35.027681936953456,18.04450673413686,15.286232798704775,15.936598510987436,47.844975662125904,47.63389488714583,77.5012274741797,400.00000000000006,388.91225013822367,376.4981287400126,358.48592202487833,{}
132,4,132,0,4.399999999999988,41.52025435385725,130.361550482218,17.992110220004875,34.627881067898,42.92657974557455,48.46006426249509,41.88769739558705,135.80924785060807,101.18417741370942,80.24012419043845,102.75712028108865,93.72233110383188,56.75122737073752,37.35208881888241,0.1088528816536609,40.267791006035,18.203789386900155,16.665668991249465,16.619502466769575,47.786415045972376,46.32467634947986,74.73645783694302,399.99999999999983,388.9285456531157,373.7053552807953,355.7144117507244,{}
133,4,133,0,4.433333333333321,41.23102762352847,127.93435617534765,17.866778636862307,34.38666605186928,41.23102762352841,45.374949358924425,41.59591108677802,134.86321162526414,100.4793366257662,79.68098924676565,102.0354589448205,95.81596251267678,57.72639978123948,35.72133999510288,0.1125876382847081,39.97637625579546,19.436492818591248,19.29016833236141,18.56143098756513,48.816447027325694,47.387748720815694,75.5902173098023,399.99999999999983,388.98487668896615,373.8911387270817,353.2552492547172,{}
134,4,134,0,4.466666666666654,23.47987640063668,146.25531893445762,17.924215626407946,28.95450216573589,42.764593038585225,45.52081787528829,51.1824907088716,121.45843142073822,92.54313447271642,80.6312381041131,96.89990760461416,90.58183060185848,42.74929079922117,27.56014884415498,2.6514711642259954,26.32532084481545,19.498976025973768,17.97716763431532,17.931520702065654,48.99161148299893,47.5143632629302,75.84575333867069,400.0,393.07246729504135,379.3265063907926,360.0321051962124,"{'neutral': (['m1', 'm3', 'm12', 'e1', 'e2'], 1.816749259207783, 80)}"
135,4,135,0,4.499999999999988,2.787439525603922,154.8033093529378,15.33091739082143,20.952202262597265,39.12357811413817,40.44189563340483,64.12625642733813,103.17292367279052,82.24127634160641,80.82686838579241,92.4052885657373,85.98049059551653,25.09040589919931,13.925500725681104,6.872772560516182,12.661982650488651,18.17188245967387,18.331521389668545,18.82641932036671,49.51459317693349,46.65061887316412,82.22946600531493,400.00000000000006,395.8164126357533,387.4540940589416,373.5272971798675,"{'neutral': (['m1', 'm3', 'm12', 'e1', 'e2'], 1.816749259207783, 80)}"
136,4,136,0,4.533333333333321,2.7870335286810097,161.70199446724678,16.78016391493863,20.94915052656187,40.43600517908913,41.82872176173557,65.49528792400322,105.94393923693056,85.0159441260141,83.60203094419268,92.40183952409984,87.32828409613938,24.37077345555224,16.02519821441541,6.15524668384586,10.55130153872517,18.16923568355753,18.169235683557503,18.12314032992259,49.51143392596953,46.64745423067163,78.0369388030676,400.0,395.8470727046096,386.0946865392074,372.1629091720717,"{'neutral': (['m1', 'm3', 'm12', 'e1', 'e2'], 1.816749259207783, 80)}"
137,4,137,0,4.566666666666654,15.182268256428866,159.49971973375602,16.49445579856122,19.243531764988088,41.25904210272105,42.61067747961643,60.49528899470788,111.371510678455,92.135066723604,84.52140480885936,91.13579327143948,86.13133632902804,28.162410578046263,22.687124606151656,2.1832797738138083,13.156633767416736,19.292559950856702,17.921782652414795,17.876315087156797,48.84471480059148,47.38666361251416,75.61208384404608,400.0,395.8693255089413,386.2476190723541,371.12780089960734,"{'neutral': (['m1', 'm3', 'm12', 'e1', 'e2'], 1.816749259207783, 80)}"
138,4,138,0,4.599999999999987,28.47457627118644,158.69621046615174,16.27118644067798,21.737246836449355,42.055762492937866,44.74576271186436,57.01368418068783,123.45686389250211,101.73106702048918,87.45762711864404,93.5593220338983,89.49152542372883,34.57627118644069,31.86440677966101,8.813559322033882,19.66101694915256,19.17577711692336,19.03141538660093,18.983050847457605,48.81355932203394,46.1016949152542,77.30002882028052,400.0,391.8667526761052,378.31480456500697,363.3999492646341,"{'neutral': (['m1', 'm3', 'm12', 'e1', 'e2'], 1.816749259207783, 80)}"
139,4,139,0,4.63333333333332,30.06444028186379,159.7465757672458,16.381870920334507,21.84249456044597,43.70631447687086,46.43537242337386,53.31104251928621,121.5678811338108,99.74049937741113,84.63966642172812,92.83060188189536,90.1002900618396,38.22436548078048,30.0334300206132,6.825779550139373,23.20765047047388,19.16087627852002,17.799455384260657,17.74702683036236,47.78045685097558,45.05014503091979,80.5557669787694,400.0,393.1672721432277,380.88828483593227,365.8719714763027,"{'neutral': (['m1', 'm3', 'm12', 'e1', 'e2'], 1.816749259207783, 80)}"
140,4,140,0,4.666666666666654,25.974467700259986,159.82028136544193,15.017064846416442,20.52327150631112,42.40880427852313,45.071874455205815,53.312284477178494,114.8057121727161,94.28694416290516,81.24656079820204,88.30631057067984,83.74297421584635,32.76782281685166,28.679993779664585,6.714623493540955,20.3586157208502,17.956240870943184,16.4390369676345,16.374324567344217,47.0675549741413,43.00273435554988,79.19265535712314,400.0,393.1835417893815,382.2623109433956,367.2456448348025,"{'neutral': (['m1', 'm3', 'm12', 'e1', 'e2'], 1.816749259207783, 80)}"
141,4,141,0,4.699999999999987,19.09515399282242,159.22770405516053,13.604733910534522,17.73840280633975,42.19661253642788,44.91623040798586,53.21520841901912,103.61949818871796,85.88240840440744,76.23471149637874,84.8882997449515,82.57563773266918,30.631435084249347,19.73320429434375,0.9295994363095588,18.14608330552244,19.23999920875505,17.68615408369485,17.67750472787054,47.553167912681175,43.56269228364488,77.55891634902164,400.0000000000001,394.5396290423055,383.6559084563534,371.4117274587412,"{'neutral': (['m1', 'm3', 'm12', 'e1', 'e2'], 1.816749259207783, 80)}"
142,4,142,0,4.73333333333332,12.362228530250052,157.00160811435993,12.28661786053375,20.47769643422288,40.978139547715806,43.70707812158818,53.39929913879812,98.44451266263547,78.00661531315801,71.64428674455752,83.67664379957694,81.43930038247595,29.33953562391588,15.703117102059592,4.660500101046011,18.53202928707208,17.79976637959943,16.438941224566193,16.389488557136417,45.76315314843168,42.99491468320503,79.1804262123285,400.0,393.1741416336894,382.2600845984677,368.6086481199824,"{'neutral': (['m1', 'm3', 'm12', 'e1', 'e2'], 1.816749259207783, 80)}"
143,4,143,0,4.766666666666653,16.38139390859908,151.552488346094,13.65116159049931,21.841858544798853,42.31860093054776,45.04883324864753,51.94621257520581,103.78474597984768,81.95246078201677,73.69986981623788,86.39753985390718,82.82083880425739,32.75083722328577,19.122767339012512,3.9694518045686777,19.21428207802268,19.16031834695721,16.43817534023737,17.750046253858955,45.74974327686374,44.36176973520858,79.17673722489576,400.00000000000006,391.79071589125886,380.8698548118019,368.5914747763224,{}
144,4,144,0,4.7999999999999865,17.85915292894895,153.4102643021182,13.697345026974874,19.17628303776479,42.46176958362189,43.83150408631956,53.57745878684696,104.24390507286516,85.10009557231123,75.99245845919336,88.05735035195369,87.20508425798386,34.23522461402007,16.436560383703693,5.357101162096058,22.029556625380792,19.37097110565148,16.493787562066768,17.12902658505425,45.91583581262429,43.13836148852616,79.4564083351113,399.9999999999999,393.1161885639783,380.7861917499006,367.0888467229258,{}
145,4,145,0,4.83333333333332,10.956591318366405,154.7618523719256,12.326165233162175,20.58921057321376,41.08721744387397,42.4567913586699,56.30264893120554,100.12887358168088,79.54147612651231,73.93330000516568,88.05023342091033,87.19990640812824,31.495962053091205,12.322216667527584,9.47023491669222,19.28285814384094,17.85705911887922,17.857059118879242,18.496493782462835,44.54058043059288,43.11835206408136,78.07772602534975,400.0,391.75799405826814,380.78095847256753,367.13778394940846,{}
146,4,146,0,4.866666666666653,9.621481849317128,158.07317777292766,13.744974070453022,20.663226891417096,41.23492221135907,42.63158316716886,53.67583963955057,97.67639308435798,77.02092834417914,72.14482498374622,84.26072080623624,82.01295824687742,29.547446346166623,14.42820561750625,6.075033944213089,15.916588933838398,17.921253603909065,16.55114052524074,17.188549165908057,47.45360889673489,44.64390569753638,78.35840826877697,399.9999999999999,395.8576395020753,383.48723981473,369.7398024951862,{}
147,4,147,0,4.899999999999986,9.655115011377433,157.2646408925482,15.17232358930742,19.310230022754983,41.379064334474926,42.75836647895746,53.86347063460885,97.96929813533364,78.66860391530315,73.75853189297663,86.33181374848834,81.8735732803022,30.34287408949461,13.79221549522481,8.051671748563706,16.77431614284103,19.359428140766,17.983899715622954,17.944790647030402,45.61122940528946,42.673860267387454,77.24092009101982,400.0,394.482824682009,383.45591907475045,368.28400428317065,{}
148,4,148,0,4.933333333333319,15.016977385096787,152.90622780658222,13.719886811400684,21.8428761965044,39.6137436955262,43.70707812158817,53.31197397956798,103.8344634822152,82.01311030612744,74.32469159671933,87.16463831857442,83.27965443894766,32.03236708472133,18.449923443787043,5.782476006162483,18.71992232345224,17.799766379599358,16.43894122456614,17.08492910770201,45.839809792043184,42.95232177340182,77.81524645004687,399.9999999999999,391.8089701295343,380.88515367654543,363.1378167668855,{}
149,4,149,0,4.966666666666653,16.438259768415875,150.69027436205084,15.068404787714623,21.96044593616268,41.09564942103972,43.85675814348384,53.494547095308285,106.92768938423552,84.97518618426082,76.65557121871558,87.45309509794504,83.57237827031503,32.14146643119466,21.252631567785613,3.036090223969381,18.81006274098325,19.22683087838424,16.495238309344717,17.143637279706752,47.39040078917617,45.83811405812412,79.46339709786045,399.9999999999999,394.5182344419819,383.5593945963715,368.4909898086567,{}
150,4,150,0,4.999999999999986,15.067697939909518,143.82802579004567,15.067697939909577,23.28644227076941,39.72393093248874,41.18493979462892,54.80874858188418,108.22213623726256,84.93807073324251,77.3440196175984,89.18868214744435,86.01093812793926,32.851820315931775,20.556977383322646,5.008729859315281,19.58095600590309,20.59246989731444,19.37176616396482,19.217785260816868,49.43661767487288,47.85531172230958,76.7205097208251,399.9999999999999,393.16811762520166,383.5634159687745,367.1269129419398,{}
151,4,151,0,5.033333333333319,12.32876712328766,149.3150684931506,16.43835616438362,23.2876712328767,39.74963870834767,42.48784224457754,54.81164116093848,106.85809588085696,83.572871466683,77.37766815182766,88.44445241905635,86.81269119466958,32.85229364143862,19.19939238785372,5.247085405023597,18.009254614103725,19.22694362687424,17.80821917808218,17.814640890094324,50.76424139353762,47.84503553339613,75.34246575342463,400.00000000000006,394.5229261724362,384.9412566405289,372.6128121120461,{}
152,4,152,0,5.066666666666652,8.163076426905693,142.86031595603396,16.3827428080825,24.52699218561667,38.09435665889332,40.81538213452858,53.12972084803475,102.07472922845078,77.56115945969985,73.4193282340625,84.48210062338603,82.66853137923471,30.5888679180203,18.377501674067503,7.042693898121343,16.05008781073991,19.095706250974573,17.738915825378875,18.392614751102087,49.11750036243376,47.51551419676662,78.90973879342201,400.0,394.5580767020127,385.0275085276356,371.422469197423,{}
153,4,153,0,5.099999999999985,6.779037864861535,143.72199791151613,16.26969087566768,23.048728740529217,36.60680447025234,39.3417886640943,52.87649534591998,98.97395282697842,75.92522408644919,72.52552001856264,83.87408073989263,82.82139476040322,30.47866708241065,15.612317602283383,8.493433999980994,15.88495569769077,20.38225707653513,19.02966611533226,18.323551995500736,49.60498680327731,48.06761087639711,74.58174101839757,400.00000000000006,393.2052339925144,382.3473511138242,368.78962888705394,{}
154,4,154,0,5.133333333333319,4.27295805400815,148.65964351867987,16.270939515099734,21.619647675242224,37.8343834316739,40.53683939107917,54.06600689955911,95.9467017770173,74.32982175933992,72.26939996121172,82.25583986861085,82.48101325998397,28.349329973879264,13.532920821526204,9.119522350612442,13.803128891173913,18.9653884607424,18.965388460742425,18.261562040362264,50.82163443291944,47.84934566679388,74.31753888364523,400.0000000000001,394.5793932425556,385.1094564001258,372.9487137764932,{}
155,4,155,0,5.166666666666652,4.039579804565109,142.8905200479986,17.504845819782183,24.27485352781381,36.38114537342205,39.072480522816825,52.51453745934643,98.30566426339728,74.05896308369371,71.99828184333467,84.45036314082199,86.37072054796329,32.925813024017884,12.875467182526393,12.14966280817373,17.41174452223032,18.89940147346737,19.042761819681417,18.258516292308343,50.11074367926295,49.70247871868966,74.07120322311832,400.00000000000017,393.2687639491047,382.5296988207765,367.759562965746,{}
156,4,156,0,5.199999999999985,6.643198577297051,143.64678470287848,15.998940794844028,23.91551487826917,35.97155543943845,37.22563018129295,51.83397994656558,98.31933894399558,74.40382406572638,71.05289534384144,80.30373959743861,82.82253382490313,29.805731691664107,16.715634418628497,9.350069480739648,14.40292335522929,17.3233424573413,18.648347063981788,18.631444573457657,51.3986676598376,49.765267766875695,71.75884579985893,400.00000000000006,392.0297772201217,382.7612480067913,366.8224833509189,{}
157,4,157,0,5.233333333333318,7.999288983689688,148.08290257913043,17.33179279799427,23.997866951068943,37.42512373048953,41.35115762294828,47.99573390213795,97.32468263489086,73.3268156838219,69.29856591625139,77.95322766308647,79.03314563326671,30.5172563984641,18.791338580407057,7.364121477506103,13.767039371624833,15.998577967379262,18.71256186524477,17.38208392428521,51.61395178046166,51.15441221868281,68.04621921024793,400.00000000000017,394.6878871483675,386.7150432899125,370.7200361230541,{}
158,4,158,0,5.266666666666652,14.61141013999283,147.53811440782732,15.939720152719492,25.27282159449845,38.54388546195152,41.26321882455301,43.83423041997844,99.63210596104304,74.38536071269075,67.03934872886776,74.12580652673984,74.32531697908922,30.41767050434754,25.383868321993305,1.895349297319342,15.1781413364277,18.5963401781727,18.78514035033966,18.65422729466917,58.89395083775648,56.87582587745297,66.53494113759828,400.0,394.68916539998384,382.7400316791552,366.8541204625615,{}
159,4,159,0,5.299999999999985,19.96887810367956,152.84802770692076,14.611410139992778,23.909580229079204,39.87143273584133,42.52667018657275,41.199029179013735,99.62325095449654,75.71367072541733,65.68700527634394,64.96860246067303,64.89051519810016,23.82442381099918,34.63170095109194,7.410481218170503,11.252374536758396,17.31904365964431,17.319043659644255,17.304137386159937,58.971500695072535,58.0813059017411,63.81420286042767,400.00000000000006,394.7316316517389,384.1113363515154,364.25012013552833,{}
160,4,160,0,5.333333333333318,21.26234113154122,154.17488350672156,13.288963207213298,25.24903009370524,39.88903174476968,42.52468226308255,37.23281970940352,97.01853301528642,71.77270485977405,61.108784871583566,56.70613466469717,57.50661652049473,19.91598857224261,39.88000605583301,12.215353119470308,8.196934203366766,15.946755848655958,18.604548490098672,17.938798388422754,57.346520149335134,56.91425994720447,57.2043175299124,400.0,394.6822072542344,382.72214036774255,360.133354745364,{}
161,4,161,0,5.366666666666651,19.509234700766907,158.88535691646976,16.722201172085892,26.476818522469376,41.82872176173567,44.61430484508801,39.04334569950338,101.7362679845016,75.26280710136088,65.5097041752042,58.55970661420531,58.526729164331016,19.50616160062077,43.1922149728033,12.910671625770192,4.550888082646907,18.115717936426456,19.55893983788749,19.49379505691792,58.27939829027412,58.7575713134508,55.74067057361976,399.99999999999983,395.7980131195184,384.6510166274975,359.5705324257212,{}
162,4,162,0,5.399999999999984,18.770606198150823,164.6037774299388,14.438927844731484,27.43396290498984,41.87289074972127,46.20456910314077,44.7839588566887,105.41406247923372,77.98357859317179,68.59965759008429,60.7014222062266,57.83086269370864,14.487092744461677,46.14718187082872,16.207749762199,3.290231955868535,18.82605862678417,20.26600097433047,19.476998095899944,56.11020567597132,56.44594363065176,54.88692111115792,400.0,398.53794954946267,388.409842829589,365.30487447170646,{}
163,4,163,0,5.433333333333318,18.703946931953187,164.0255371938165,14.387651486117845,27.336537823623985,41.724189309741945,46.04048475557706,44.60171960696541,105.02985584866042,77.69331802503645,68.33672487172174,59.97237666220866,59.50397316247597,15.139470259218683,45.28458120630364,15.323485919827933,3.864328872795056,18.759202434703365,20.19403117540922,19.413652194279848,56.45935041421319,55.72328777177597,54.69200349121018,400.0000000000001,399.9870620085551,388.4665901251825,365.4491799512784,{}
164,4,164,0,5.466666666666651,17.20385905530374,162.0093495857628,14.33654921275322,27.239443504231097,41.5759927169842,45.87695748081013,44.44330255953478,103.22315433182284,75.98371082759175,67.3771730533677,59.74830314188773,59.28721759778728,15.077497292084388,43.69833452042792,13.845141383306782,3.843776763091853,18.69257322201738,20.12230571677851,19.344634418395685,56.2524363802535,55.531466256750974,54.49774762422828,400.0,399.9897230358135,388.52048366561104,364.1511721483516,{}
165,4,165,0,5.499999999999984,17.08185053380783,159.43695971066944,15.658362989323816,27.04626334519582,41.28113879003556,45.551601423487554,42.70462633451957,102.49110320284704,75.44483985765123,66.89362088892614,59.77727824116806,58.403948958267335,16.392557713169083,43.38472052799904,13.870625757296978,3.932715673761038,18.505338078291903,19.97959978308645,19.20164033728417,55.282746042583966,57.08055892201759,54.111253548037645,400.0,398.5790543894541,387.199078778354,363.00048827991645,{}
166,4,166,0,5.533333333333317,17.021169577007818,158.870581539558,14.18430798083978,26.95018516359572,41.158941582341086,45.38978553868732,42.57655789265728,100.71857511790886,73.77203899729422,65.22661549426118,59.08606944619561,58.63554025245173,16.327511706609016,41.82412681922892,12.2894352293485,3.796125613953564,18.4940749409652,19.9086249651696,19.13914760089989,55.6320122941589,56.366208017297055,53.91903066021603,400.0,398.6017686983225,387.2419991719206,361.72488377707685,{}
167,4,167,0,5.56666666666665,15.49257358704846,156.34049573763122,15.492573587048405,26.75989983217463,40.86833345507248,45.06930498050456,40.86833345507247,98.599164244354,71.84301148360206,64.06176457293964,58.6576599452257,58.21599834882039,17.612297811370127,40.1287059903728,10.804042636593977,3.7624568071130966,18.309405148330047,19.76805749683352,19.003948501930267,55.23269926366754,57.3826745820179,53.53832824363538,400.0,397.2132031887954,385.9290541184927,360.5791963027645,{}
168,4,168,0,5.599999999999984,15.437076140005916,155.78045331898147,15.437076140005974,26.70094586964017,39.31942783160589,43.50448730365327,40.72193504302722,98.2760271948472,71.58565568001126,63.84393876240017,57.985592037177696,58.46721373818815,17.53767297472706,39.99120882873376,10.645500356818218,3.620466580009918,18.243817256370736,19.69724442514478,18.941018965602552,55.5774835321252,56.65698044818322,51.943671657817056,400.0,397.2431182554235,385.9677266663506,360.7099154942307,{}
169,4,169,0,5.633333333333317,11.188537620401071,152.54643767693088,15.38423922805149,25.21302880488359,39.1848481270296,43.44571972412464,40.55844887395379,92.3160299663772,67.13122572240636,61.50939424592167,58.17777490598195,59.2073959582749,18.152302860952773,33.613360451074925,4.800712792601587,4.758858278280627,16.782806430601514,16.7828064306016,16.796216596957294,55.95111474411272,57.19837927087403,53.16395271206463,400.0,395.7969892807631,384.60852354233936,360.84117970128506,{}
170,4,170,0,5.66666666666665,8.418242188072455,148.31533386973294,17.991356377934622,26.2950593215967,38.84934157541125,41.61067579667999,38.75061373708983,91.35121625204005,65.06039427038542,60.82837139803928,62.43879864779251,61.98101222146676,23.52695241010048,29.05308855646166,0.1961941827111104,8.093010036830947,15.223455396713906,16.664970725050544,15.969388996918385,59.20976939067316,59.43866260383598,58.3889351642924,400.0000000000001,395.8316151603889,386.14450801721927,365.3865188248036,{}
171,4,171,0,5.699999999999983,12.276397741474009,143.38693457925507,17.784960374098073,24.59065640826364,38.290545186883634,40.94405356329128,38.193237417918965,92.79511543217858,68.21584875301886,62.021555003701394,67.57494272853125,65.07813316406822,28.21394807843205,26.40980181249745,0.3382774248627811,11.670571157764243,15.004486128468162,15.066360560573594,15.105697865001275,62.8632214536575,60.64830974324676,60.26544224229426,400.0,394.3243919296988,384.6822286130293,364.2023540446448,{}
172,4,172,0,5.7333333333333165,12.403178989980727,145.0249622814132,19.342990329011688,24.84460990396288,37.31148109788543,39.98955278792148,45.49919894460692,102.06546477510322,77.22453921708255,71.00496031330096,79.19291970078075,79.58472635115817,33.91526341991732,22.648823208043385,3.802123719479084,15.804200907571952,15.15944098775425,16.765687203741532,15.992108178671344,59.24276474788823,58.68304096163473,67.87907255940245,399.99999999999983,397.0954800598178,388.694024252773,372.1362009702244,{}
173,4,173,0,5.76666666666665,19.23263367280919,144.48006224987722,17.911633099737042,23.394282117756774,37.19312855730241,38.56326818558584,46.72802261312938,107.23247081829592,83.84436163006372,74.18033444980455,86.58859491979211,83.99925147774621,38.61447490867545,21.866886590855643,2.8229386455332133,20.774136147423405,15.111355028635838,16.712506209130826,15.959699411142251,53.616038061446034,53.13301069152311,67.5381327113941,399.99999999999983,395.7595975475093,386.065541615297,370.93797326145113,{}
174,4,174,0,5.799999999999983,24.93698783321081,141.33592391399452,16.59906245321792,22.175267864744736,36.07088262304235,40.20968467550624,52.56369776852328,116.22636715396354,94.07152434587528,81.43675754656249,93.74443007915318,91.50883352250868,40.209027430145,23.44998090267535,0.1426976525517602,24.995872138652828,15.215807248783053,16.828025854752266,16.120870914668757,51.17296373453988,50.90342372416427,70.76266396822413,400.00000000000006,394.34662674794265,385.99017086160376,370.7536836893442,"{'happy': (['m1', 'm3', 'm12', 'e1', 'e2'], 3.2174556344200522, 110)}"
175,4,175,0,5.833333333333316,26.137557979056723,139.082553840407,15.173670159106358,20.652134438572496,35.82326619947402,38.48979094858496,53.59423178224797,115.42850596326971,94.79936307265162,81.52775858600762,96.13476586434145,94.52803463838546,42.0401621017989,19.910011817203213,0.7796208165352709,27.049280614308145,16.48511457669364,16.712506209130837,16.70842176351266,45.684988355753234,48.684747639680864,77.0408469939325,400.00000000000006,395.7595975475093,384.6919217266252,368.1906250150132,"{'happy': (['m1', 'm3', 'm12', 'e1', 'e2'], 3.2174556344200522, 110)}"
176,4,176,0,5.866666666666649,28.97354503924097,138.0609406122137,15.221954411681024,19.34299032901168,37.23504916832514,38.68598065802348,56.520174931220176,119.92907389099258,100.61300172936642,85.91099388943093,102.12687161860674,99.31633000634456,44.510768567231366,19.01062978181858,1.6421142004228957,30.72648301945094,15.221954411681065,17.046539023044062,16.815880994714917,44.51076856723142,44.77919108076202,75.99739599046501,400.0,391.5856836112949,380.4864701185937,363.92053505271787,"{'happy': (['m1', 'm3', 'm12', 'e1', 'e2'], 3.2174556344200522, 110)}"
177,4,177,0,5.899999999999983,31.71171656792727,137.9946161356275,16.586922577529027,19.33369795635733,37.217161450511554,39.9703418065548,56.54338041680377,123.97985739636788,104.6876398008279,88.5053119581138,104.82387339974888,102.0146819716918,47.345922944782615,20.26405502036704,0.3787673835582268,32.19522760245218,16.5869225775291,16.757632967521936,16.69732882519338,41.74332206298345,42.3430370869506,77.33479182542932,400.00000000000017,392.926487309384,380.3411017640298,363.8187290335837,"{'happy': (['m1', 'm3', 'm12', 'e1', 'e2'], 3.2174556344200522, 110)}"
178,4,178,0,5.933333333333316,33.39761829405778,139.4070000000597,16.75669080809581,20.91984558943079,36.2876389184435,40.45131176238953,55.662697156763,126.66321623880248,105.76827925050452,88.85378830871673,104.8577697963322,101.29252639562584,47.61580630721238,23.33253736684537,1.1884144669021453,31.136459032836058,18.090376575947964,16.92914843002473,16.934906153355513,40.2872504279826,41.75296160382848,78.03951828736172,400.00000000000006,394.3663793349696,384.5664002322545,369.2088282398284,"{'happy': (['m1', 'm3', 'm12', 'e1', 'e2'], 3.2174556344200522, 110)}"
179,4,179,0,5.966666666666649,32.14795416436516,138.6960045564048,15.423939781820152,22.38628184795034,36.41412360062397,40.59230939862442,58.649551592602656,128.53873124744342,106.16450150409467,89.89776700625708,105.4654385734844,104.2843624176478,46.45825220886047,23.458348121516902,0.0854726165408124,31.25966694033218,16.815098154906696,17.272735436529494,17.0012804537526,39.752536929341005,42.43326899357538,78.2492582982024,400.0000000000001,395.669534016929,385.8386286711525,368.97419795679593,"{'happy': (['m1', 'm3', 'm12', 'e1', 'e2'], 3.2174556344200522, 110)}"
180,4,180,0,5.999999999999982,34.68126978499268,141.7441782790968,15.322685812388569,20.854952298244168,37.55839011178812,40.32583192833156,56.89419762469794,127.69490943870872,106.8543373505852,89.3923765178385,106.08535732479952,102.4304731060123,47.46663735425,23.2647437772805,1.2885809745724828,32.40195432424861,18.034260288196176,15.509935357050695,16.18926278962826,37.39227700759278,38.98543166706409,76.34922234513117,400.0,393.0059701413642,381.8570023804977,362.3938796830787,"{'happy': (['m1', 'm3', 'm12', 'e1', 'e2'], 3.2174556344200522, 110)}"
181,4,181,0,6.033333333333316,31.919064323808755,138.9868269838633,15.314123054467448,20.9811823512279,36.15485911049996,40.30329669260383,58.23197334037217,126.29110471259624,105.40862211911762,89.24558471974314,104.97392076171884,102.01524204802888,45.504478616551125,22.655589136961737,1.9527279510353992,30.450721321296783,16.695376535423932,15.50126795869374,15.440357980509816,37.72118114707087,41.10590959553216,77.7539645131553,400.0,392.9233564856418,380.3216428769955,365.0224412617396,"{'happy': (['m1', 'm3', 'm12', 'e1', 'e2'], 3.2174556344200522, 110)}"
182,4,182,0,6.066666666666649,32.02989239934542,138.081552127237,16.753345542065603,20.915669201049,36.2002757942152,39.055360746373225,55.65158478785388,125.28561094091704,104.38381594035204,88.20235523456859,103.56944721077542,101.50994003870647,47.09142360749985,22.57536707844821,0.4356649787068818,31.882755259913665,15.3041858166598,14.525490072295495,14.159111807974114,40.16038985534473,39.32866580508602,77.96189178340201,399.9999999999999,392.9746726860298,380.3949677458488,364.9663219704844,"{'happy': (['m1', 'm3', 'm12', 'e1', 'e2'], 3.2174556344200522, 110)}"
183,4,183,0,6.099999999999982,33.45841497962329,138.46584693813986,15.398344688033474,19.71556009987096,36.27341594783638,39.059704196942256,57.15812559018982,125.53874185303562,105.96081875316546,88.943149599702,104.3727873770814,102.20459606958042,46.39535181450634,22.00122852211399,1.273319622405097,32.73968874326414,16.787194518067277,17.244072378341862,16.35998895659793,40.35201131559924,42.05502703349089,80.96592693238713,399.99999999999983,394.1238596720961,382.8069329171856,364.6312756788125,"{'happy': (['m1', 'm3', 'm12', 'e1', 'e2'], 3.2174556344200522, 110)}"
184,4,184,0,6.133333333333315,32.10338186054251,139.8937022667007,16.791784457869046,20.96365816214176,36.36363636363637,39.14496945883236,57.173753714076746,126.96678277427742,106.01730717900546,89.76406989026128,105.54537612975868,104.03037073076688,47.84892051815609,21.96757828538034,0.1262504499159717,31.31011157916282,16.79178445786906,15.8995387671856,15.65505578958144,41.15764667260928,41.41014757244116,80.98806456415254,400.0000000000001,394.3327256175309,381.5201281285613,364.8242629395188,"{'happy': (['m1', 'm3', 'm12', 'e1', 'e2'], 3.2174556344200522, 110)}"
185,4,185,0,6.166666666666648,30.68137342929529,139.44941379502552,15.340686714647644,19.493866998715905,36.21757281521934,38.98773399743182,58.33298169363741,123.7351461817818,104.24933826313664,88.70234460474381,104.70878272890808,102.8508925894962,45.75649945910658,19.746037507339565,0.786030443597383,30.89337834381115,15.277685681666943,15.835674333296035,15.625332454541336,39.39679859727343,42.68383499777147,76.50197969005565,400.0,392.8543738399134,380.1805143104125,363.3588559636955,"{'happy': (['m1', 'm3', 'm12', 'e1', 'e2'], 3.2174556344200522, 110)}"
186,4,186,0,6.1999999999999815,30.935852031206803,139.34509983486558,15.4679260156034,19.80464986070732,35.12185887664402,37.91439742532665,58.81680930523167,124.83215019401112,105.1140070470338,89.48283977987842,104.9426896731984,105.6278689603705,46.73789057152692,19.44885344450006,1.5160576181681904,31.482806901959577,15.467926015603366,14.62060754816099,14.971561205909978,40.59884167094464,40.65397103887804,77.13650528845659,399.9999999999999,395.71652995982566,385.6825264422831,368.68843846885625,"{'happy': (['m1', 'm3', 'm12', 'e1', 'e2'], 3.2174556344200522, 110)}"
187,4,187,0,6.233333333333315,30.595590121200964,139.62032731020875,16.729076456374102,19.647303897980585,36.360784993233246,37.61317132912932,56.977181304143606,123.84037124362943,104.27888677218876,88.79896402945525,103.35656183519644,102.88004472207882,46.3174633950257,20.58553928667817,0.0476517113118006,30.068229837717297,15.282016000124386,15.532557549780726,15.486806176320329,40.93282001679742,41.17107857335623,80.76929925885987,399.9999999999998,392.8601116014579,381.575225329298,366.1416226122273,{}
188,4,188,0,6.266666666666648,29.26775970037492,140.06540223696317,15.582071485516078,18.33129884277563,36.34332370163369,37.86154803105038,59.92922224362482,122.77248505461516,104.56487201993244,89.67785315038321,103.79754481363476,102.77976831448171,43.70175706363784,19.25163393398157,1.2839641989316988,28.857878275988696,15.330731271624948,14.550684861954988,14.303674338098574,41.69752026530543,41.89324651514252,79.74611293984626,400.0000000000001,392.8289359417477,383.10353604712617,368.99187542223234,{}
189,4,189,0,6.299999999999981,30.498251706389382,140.69737746560455,14.122797913793226,19.58479693507581,37.49350681346834,40.541002715575054,58.180363452547184,122.15011314542168,102.62882090979517,87.2564227658587,100.65523057779887,100.61567106255836,42.66493718682443,21.4135655996551,0.3362558795437849,29.32546864774497,15.233396993049018,16.209303674954313,15.669523986741922,39.986758005046056,41.838143318299046,77.74942386135956,400.0,392.9912896151536,380.2679715181589,364.8900485992514,{}
190,4,190,0,6.333333333333314,28.09555778270773,142.5434939042585,15.4969198764755,21.231623949622787,38.11480069813391,40.90486231160423,57.54114081706625,122.2646105066597,101.10546561986116,86.8148480493561,99.4552059362752,98.51261710723143,41.67934450476463,23.077313682013823,0.0765349903924175,27.04907686764227,15.433277226156346,15.99694856545969,15.81454590951057,39.74985711539745,41.73171055082267,80.16911051600023,399.99999999999983,392.6591065442035,382.4575674801687,366.7938315199788,{}
191,4,191,0,6.366666666666648,19.686222005290578,139.56251773193952,18.28747418303788,24.00839211298181,39.372444010581056,42.28742172907216,54.772704708952645,116.7183539568474,92.74048055931506,82.74795937042029,96.75745905514646,94.13938157927322,40.80301598036544,21.13958302327461,4.706969078963709,24.87173602079622,14.025852432840225,15.1063053822786,13.814536468437694,40.942275420571406,42.39057359871413,77.4603018472575,399.9999999999999,392.76644429223234,382.6385190570444,366.9442859418761,{}
192,4,192,0,6.399999999999981,16.58845269611177,131.37617009922593,20.9190700300704,26.59043821654806,37.55370700226642,41.677971585692696,51.31557993929347,115.26852803899888,88.74133133366763,80.3945629430458,96.07404808790471,98.32963835849388,45.94981985259125,17.997730700742295,10.173651949636223,26.18207734228946,13.823710580093088,14.888591943986118,14.42637943897617,40.232525069500895,44.27379097097296,77.61000957900121,400.00000000000006,391.48201658587976,378.84281750423366,363.3427623162114,{}
193,4,193,0,6.433333333333314,13.8355182672774,124.74016775457612,23.56506029915449,29.04121290515477,36.21494187023638,39.15696347803701,51.1045247621711,117.53540829723885,88.49421917531188,81.4972392242853,99.79061836926344,106.2332737493714,51.98799651612672,14.413677912431297,16.247718495089828,29.69734943458525,15.143540743947812,14.373018817908235,14.202057845201525,40.67807958973279,43.26454707809722,73.28830342175038,399.9999999999999,392.8743067656583,380.0275488938802,360.5891290172398,{}
194,4,194,0,6.466666666666647,12.595768379036462,127.86335455605852,19.52319323281924,25.191536758072868,36.40516681785831,39.34257063263345,54.40808685176236,111.70276621927944,86.52011829448342,80.09654329106934,96.55505714510412,97.46617430664752,42.69401571078584,14.566193595444588,12.323443659337611,24.261414673406875,13.909699241822905,13.699464989846458,13.152793896127209,43.94388156059537,45.0185325716466,72.8103336357165,400.0000000000001,392.79818365062505,382.83778201820826,367.2213287717969,{}
195,4,195,0,6.4999999999999805,9.580841828811009,129.88155781711228,18.002328486424933,26.148818018424542,35.822089625535675,38.71244700930272,52.08227080054223,105.70872980930764,79.57267912618072,74.69673661231633,91.84303297105254,93.54068607587789,40.74367451580889,12.902163596672835,15.109112632945768,23.76714346755517,15.055608588131545,14.289560758025427,14.17540342529179,43.120388862564425,44.64827665690723,73.0040183787833,400.0,393.0600397203486,380.4322808206002,363.8403702311661,{}
196,4,196,0,6.533333333333314,11.126641660161996,134.88924135779448,15.243592785321455,21.111318212777466,37.49174065344479,40.401532057972624,53.84120231718729,101.08629669054268,80.15222705090711,74.41581551124688,93.86964735864348,94.63193881041168,40.63629431016665,6.772074058889928,16.1197692351177,26.12965698560879,13.869733300080751,13.092683756750915,13.505648549508749,45.35249142337875,45.59118874665967,75.14840583689966,400.00000000000017,391.5395966675475,381.62671560373786,366.233879276753,{}
197,4,197,0,6.566666666666647,9.82631934986486,143.80710100678994,15.349201503527556,22.407455683784207,39.13293899227717,40.51495259054361,52.80675355259478,100.20918822351092,77.87009351114992,72.7332333878885,91.39173219299488,89.21943295580996,37.82903957326346,9.744313721086712,13.2510253468281,23.27463468412435,15.286165502066885,15.84446386314082,15.656070930854298,45.27692267218319,45.261406249060485,74.12197924258773,400.00000000000006,395.6384176522281,384.2706532131797,368.7711741978904,{}
198,4,198,0,6.59999999999998,20.60008101043352,141.56567478369473,13.771314469506873,18.0234431177574,38.5879140339846,41.31394340852062,52.07128620989798,104.28671445752796,86.37220188543142,75.82902881174823,92.7447951199228,88.40881636536545,38.80973443598913,13.54896054274178,6.472830043832119,25.747306518309927,15.13542512677916,14.306320745909014,14.673823971886408,43.429848243583166,44.20051592168218,75.67712563389564,400.00000000000006,390.12815398094057,378.9187143572225,360.82811038431566,{}
199,4,199,0,6.633333333333313,27.67386228396096,137.26067613897274,13.888593790176149,20.91295149898542,38.79365487634889,41.665781370528215,53.967526185375576,116.3809646290466,95.5157982882656,81.62810229241825,96.87308519313018,94.9439242614041,41.99191534057974,20.440651386157583,1.3796190726885698,28.55696191963466,16.583600809133653,15.75684508519034,15.525518255325494,46.67647146761985,44.38607322995293,77.69799947970576,400.0,392.9551389683426,381.6730927925988,365.0066904826093,{}
200,4,200,0,6.666666666666647,39.55504214137696,132.9270079958753,13.699556022047096,24.68781916870941,39.62544571320928,43.81229129980638,53.232973727751016,131.11839300031824,106.46594745550192,86.59433036874509,99.87928222031444,99.91027656700804,46.73172622736348,31.118324080433183,4.455437337213425,33.768340722740845,15.056558682247248,15.542378532805063,14.65645169276371,45.23624899939452,46.03435342675621,76.53126822017387,400.00000000000017,390.4724446601909,376.71497787362176,356.099758380738,{}
201,4,201,0,6.69999999999998,33.17519692688423,136.19789892378105,15.25476487874153,23.64064998883924,38.89217189598666,43.01416236091072,53.93373845582265,125.95312688420304,102.350711773624,85.7157589300424,96.2456640388554,99.1909290102504,43.82538735140293,28.19760936334165,2.179806924739524,28.935868393110862,16.63066456395308,15.74698011530984,15.4412704436985,45.95079624236999,45.080427702010525,74.78380975692276,399.9999999999999,392.9349113927287,380.294773600654,360.7319782664296,{}
202,4,202,0,6.733333333333313,12.310300507981944,148.35550052812494,13.948991668531278,20.698738906737272,38.51791220116645,39.87820559618447,57.464350196435696,104.17837477076704,83.53732438266165,77.31964024414947,92.0004872228053,91.49279222642524,34.43095157268192,12.384680972300773,9.19235637385043,21.15395818250113,16.470627540024353,15.292593755165374,15.30392720148592,43.3463834030525,45.15408528410259,72.70016077690508,399.9999999999998,393.1713660806266,382.099463490856,364.2078169904775,{}
203,4,203,0,6.766666666666646,3.057928819332292,154.82906937424352,13.743680693863586,20.694746502818408,39.75307465131978,41.11748900978532,54.701893683061336,91.78881591107252,71.1650403251355,69.67261147242033,84.64405773374523,81.27900345075233,28.45069650575698,8.800911201673784,12.99580918793879,16.421769430804886,15.043020762841882,14.277613416724993,13.970304545909585,44.91814540646669,44.23295335789345,75.525270506651,400.00000000000006,391.80887672253954,382.17259867249743,368.4417207680414,{}
204,4,204,0,6.799999999999979,2.7326682277939267,154.6132478242953,13.731487901559248,19.177413157861967,39.647239789075854,41.08101137218983,56.03635880357823,91.63610838950122,72.46724947227305,71.04489669990744,85.43141175762241,81.49807732163009,27.51038384706669,8.119198125657249,12.282104610442786,16.75110716028621,15.02967525286688,15.276079793253032,15.251236441503124,46.848002757091024,44.84307353096273,72.621654298193,399.9999999999999,392.9962658733208,384.6418609314314,369.4790780303437,{}
205,4,205,0,6.833333333333313,16.4640832509723,154.7188909750977,13.740870264762432,20.50901540893382,39.744945591837656,42.47341773064127,54.70779593372046,105.35948738706368,84.86977617655278,76.60040235875533,89.6527027507334,85.78422632183901,33.08765764477499,17.560446151634324,4.119775094550789,20.9491705824571,15.101965286581969,15.589250241497256,15.313988382886691,47.03854114425207,44.82254381982642,74.03473655115239,399.9999999999998,394.38030221969024,384.5523943515312,369.36731057703867,{}
206,4,206,0,6.866666666666646,27.361182854975176,149.62589867939093,12.388302429340053,19.34727793803804,39.76795212554209,43.96985501516245,53.3718429050842,112.31423958570016,93.06825004250685,79.31454118045855,92.31667092848602,92.7660890008255,39.246595455160445,19.72015507075685,2.053375675344057,27.127804676903622,15.04865057023634,15.29536620213156,14.59059017612384,47.01842867165132,46.36754732550446,72.62319763883136,399.9999999999998,391.8026804183111,382.0413852206186,364.1607951500964,{}
207,4,207,0,6.899999999999979,25.9780861846495,147.97475308508277,13.740870264762432,20.690514658445053,41.10908094281575,43.94441759891847,51.956172369299,112.19095879445848,91.61713841530457,78.4851423511792,91.95246629704452,89.98015252719489,39.16832384255474,21.12812569284881,0.658707108463318,25.666731896827173,13.672676939289186,15.286517535322218,15.207376827759733,46.82531803399806,46.18564870323601,75.50982643291016,399.9999999999998,393.0151469529498,383.3131992764441,368.1607879068712,{}
208,4,208,0,6.933333333333312,15.04865057023634,142.69847126187472,15.110707124523737,24.663036935239727,38.40325018315593,41.24647268088676,53.371842905084144,108.1545716225874,83.49645005787836,75.905162700642,89.1552472472016,88.78331504940348,35.674496638807284,19.09251948697237,5.408514042981665,22.08347424426603,15.110707124523794,14.28295677261444,13.908714480160484,45.43771683100911,45.00379593357786,74.07759187870123,399.9999999999999,393.09983854995056,383.35204449665946,368.2138235207789,{}
209,4,209,0,6.9666666666666455,10.798738983390296,138.10675273664197,16.25425460002326,24.33462944685363,39.23841096197382,43.38436225171435,48.59432542525656,99.92481116288452,75.60322408713833,70.07395581551577,85.01358091323993,84.73520280582903,36.436601170018776,14.90869419690074,10.59383353203009,21.80628508052905,13.56574795600283,14.092768112039586,13.779716316844995,44.72608259070228,45.855060470757934,71.65616336816288,400.0000000000001,389.2815284770506,378.3630082703942,362.1202185787241,{}
210,4,210,0,6.999999999999979,10.905254185041734,139.58219488728187,17.7733898281175,24.68781916870935,39.62544571320933,43.96048502525879,49.0736438326876,102.3185147015376,77.71189266402541,72.10660660279416,86.20894642732208,86.7583882386673,37.58334612326826,15.735402986026202,11.301712813920917,21.52743541395733,15.056558682247235,15.24055604354207,15.170698902143611,44.71845853448767,45.38999852613182,71.09355931247012,400.0,390.4724446601912,380.87000306642256,361.74030442923686,{}
211,4,211,0,7.033333333333312,13.587768632509636,140.48727732536628,15.008180996408171,24.4956982618272,38.26350388210869,41.12405014977487,50.29310243786287,103.3474641844388,78.85589852325185,71.985815233631,86.10912756200736,86.4091325624467,36.05060088613078,16.98105226845911,9.95016584790568,21.41958778777996,15.008180996408106,13.856859480670067,13.769460276576185,44.23150647503502,46.59308429900648,73.42425843813373,400.0,390.5012181130557,379.4492349205824,361.641467889932,{}
212,4,212,0,7.066666666666645,17.590478884509718,138.27082647825532,13.55857004563902,22.97482442383797,37.99179348517279,42.169697344148005,51.284618091434126,105.37027650586836,82.3962825314778,73.54690486078357,88.21788013849596,89.907730694044,37.8680147220536,16.245608749927612,9.14055527773712,24.57964444433503,14.90160741056022,15.38242755266928,15.07423506937738,42.51510374981069,43.62886888869454,68.92447327151405,399.99999999999966,390.4951142060024,375.467476855167,356.5375842366741,{}
213,4,213,0,7.099999999999978,26.067018275927584,143.21589814938963,15.153664605223035,21.994004883348943,41.24981173078761,44.09485473771667,49.40919105486783,112.57502775616592,90.59015445267649,77.44733592721457,90.14229171413751,89.5941969370798,40.5551536799025,22.545222484468525,1.6867423772835082,27.377720096273777,13.719483303119766,14.323561082845028,13.972556992599834,45.64625939074208,45.27571644287198,76.93927336015791,399.99999999999983,395.7304041781629,386.0663576585434,369.48481469805154,{}
214,4,214,0,7.133333333333312,38.33658075290513,134.78884162925243,12.31462117515487,23.30116021574789,38.53143121142218,42.61518854125539,52.01306790018658,125.94970374196588,102.658324408327,83.39355123553275,93.98497307252546,97.86427777720765,43.96800885642665,29.922779174652646,3.925304365211844,31.716765935315948,15.11327074105386,15.600920481463392,14.62789204848508,46.21432561229986,44.251673429693824,74.09015955918667,399.9999999999999,391.7353543878438,380.73917785531785,361.4879409838098,{}
215,4,215,0,7.166666666666645,36.97503492597205,136.04092856765251,12.316566960189403,26.037629808572188,38.53751941187454,43.98426343176504,53.38933224515994,128.7051963421083,102.67454504787896,84.08916403364833,95.36469548958048,97.78005924926669,43.2426791198431,32.02465632485587,3.293329316778568,30.98950042784753,15.05358184023153,15.603385521773244,15.262798614779284,46.32130943576067,44.25866546320316,76.74630720185067,399.99999999999983,393.1048043065519,382.0587492787725,362.81968770007103,{}
216,4,216,0,7.199999999999978,35.6218890886034,137.3434418890918,12.39736931544304,23.314258728169843,38.431357173389664,42.63914424008337,50.673732713355896,121.96937626913312,98.65787889274904,80.80828403617255,91.43435546568207,92.32918253343024,41.26232746021543,30.03841898113268,5.399818512273441,30.277553800961982,16.48567044502658,14.293410339034018,14.587224009584531,46.19159035927646,45.58989629648033,75.41025354624603,400.00000000000006,394.5270113942105,383.4933477177661,367.0001309346998,{}
217,4,217,0,7.233333333333311,27.28453292407549,144.9229980088286,10.998746848791717,20.508823499655083,42.48859743444141,45.20512744976184,51.840612555743405,110.53603781855222,90.04929310671693,76.29312650947566,88.4621133247332,87.45312698075458,36.25471385977795,22.449946153524703,0.6497260548347867,25.49983669327833,15.006493108241594,15.554576962669604,14.58443897205484,44.51770051008788,44.21959090845772,75.14400118620516,399.99999999999983,393.2381828685305,380.86364088263474,363.1406309293986,{}
218,4,218,0,7.266666666666644,19.09384341680321,148.8842613771646,12.350150421888683,21.864113979505703,42.36712339958497,46.55092163183678,51.84408865278933,105.024994561611,83.19460345892824,73.42345254824556,89.00295815309266,85.56954199834331,35.724239326960344,17.51649923197334,6.828852042300127,25.08216845792544,13.63845958343091,12.938578817937904,13.236123118696298,43.77605597305393,43.457021728586085,77.93040151802022,400.0,393.1284496339585,380.75736076776894,364.3102914014757,{}
219,4,219,0,7.299999999999978,20.463399693056623,146.13153650921865,12.353597697084687,23.231942648896062,42.313023966721325,45.10208394340718,49.13110320203978,105.05430999877886,81.85359877222649,71.46326772556785,88.11534344320808,85.2114392308676,37.75075476042696,18.240148333763955,7.713495564029586,26.86111396414998,16.370719754445282,15.25251758814095,15.154750108152143,45.101262297913934,44.82902127800699,75.1440011862053,400.0,391.8205228023424,380.77567258171433,365.6763656207749,{}
220,4,220,0,7.333333333333311,23.353912316982584,148.42326013400643,12.363835932520306,21.98015276892482,42.58654598979177,45.35487484834653,48.081584182022965,105.77948520045068,83.79933243152585,71.96439101860835,88.79584158833808,83.0932173908098,37.9682688105018,19.60324400438492,3.616205915431237,28.45632194184907,15.173670159106504,14.009653485062266,13.889259997698332,44.36384136669372,44.91668541240372,79.72541073286332,399.9999999999999,393.0897184877322,383.39952972857327,369.60514932501655,{}
221,4,221,0,7.366666666666644,31.68723493663028,148.89425092854,11.021646934480067,20.71146061797804,41.35413139402025,45.48516314615758,48.23938283573686,111.59417521161092,90.93902377617628,74.8912261730431,86.76024252153883,83.96301238178324,37.29384029734524,26.058811549206155,3.750132714837093,27.442057222711696,13.845772603929216,12.701820488128169,12.572166232527708,47.26857854295704,45.27824171274639,78.63792544206905,400.0,393.1196240530383,383.3019381878261,369.3896378688319,{}
222,4,222,0,7.399999999999977,30.423611347321906,156.36460417891473,11.063131399026211,17.977588523417534,41.50978453804191,42.891933072173146,49.78409129561771,109.24842256538336,91.27083404196584,75.98484477578745,87.87679737856763,86.50288757850319,37.45430771620181,21.952025472141145,2.144825854545104,28.69944915690212,13.828914248782649,14.102780721268855,13.937551638431728,46.10993945660795,44.17883290429506,77.55296538167214,400.0,393.2180700407673,387.84126267940303,373.8822861592447,{}
223,4,223,0,7.4333333333333105,33.549826009419,166.40407435440832,9.785365919413838,16.83305845810181,41.96057453384801,46.15218634853392,50.34415067888664,110.43484394767071,93.67036252187016,76.79721177033474,85.19546743574313,83.90579014891637,34.299274509181885,25.824252338605163,8.398255665408442,26.56121078822053,12.581184753532137,11.527456363160752,11.96789815573294,47.87159262293156,44.66275270689789,76.93583421474354,400.00000000000006,395.9070985966904,390.4398789762437,383.4580450369732,{}
224,4,224,0,7.466666666666644,30.26034106209265,167.65678327813885,10.992410449841596,16.488615674762453,45.36450728759991,48.09179571805718,46.7985011608,104.509225906638,88.0358435683317,72.75692961458896,81.01926778960927,80.95786629829468,34.32343364485905,23.355592258789443,4.513009611622806,25.07483401559807,12.442563777475316,12.668127104390736,11.73536002750211,43.47225585073386,41.937218567869024,75.58531218599798,400.0,394.6422705219184,385.2149835030454,375.5410673679237,{}
225,4,225,0,7.499999999999977,20.9441942983012,172.76081563514916,11.145496647525365,18.16493713793128,45.975173671041865,47.36836075198263,50.32858200329565,100.39650626043884,82.38672792399507,71.65902404717622,83.51864036344858,82.06441183805862,32.71248798692994,17.435434635991214,0.3061533737662785,21.935889230355883,12.615845587395146,11.488514981928637,11.20138656267477,42.739010977776445,39.70043874314592,76.67593406364476,400.0,397.302661671565,390.5126002870842,383.62260720217,{}
226,4,226,0,7.53333333333331,16.774464407403475,168.55825696627855,12.537391014020658,19.55229649843323,41.88406998340505,44.59915126447154,47.38395866867413,96.21080553911996,76.66802892067173,68.24669153090338,84.02286332252646,83.10179370284663,36.20717062815697,12.533397758700858,6.847124982661057,25.17717162885089,13.999913367140795,12.84322598135874,12.548622049935204,42.567118291318,41.07513775034906,72.43825919211983,400.0000000000002,397.3129883015847,389.0808001065102,377.9488865240145,{}
227,4,227,0,7.566666666666643,33.32048068842395,155.4955765459783,12.49518025815898,16.660240344211974,38.873894136494606,44.42730758456526,48.61219724404944,111.07694583099874,94.4182365459348,77.73881900367707,89.27205494685455,88.40337813069056,40.25386317759995,22.221063199195328,4.2890917798097234,27.86746250426137,12.572074400897892,11.19326265030325,11.8124534912302,42.417799175008525,39.56357535046959,76.3594349109716,400.0,395.92420401849546,389.09578273461887,375.2896593969383,{}
228,4,228,0,7.599999999999976,39.02225843015597,150.5402315331636,13.93652086791283,19.51112921507793,41.80956260373849,45.99051886411233,48.85739539571006,121.27976529817754,101.77477742241146,82.14381875862057,96.3155712030607,95.77672130023024,47.341812891530026,25.11040547189765,4.672598443115192,35.263877212373814,12.620056394463964,14.21251837141608,13.282650104769914,41.9995009977541,41.69158676756521,80.83182103389447,400.00000000000006,395.8585282169466,386.1321796505617,372.1990493881432,{}
229,4,229,0,7.63333333333331,33.21620348308581,148.14710172511326,15.224093263080974,20.76012717692864,42.92657974557462,45.69324480287382,47.07663693385283,116.26495004464172,95.50661353424734,78.7721708888854,92.67957658043632,90.97631004068468,44.86310307914903,24.2832679153596,1.5938824500428836,30.525974178027752,12.759927696449838,11.412826286897692,11.172803448830225,41.15185717831383,42.04255619451419,78.9006227635558,400.0,395.8651364709897,386.1606875630645,372.3394385346892,{}
230,4,230,0,7.666666666666643,30.58415520596389,145.87877558061257,16.722824066061776,23.608834134288124,41.68578796223954,45.91300313942242,44.52687095701604,115.30011989177991,91.69990046570103,76.18541676809235,90.8143276355313,87.77346520463362,45.04515638551595,25.69490648063055,0.3696286413496636,29.429298939627813,11.451966686277428,11.865527486231564,11.267957654341444,39.9427568930698,43.418028242667134,79.17121322105,399.9999999999999,395.8341411621121,387.5024496765198,373.5983125391653,{}
231,4,231,0,7.699999999999976,26.384912874195745,141.70657377957048,16.66415549949202,25.034777964884924,43.07146060842627,45.91051288261132,43.07146060842629,111.09436999661362,86.10933504835901,72.68323088817004,90.1948834374266,85.66500647907378,45.04710975250941,22.95524827869599,3.573569600478379,29.777165544181344,11.195893066219282,11.451345547687255,11.258873670846384,44.21469646529073,46.04987738687984,76.39000268973577,400.00000000000006,394.47301857483336,386.0928956737228,372.2593973313735,{}
