,video_id,frame_seq,gap,time_seconds,m1,m3,m4,m5,m6,m7,m8,m9,m10,m11,m12,m13,m14,m15,m16,m17,e1,e2,e3,b1,b2,b3,m_0_16,m_1_15,m_2_14,m_3_13
0,4,0,0,0.0,22.02271554554524,141.01418368376991,7.0710678118654755,10.04987562112089,35.014282800023196,37.0,40.01249804748511,79.0,69.00724599634447,58.0,53.0,55.0,14.0,25.0,13.0,7.0,13.0,12.041594578792296,11.5,39.0,30.0,56.0357029044876,286.08565151017274,284.04401067440233,280.04463929880893,272.02941017470886
1,4,1,0,0.0333333333333333,22.02271554554524,136.03308421115798,7.0710678118654755,11.045361017187261,34.0147027033899,36.013886210738214,40.01249804748511,80.0,69.00724599634447,58.0,53.0,56.0,14.5,25.5,11.5,8.5,13.0,12.041594578792296,12.5,38.0,30.0,57.0350769263968,287.0853531617383,285.08595195133694,281.06404963993526,273.0164830188829
2,4,2,0,0.0666666666666666,21.02379604162864,136.01470508735443,7.0,11.0,33.015148038438355,35.014282800023196,40.01249804748511,79.0,68.0,57.5,53.0,55.0,14.0,25.0,13.0,7.0,14.035668847618199,14.035668847618199,13.5,39.0,29.0,56.08029957123981,287.2107240337658,283.17662332897464,279.0877998050076,271.0664125265246
3,4,3,0,0.0999999999999999,20.0,134.01492454200763,8.06225774829855,11.045361017187261,32.01562118716424,34.0147027033899,41.0,80.02499609497022,69.00724599634447,59.0,55.0,57.0,15.0,24.0,12.0,8.0,13.038404810405298,14.035668847618199,13.5,39.0,30.0,57.0350769263968,287.2507615307573,282.14358046923553,277.0884335370208,268.04663773306316
4,4,4,0,0.1333333333333332,21.0,131.13733259449805,8.06225774829855,12.041594578792296,32.0624390837628,34.058772731852805,40.01249804748511,81.05553651663777,69.02897942168927,58.5,52.0,58.0,15.0,26.0,11.0,7.0,13.0,12.041594578792296,12.5,38.0,27.0,55.08175741568164,283.21370023358685,280.11426240018557,276.1159176867571,267.02996086581743
5,4,5,0,0.1666666666666665,21.0,131.13733259449805,7.0710678118654755,13.038404810405298,33.06055050963308,35.12833614050059,39.0,80.02499609497022,67.00746227100382,56.5,50.0,56.0,14.0,27.0,12.0,7.0,12.0,11.180339887498949,11.5,39.0,27.0,56.142675390472796,282.177249260106,278.1150840928985,273.045783706689,265.0075470623431
6,4,6,0,0.1999999999999998,22.02271554554524,130.18832512940628,7.0710678118654755,12.041594578792296,33.06055050963308,35.12833614050059,40.0,81.05553651663777,69.02897942168927,58.0,50.0,57.0,13.5,27.5,12.5,6.5,12.0,12.041594578792296,12.0,41.0,27.0,56.22277118748239,282.3473038652928,276.2607463973121,269.1189328159578,261.04788832702707
7,4,7,0,0.2333333333333331,23.0,129.18978287774928,6.082762530298219,11.045361017187261,32.14031735997639,34.058772731852805,40.01249804748511,80.05623023850174,69.02897942168927,57.5,50.0,57.0,13.5,26.5,13.5,6.5,13.0,12.165525060596439,12.0,39.0,25.0,54.147945482723536,279.35103364763125,272.2223356008834,265.1527861441399,256.0488234692751
8,4,8,0,0.2666666666666664,24.0,124.19742348374221,6.082762530298219,13.038404810405298,32.14031735997639,33.13608305156178,38.01315561749642,81.05553651663777,68.0294054067798,56.0,49.0,56.0,14.5,28.5,12.5,7.5,12.041594578792296,12.165525060596439,12.0,40.0,24.0,55.226805085936306,276.52305509667724,271.3613826615718,264.31988196123274,254.19677417308034
9,4,9,0,0.2999999999999997,25.019992006393608,123.14625451064275,6.082762530298219,14.035668847618199,31.064449134018133,34.132096331752024,38.0,83.05419917138447,69.02897942168927,56.5,50.0,56.0,15.0,30.0,13.0,9.0,13.0,12.165525060596439,12.5,41.0,25.0,55.226805085936306,276.52305509667724,272.360055808483,264.2290672882149,254.07085625864295
10,4,10,0,0.333333333333333,28.0178514522438,120.26637102698326,6.082762530298219,13.038404810405298,30.14962686336267,33.13608305156178,38.01315561749642,85.09406559801923,72.06247289678588,58.0,51.0,59.0,17.0,30.0,14.0,10.0,13.0,12.165525060596439,12.5,39.0,24.0,55.14526271584895,275.5884612969128,270.4736586065268,262.32232081925474,251.127457678367
11,4,11,0,0.3666666666666663,29.0,115.15641536623133,6.082762530298219,14.035668847618199,29.068883707497267,31.144823004794873,37.0,86.02325267042627,72.00694410957877,57.5,52.0,58.0,18.0,31.0,14.0,12.0,11.045361017187261,11.180339887498949,11.0,41.0,25.0,56.32051136131489,271.8124353299532,266.6777081047458,258.43567865138124,247.24481794367298
12,4,12,0,0.3999999999999997,31.0,111.44954015158609,6.082762530298219,14.142135623730951,30.14962686336267,32.2490309931942,37.0,88.05112151472007,74.00675644831355,58.5,54.0,64.0,22.0,29.0,12.0,15.0,13.0,12.165525060596439,12.0,39.0,22.0,55.326304774492215,272.9706943977686,266.9082239272518,256.7041098229633,245.52189311749777
13,4,13,0,0.433333333333333,32.0,109.45775440780794,6.082762530298219,14.142135623730951,28.160255680657446,32.14031735997639,37.0,89.05054744357274,75.0066663703967,59.0,54.0,64.0,22.0,30.0,13.0,15.0,11.0,11.180339887498949,11.5,40.0,24.0,55.226805085936306,270.5993348107123,265.5447231635379,258.37956575549856,246.16457909293123
14,4,14,0,0.4666666666666663,29.0,103.31021246711285,7.0710678118654755,14.035668847618199,28.160255680657446,31.144823004794873,37.05401462729781,87.09190547921202,73.06161783043132,58.5,55.0,63.0,22.0,28.0,11.0,14.0,11.0,11.045361017187261,11.0,38.0,23.0,50.15974481593781,273.73162038756135,266.48076853686837,258.2789190003706,246.0995733437992
15,4,15,0,0.4999999999999996,20.024984394500787,97.51410154434076,10.04987562112089,17.029386365926403,29.154759474226502,32.2490309931942,36.013886210738214,83.09632964216891,66.06814663663572,56.0,55.0,65.0,24.0,23.0,3.0,14.0,10.0,11.180339887498949,11.0,41.0,24.0,50.24937810560445,268.07648162418127,262.76224995230956,255.50146770615623,245.29370150902776
16,4,16,0,0.533333333333333,8.0,93.53608929178085,13.152946437965905,19.1049731745428,27.073972741361768,29.154759474226502,37.013511046643494,77.1621668954417,58.077534382926416,54.0,55.0,65.0,23.0,17.0,5.0,10.0,11.0,10.44030650891055,10.0,39.0,20.0,51.24451190127583,266.9082239272518,262.76224995230956,255.50146770615623,244.4606307772276
17,4,17,0,0.5666666666666663,5.0990195135927845,87.96590248499699,14.142135623730951,21.095023109728988,25.179356624028344,27.459060435491963,37.05401462729781,77.31752712031083,56.22277118748239,53.5,59.0,72.0,28.5,11.5,12.5,13.5,12.0,12.36931687685298,12.0,39.0,19.0,50.24937810560445,270.667692937299,263.4919353604584,251.24689052802225,238.01890681204299
18,4,18,0,0.5999999999999996,6.082762530298219,85.98837130682264,15.132745950421556,21.095023109728988,23.194827009486403,26.30589287593181,37.05401462729781,79.30952023559341,58.215118311311535,55.0,58.0,71.0,27.5,14.5,9.5,11.5,11.045361017187261,11.40175425099138,11.0,44.0,24.0,48.373546489791295,268.5702887513807,264.2820463065927,257.9399154842073,245.66033460858105
19,4,19,0,0.633333333333333,9.055385138137417,84.34453153583817,15.132745950421556,23.194827009486403,24.331050121192877,25.317977802344327,36.05551275463989,83.38465086573187,60.207972893961475,55.5,59.0,74.0,30.5,16.5,9.5,13.5,12.041594578792296,13.341664064126334,12.5,42.0,20.0,53.33854141237835,269.0315966573443,265.5880268385606,256.03515383634334,241.59884105682295
20,4,20,0,0.6666666666666663,13.038404810405298,84.72307831990054,15.132745950421556,23.194827009486403,23.194827009486403,27.459060435491963,36.05551275463989,87.36704184073076,64.19501538281614,57.5,60.0,77.0,32.5,18.5,7.5,16.5,11.045361017187261,12.36931687685298,11.5,43.0,19.0,50.35871324805669,267.30132809247317,264.82069405543064,255.22734963165684,240.8318915758459
21,4,21,0,0.6999999999999996,23.08679276123039,87.29833904490967,12.041594578792296,21.095023109728988,25.179356624028344,28.284271247461902,35.12833614050059,91.35097153287424,70.25667228100119,58.5,59.0,74.0,31.5,24.5,0.5,18.5,10.04987562112089,11.40175425099138,10.5,44.0,20.0,49.36598018878993,268.5609800399157,265.9323222175146,259.3067681338071,245.89835298350414
22,4,22,0,0.733333333333333,32.0624390837628,95.1892851112981,12.165525060596439,18.24828759089466,28.284271247461902,31.25699921617557,34.132096331752024,96.51942809610924,78.31347265956222,62.0,60.0,75.0,33.5,28.5,7.5,19.5,11.045361017187261,10.44030650891055,10.5,45.0,18.0,48.662100242385755,268.5609800399157,265.9323222175146,259.20841035738016,246.6576574931336
23,4,23,0,0.7666666666666663,32.14031735997639,108.34205093129813,11.180339887498949,15.297058540778355,30.265491900843113,33.37663853655727,36.22154055254967,94.76286192385707,79.51100552753688,63.0,56.0,73.0,28.5,29.5,11.5,16.5,11.045361017187261,11.40175425099138,11.0,44.0,17.0,52.61178575186362,272.13232075591463,268.4641503068892,259.8499567057882,249.45139807184887
24,4,24,0,0.7999999999999996,31.064449134018133,116.40017182117903,11.180339887498949,15.297058540778355,31.25699921617557,33.24154027718932,36.345563690772494,93.7709976485267,78.5175139698144,62.5,53.0,71.0,26.0,31.0,12.0,14.0,9.055385138137417,10.44030650891055,9.5,44.0,15.0,53.75872022286245,271.9577173017894,268.2927505543152,260.4035330021465,249.96999819978396
25,4,25,0,0.8333333333333329,30.14962686336267,121.06196760337245,9.219544457292887,13.152946437965905,31.25699921617557,33.37663853655727,37.21558813185679,89.67719888578144,76.53103945458993,61.0,52.0,68.0,23.0,29.0,13.0,13.0,10.04987562112089,11.40175425099138,10.5,46.0,19.0,52.46903848937962,271.39823138701547,266.6927070618917,261.1991577321795,252.6420392571276
26,4,26,0,0.8666666666666663,28.160255680657446,120.20815280171308,9.219544457292887,13.341664064126334,31.25699921617557,33.24154027718932,36.124783736376884,86.70063436907483,73.43704787094863,59.0,50.0,67.0,22.5,27.5,11.5,12.5,11.180339887498949,9.848857801796104,9.5,45.0,17.0,51.62363799656123,272.10659675943174,267.4341040331244,261.6123085789352,254.043303395307
27,4,27,0,0.8999999999999996,24.08318915758459,121.19818480488888,9.219544457292887,14.317821063276353,31.400636936215164,33.24154027718932,37.12142238654117,84.5931439302264,70.34912934784623,58.0,49.0,66.0,20.5,26.5,9.5,9.5,11.045361017187261,9.486832980505138,9.5,44.0,17.0,53.600373133029585,272.9468812791236,269.15608854343236,262.60616900598507,252.9584946191766
28,4,28,0,0.9333333333333328,19.1049731745428,121.3424904969401,10.198039027185569,13.341664064126334,32.2490309931942,33.24154027718932,37.12142238654117,79.63039620647382,66.37017402418047,56.5,48.0,66.0,20.0,22.0,6.0,9.0,10.04987562112089,9.486832980505138,9.5,44.0,16.0,52.61178575186362,274.08392875176025,269.5514793133215,262.8345487183905,255.22734963165684
29,4,29,0,0.9666666666666662,14.035668847618199,120.3536455617361,9.219544457292887,11.704699910719626,30.4138126514911,31.400636936215164,36.22154055254967,70.8590149522275,59.413803110051795,52.0,45.0,63.0,18.0,16.0,1.0,7.0,11.045361017187261,11.40175425099138,10.5,43.0,15.0,51.78802950489621,271.9191056178289,265.6689669494727,260.78343505675355,252.16859439668534
30,4,30,0,0.9999999999999996,7.0710678118654755,116.40017182117903,11.180339887498949,13.341664064126334,30.4138126514911,31.400636936215164,36.124783736376884,67.60177512462228,54.3323108288245,50.5,46.0,64.0,19.0,12.0,4.0,7.0,9.219544457292887,9.486832980505138,9.0,45.0,16.0,51.78802950489621,270.7655812691118,267.3200329193456,263.60955976595386,254.77244748991205
31,4,31,0,1.0333333333333328,8.246211251235321,114.58621208504974,10.198039027185569,13.341664064126334,30.4138126514911,31.400636936215164,35.12833614050059,66.75327707311455,53.46026561849464,49.0,45.0,64.0,19.5,11.5,5.5,7.5,9.219544457292887,9.848857801796104,9.0,43.0,16.0,48.83646178829912,271.5879231482873,268.00186566514793,263.3362869032675,254.54469155729805
32,4,32,0,1.066666666666666,12.041594578792296,111.46299834474219,11.180339887498949,14.560219778561036,30.4138126514911,31.400636936215164,36.22154055254967,73.824115301167,59.413803110051795,53.0,48.0,66.0,21.0,16.0,2.0,9.0,9.219544457292887,9.486832980505138,9.0,44.0,16.0,51.62363799656123,273.2489707208428,267.9776110050987,261.0823624835657,252.16859439668534
33,4,33,0,1.0999999999999992,16.0312195418814,107.35455276791944,12.165525060596439,15.297058540778355,28.284271247461902,31.400636936215164,37.21558813185679,80.62257748298549,65.37583651472461,57.0,53.0,70.0,24.5,18.5,0.5,10.5,11.180339887498949,10.770329614269007,10.5,45.0,18.0,51.62363799656123,270.29613389761977,267.8077668776617,261.2374398894615,250.3197954617253
34,4,34,0,1.1333333333333324,6.324555320336759,107.05606008068857,11.045361017187261,14.142135623730951,27.294688127912362,29.274562336608895,43.18564576337837,74.54528824815154,60.40695324215582,57.0,57.0,72.0,21.5,9.5,6.5,9.5,10.04987562112089,10.44030650891055,10.0,44.0,18.0,50.635955604688654,270.7655812691118,268.3076592272386,261.48996156640504,250.9222987301049
35,4,35,0,1.1666666666666656,5.0990195135927845,104.93807697875924,15.132745950421556,11.40175425099138,25.179356624028344,27.294688127912362,42.190046219457976,73.68174807915459,62.39390995922599,59.5,60.0,74.0,25.0,6.0,7.0,9.0,10.04987562112089,11.40175425099138,10.5,43.0,16.0,50.48762224545735,269.45314991664134,266.02443496791795,258.5188581129044,248.07257002740147
36,4,36,0,1.1999999999999988,5.0990195135927845,104.6900186264192,15.132745950421556,15.132745950421556,26.076809620810597,27.294688127912362,42.190046219457976,77.52418977325722,62.39390995922599,59.5,62.0,74.0,26.0,9.0,8.0,10.0,11.045361017187261,11.40175425099138,11.0,45.0,20.0,51.478150704935004,273.09522148876937,270.6806236138819,264.0700664596425,253.55078386784766
37,4,37,0,1.233333333333332,2.23606797749979,105.80170130957252,15.033296378372908,14.317821063276353,26.1725046566048,27.16615541441225,43.18564576337837,74.54528824815154,60.29925372672534,59.0,61.0,74.0,24.5,6.5,9.5,8.5,11.045361017187261,11.40175425099138,11.0,45.0,22.0,49.49747468305833,273.93612394133055,270.27578507887085,263.8275952208184,253.33771926027913
38,4,38,0,1.2666666666666653,1.4142135623730951,106.7941945987702,16.0312195418814,15.132745950421556,27.073972741361768,28.160255680657446,40.11234224026316,72.3394774656273,57.21887800367987,56.5,57.0,70.0,23.5,8.5,8.5,7.5,11.045361017187261,12.36931687685298,11.5,45.0,22.0,51.478150704935004,275.6320010448714,272.13232075591463,266.6927070618917,256.3220630378899
39,4,39,0,1.2999999999999985,2.23606797749979,107.37783756436893,15.132745950421556,13.152946437965905,27.073972741361768,29.154759474226502,41.19465984809196,71.56814934033156,58.42088667591412,57.0,59.0,68.0,22.5,7.5,7.5,6.5,11.045361017187261,12.36931687685298,11.5,43.0,20.0,53.23532661682466,274.37201023428025,271.01660465735307,264.59402865522117,256.2225595063791
40,4,40,0,1.3333333333333317,3.0,110.2905254316979,14.142135623730951,13.152946437965905,27.073972741361768,29.068883707497267,42.190046219457976,72.44308110509934,59.30430001273095,57.5,60.0,68.0,22.0,8.0,7.0,8.0,11.045361017187261,11.40175425099138,11.0,41.0,21.0,49.25444142409901,274.7544358149655,271.55294143131647,265.08866441249427,254.95097567963924
41,4,41,0,1.366666666666665,1.0,111.44954015158609,11.045361017187261,12.165525060596439,26.076809620810597,28.071337695236398,48.093658625644196,71.34423592694787,59.21148537234985,59.0,58.0,68.0,15.0,8.0,5.0,4.0,10.04987562112089,10.44030650891055,10.0,38.0,18.0,51.35172830587107,279.4065138825507,274.05291459862275,266.6777081047458,256.382526705702
42,4,42,0,1.399999999999998,20.024984394500787,115.43396380615195,13.152946437965905,16.0312195418814,31.064449134018133,34.058772731852805,40.049968789001575,89.20201791439474,73.17103251970687,63.0,60.0,70.0,25.0,24.0,6.0,11.0,11.0,10.198039027185569,10.0,41.0,23.0,52.15361924162119,281.02668912400475,277.95323347642494,271.66523517005265,260.37665025881256
43,4,43,0,1.4333333333333311,29.0,122.2620137246234,12.041594578792296,14.142135623730951,32.0624390837628,35.05709628591621,37.05401462729781,92.13576938409967,78.05767098754612,63.5,59.0,67.0,26.0,29.0,12.0,14.0,10.0,10.198039027185569,10.0,40.0,23.0,53.150729063673246,282.29417280560364,277.95323347642494,270.5993348107123,261.37520922994975
44,4,44,0,1.4666666666666646,27.0,124.14507642270796,12.041594578792296,16.0312195418814,34.0147027033899,36.05551275463989,36.013886210738214,91.0494371207203,75.02666192761077,61.5,59.0,65.0,26.0,29.0,11.0,14.0,9.0,10.198039027185569,9.5,39.0,24.0,55.226805085936306,279.5174413162799,276.4633791300396,270.266535109325,260.09421369957465
45,4,45,0,1.4999999999999978,23.0,125.06398362438324,10.0,15.033296378372908,33.015148038438355,36.013886210738214,35.014282800023196,83.02409288875127,68.00735254367721,56.5,57.0,61.0,24.0,24.0,8.0,13.0,10.0,10.04987562112089,10.5,38.0,27.0,53.150729063673246,283.17662332897464,278.14564530116235,273.0897288438362,264.0170449043016
46,4,46,0,1.533333333333331,15.0,124.03628501370073,11.0,13.0,33.015148038438355,35.014282800023196,35.0,74.0,61.0,53.5,56.0,59.0,22.5,16.5,2.5,12.5,10.0,9.219544457292887,9.5,36.0,24.0,55.08175741568164,282.177249260106,277.1461708196597,272.0900586203031,264.030301291348
47,4,47,0,1.5666666666666642,9.0,117.03845521878696,10.0,15.0,32.01562118716424,34.0147027033899,34.0147027033899,68.00735254367721,53.009433122794285,48.5,55.0,58.0,22.5,11.5,4.5,12.5,9.055385138137417,8.246211251235321,8.5,35.0,24.0,53.08483775994799,283.14307337457507,280.08748633239577,275.04545078950133,266.01691675530714
48,4,48,0,1.5999999999999974,11.045361017187261,116.06894502837527,9.0,15.033296378372908,32.01562118716424,34.058772731852805,34.0147027033899,69.00724599634447,54.037024344425184,48.5,54.0,58.0,22.0,13.0,5.0,13.0,9.055385138137417,8.246211251235321,8.5,35.0,26.0,56.0357029044876,285.0631508981826,279.06450867138227,274.0456166407337,263.0171097096157
49,4,49,0,1.6333333333333306,10.0,113.07077429645558,10.04987562112089,16.0,31.016124838541646,32.0624390837628,36.0,72.00694410957877,56.00892785976178,51.0,56.0,60.0,22.0,14.0,4.0,13.0,10.04987562112089,10.198039027185569,10.0,38.0,29.0,52.009614495783374,286.14157335137446,281.1138559374119,276.06520968785617,266.01691675530714
50,4,50,0,1.666666666666664,8.0,108.16653826391968,10.04987562112089,18.0,30.01666203960727,32.0624390837628,37.0,73.00684899377592,55.00909015790027,51.0,56.0,62.0,22.0,14.0,6.0,12.0,10.0,10.04987562112089,9.5,40.0,29.0,48.041648597857254,286.34245231889736,282.3473038652928,276.3059898011623,266.27053911388697
51,4,51,0,1.699999999999997,4.0,103.12128781197411,12.041594578792296,20.0,27.0,30.01666203960727,39.01281840626232,75.0,55.0,53.0,59.0,64.0,22.5,13.5,7.5,11.5,9.055385138137417,9.219544457292887,9.0,39.0,30.0,49.09175083453431,286.29530209208815,282.29948636155893,275.26169366622736,263.1900454044567
52,4,52,0,1.7333333333333305,4.123105625617661,97.04638066409278,14.035668847618199,20.024984394500787,27.018512172212592,29.017236257093817,41.0,79.00632886041473,59.0,57.0,64.0,67.0,24.5,13.5,8.5,11.5,11.0,12.041594578792296,11.5,40.0,30.0,49.040799340956916,288.20999288713085,284.17600180170035,278.21754078418564,265.1207272168662
53,4,53,0,1.7666666666666635,7.0710678118654755,96.25487000666512,16.0,25.019992006393608,27.018512172212592,30.066592756745816,39.0,87.02298546935747,62.00806399170998,58.5,68.0,75.0,32.5,15.5,12.5,16.5,12.0,12.041594578792296,12.0,37.0,27.0,55.00909015790027,290.0844704564517,284.0862545073239,273.045783706689,258.0310058888272
54,4,54,0,1.7999999999999967,12.041594578792296,91.35097153287424,14.0,20.0,27.018512172212592,29.068883707497267,42.01190307520001,88.02272433866155,68.0294054067798,62.0,68.0,76.0,30.0,16.0,8.0,16.0,11.045361017187261,11.180339887498949,11.0,35.0,25.0,54.00925846556311,290.2481696755382,284.2534080710379,272.18376145538144,257.1575392633862
55,4,55,0,1.83333333333333,24.020824298928627,97.082439194738,12.0,19.0,28.0178514522438,32.01562118716424,43.04648650006177,98.04590761474952,79.05694150420949,67.0,71.0,75.0,30.0,25.0,3.0,18.0,11.045361017187261,12.165525060596439,11.5,36.0,27.0,56.0357029044876,287.1741631832502,283.1130516242584,273.02930245671433,259.01737393464555
56,4,56,0,1.8666666666666631,33.0,105.11898020814318,13.038404810405298,17.0,32.0,35.014282800023196,40.01249804748511,103.01941564578979,86.02325267042627,69.5,72.0,77.0,34.5,28.5,9.5,22.5,12.041594578792296,12.041594578792296,11.5,37.0,27.0,55.00909015790027,284.3448610402516,279.35103364763125,269.1858094328154,257.09531306501873
57,4,57,0,1.8999999999999964,35.0,113.01769772916099,12.0,17.0,33.0,36.013886210738214,39.0,103.0,86.0,68.5,72.0,74.0,34.0,30.0,11.0,22.0,11.0,12.041594578792296,12.0,36.0,28.0,55.036351623268054,284.0862545073239,280.08748633239577,270.0296280040396,257.00778198334774
58,4,58,0,1.9333333333333296,34.0147027033899,113.00442469213318,11.0,15.0,31.0,35.014282800023196,39.01281840626232,99.02019995940222,84.02380615040002,67.0,72.0,73.0,33.5,26.5,9.5,22.5,11.045361017187261,11.180339887498949,11.0,35.0,28.0,54.037024344425184,282.14358046923553,275.14723331336626,267.1198233003309,257.0486335306998
59,4,59,0,1.9666666666666628,33.015148038438355,111.00450441310929,11.0,14.0,31.0,34.0,37.12142238654117,95.08417323613851,81.09870529176159,64.5,71.0,70.0,33.5,24.5,8.5,22.5,11.045361017187261,11.045361017187261,10.5,30.0,28.0,55.00909015790027,282.0159569953445,276.0018115882575,269.0,257.00194551792794
60,4,60,0,1.999999999999996,29.017236257093817,109.07336980216573,12.0,15.033296378372908,31.016124838541646,33.015148038438355,38.2099463490856,94.19129471453293,79.1580697086532,64.5,75.0,71.0,35.0,21.0,6.0,24.0,11.180339887498949,11.045361017187261,11.0,26.0,28.0,56.00892785976178,278.4600509947522,272.360055808483,264.3709515056448,256.3298656028985
61,4,61,0,2.033333333333329,28.0178514522438,108.29589096544707,12.041594578792296,14.142135623730951,29.068883707497267,31.064449134018133,37.33630940518894,91.44397191723465,77.31752712031083,63.0,78.0,70.0,37.0,17.0,3.0,26.0,10.44030650891055,10.04987562112089,10.0,22.0,30.0,54.147945482723536,280.20885068105895,274.23530042647684,266.2724168966812,255.03921267130667
62,4,62,0,2.0666666666666624,26.019223662515376,105.47511554864494,12.041594578792296,13.341664064126334,28.160255680657446,31.064449134018133,36.345563690772494,87.5728268357257,74.33034373659252,61.0,78.0,68.0,37.0,14.0,1.0,26.0,11.704699910719626,10.04987562112089,10.0,22.0,33.0,54.3323108288245,278.0395655298001,274.08392875176025,268.3076592272386,257.96511392046796
63,4,63,0,2.099999999999996,20.024984394500787,99.60923651951158,12.041594578792296,14.317821063276353,26.076809620810597,28.160255680657446,35.90264614203248,82.03657720797473,67.7421582177598,57.0,74.0,63.0,33.5,12.5,0.5,22.5,10.44030650891055,10.04987562112089,9.5,23.0,35.0,52.15361924162119,275.5358415887124,274.2334771686345,270.4755072090632,261.6295090390226
64,4,64,0,2.133333333333329,15.132745950421556,100.71742649611338,12.041594578792296,13.341664064126334,26.1725046566048,27.16615541441225,35.6931365951495,76.11832893594026,62.80127387243033,54.5,72.0,60.0,31.0,9.0,3.0,21.0,10.770329614269007,9.055385138137417,9.0,21.0,33.0,53.33854141237835,279.0788419067271,278.1150840928985,272.90474528670256,262.9372548727167
65,4,65,0,2.166666666666662,10.198039027185569,101.71037311896953,10.04987562112089,14.317821063276353,27.16615541441225,29.154759474226502,35.90264614203248,70.40596565632774,56.089214649520635,50.0,71.0,59.0,30.0,4.0,8.0,21.0,9.848857801796104,9.0,9.5,21.0,33.0,54.08326913195984,279.20064469839605,277.2183255125822,271.9007171744863,262.94486114012574
66,4,66,0,2.199999999999996,11.40175425099138,101.96568050084302,10.04987562112089,14.317821063276353,27.16615541441225,29.274562336608895,34.92849839314596,70.61161377563892,56.293871780150276,49.5,71.0,57.0,30.0,5.0,8.0,21.0,9.486832980505138,9.0,9.5,22.0,33.0,53.08483775994799,280.49242414011826,277.48153091692427,275.0363612324741,261.9389241789009
67,4,67,0,2.2333333333333285,21.02379604162864,100.2845950283492,9.055385138137417,14.317821063276353,30.265491900843113,31.25699921617557,33.95585369269929,78.08969202141856,63.788713735268246,52.5,73.0,57.0,32.0,12.0,0.0,25.0,10.770329614269007,10.0,10.0,23.0,36.0,56.22277118748239,278.53904573685895,275.5358415887124,269.21552704106796,256.12496949731394
68,4,68,0,2.2666666666666617,31.016124838541646,99.14131328563285,9.055385138137417,16.1245154965971,29.274562336608895,31.25699921617557,35.6931365951495,91.6624241442479,75.53806987208503,59.5,76.0,61.0,33.5,22.5,7.5,26.5,11.40175425099138,10.198039027185569,10.5,26.0,38.0,54.147945482723536,276.5863337187866,274.79810770818636,269.9666646087994,257.8565492672234
69,4,69,0,2.299999999999995,34.058772731852805,99.72462083156798,10.0,18.24828759089466,29.154759474226502,32.14031735997639,35.6931365951495,97.73944955850733,79.51100552753688,62.0,77.0,65.0,36.0,26.0,9.0,27.0,11.40175425099138,11.180339887498949,11.0,26.0,40.0,53.23532661682466,281.6558183315232,277.7048793233565,270.51247660690257,258.58847615468096
70,4,70,0,2.333333333333328,34.0147027033899,100.71742649611338,9.055385138137417,16.278820596099706,30.14962686336267,33.24154027718932,35.35533905932738,94.53041838477179,78.31347265956222,61.0,77.0,65.0,36.0,23.0,8.0,28.0,12.083045973594572,12.041594578792296,12.0,24.0,40.0,53.46026561849464,283.38842601630716,278.53904573685895,269.7035409482048,254.9078264785136
71,4,71,0,2.3666666666666614,29.068883707497267,101.96568050084302,9.055385138137417,16.278820596099706,29.154759474226502,32.2490309931942,36.345563690772494,90.6697303403953,74.43117626371358,59.5,74.0,60.0,31.0,23.0,8.0,24.0,11.704699910719626,12.165525060596439,11.5,24.0,40.0,53.33854141237835,281.82441342083905,276.5863337187866,270.44038160008574,257.5732905407702
72,4,72,0,2.3999999999999946,17.11724276862369,102.95630140987001,10.04987562112089,14.317821063276353,30.265491900843113,32.2490309931942,37.21558813185679,78.63841300535,64.38167441127949,55.5,71.0,57.0,27.0,14.0,1.0,20.0,11.704699910719626,11.180339887498949,11.0,24.0,40.0,52.3450093132096,280.25167260874645,276.37112729082247,269.0074348414928,260.0173071162764
73,4,73,0,2.433333333333328,6.082762530298219,104.39348638684312,11.045361017187261,18.439088914585774,31.25699921617557,33.37663853655727,36.49657518178932,72.00694410957877,53.600373133029585,50.0,69.0,52.0,24.5,10.5,6.5,16.5,11.704699910719626,10.04987562112089,10.0,24.0,40.0,54.589376255824725,279.3313444638822,276.1340254296815,269.6683147868878,258.4917793663853
74,4,74,0,2.466666666666661,5.0990195135927845,104.23531071570709,12.041594578792296,20.223748416156685,30.265491900843113,32.38826948140329,32.55764119219941,69.87131027825369,49.64876634922564,46.5,65.0,49.0,25.0,12.0,8.0,16.0,10.770329614269007,10.04987562112089,10.0,25.0,40.0,53.33854141237835,281.6558183315232,277.50495491071865,270.85235830614437,258.69866640553056
75,4,75,0,2.4999999999999942,6.082762530298219,102.1077861869505,13.0,21.213203435596427,29.154759474226502,32.2490309931942,32.55764119219941,72.69112738154499,51.478150704935004,48.0,67.0,52.0,27.5,12.5,7.5,17.5,12.649110640673518,11.045361017187261,11.0,26.0,41.0,56.32051136131489,283.2701890421934,279.8731855680354,272.20947815974375,259.0694887477103
76,4,76,0,2.5333333333333274,7.280109889280518,102.95630140987001,13.0,22.090722034374522,30.14962686336267,32.2490309931942,33.54101966249684,75.66372975210778,53.600373133029585,49.5,68.0,54.0,28.0,14.0,8.0,17.0,12.649110640673518,10.04987562112089,11.0,27.0,40.0,57.3149195236284,281.61853632174143,278.1726082848561,271.82715096178305,260.64727123068064
77,4,77,0,2.5666666666666607,10.04987562112089,103.9471019317037,12.041594578792296,20.223748416156685,31.144823004794873,33.24154027718932,32.2490309931942,74.54528824815154,54.3323108288245,49.0,66.0,52.0,27.0,15.0,5.0,18.0,11.704699910719626,10.04987562112089,10.0,27.0,40.0,54.230987451824994,281.7800560721074,277.3625785862253,269.675731203236,257.51310646256434
78,4,78,0,2.599999999999994,10.198039027185569,104.08650248711405,11.0,21.095023109728988,30.14962686336267,33.24154027718932,32.38826948140329,74.54528824815154,53.46026561849464,48.0,66.0,51.0,26.5,15.5,4.5,17.5,11.40175425099138,10.04987562112089,10.5,26.0,39.0,55.44366510251645,283.28254446753334,279.8070763937181,273.2489707208428,260.90994615000784
79,4,79,0,2.633333333333327,11.045361017187261,103.81714694596457,12.041594578792296,21.095023109728988,32.14031735997639,34.23448553724738,32.55764119219941,76.6550715869472,55.57877292636101,49.5,67.0,54.0,28.5,15.5,4.5,18.5,12.649110640673518,11.045361017187261,11.5,28.0,41.0,54.3323108288245,283.13247782619356,278.0017985553331,269.4921149124775,257.3285837212804
80,4,80,0,2.6666666666666603,12.041594578792296,103.81714694596457,11.045361017187261,21.095023109728988,32.14031735997639,35.22782990761707,33.37663853655727,77.52418977325722,56.43580423808985,50.0,67.0,54.0,27.5,16.5,4.5,18.5,12.36931687685298,12.041594578792296,11.5,29.0,41.0,56.22277118748239,279.7320146139873,275.0727176584403,266.33249895572266,254.32656172724074
81,4,81,0,2.699999999999993,10.198039027185569,100.84145972763385,12.0,20.09975124224178,31.144823004794873,33.13608305156178,34.36568055487916,76.53103945458993,56.43580423808985,51.0,68.0,55.0,27.5,14.5,5.5,18.5,12.36931687685298,12.041594578792296,12.0,28.0,40.0,55.226805085936306,282.842712474619,279.0286723618202,272.2590678012396,258.953663808798
82,4,82,0,2.7333333333333267,10.04987562112089,100.71742649611338,12.041594578792296,21.095023109728988,31.064449134018133,33.13608305156178,34.36568055487916,77.52418977325722,56.43580423808985,51.0,68.0,56.0,28.0,15.0,6.0,18.0,13.341664064126334,12.041594578792296,12.5,28.0,40.0,57.21887800367987,280.72228269234347,277.0505369061753,270.2831848265815,256.14253844295365
83,4,83,0,2.76666666666666,8.06225774829855,99.72462083156798,12.041594578792296,20.223748416156685,30.066592756745816,32.14031735997639,36.22154055254967,76.53103945458993,56.32051136131489,52.0,68.0,56.0,26.0,14.0,6.0,16.0,13.341664064126334,12.041594578792296,12.5,27.0,39.0,57.3149195236284,279.46019394539894,274.64158461529456,267.8544380815819,255.69122002915938
84,4,84,0,2.799999999999993,7.0710678118654755,100.60318086422517,12.041594578792296,21.095023109728988,29.068883707497267,31.144823004794873,35.35533905932738,75.53806987208503,54.45181356024793,50.5,66.0,55.0,25.5,14.5,6.5,15.5,13.341664064126334,12.165525060596439,12.0,28.0,39.0,55.14526271584895,277.34635386101615,273.5141678231678,267.5705514439136,256.5384961365448
85,4,85,0,2.8333333333333264,9.055385138137417,99.60923651951158,11.045361017187261,21.095023109728988,30.066592756745816,33.13608305156178,36.22154055254967,77.41446893184762,56.32051136131489,51.5,68.0,57.0,26.5,14.5,6.5,17.5,13.341664064126334,12.041594578792296,12.0,27.0,38.0,54.230987451824994,279.0788419067271,276.3548443577568,268.4250360901531,254.41894583540747
86,4,86,0,2.86666666666666,9.055385138137417,98.50888284819801,11.0,21.095023109728988,30.066592756745816,33.06055050963308,36.345563690772494,77.41446893184762,56.32051136131489,51.5,67.0,57.0,26.0,15.0,6.0,17.0,12.36931687685298,13.038404810405298,12.5,29.0,38.0,53.150729063673246,280.3212442894758,276.6224864323217,268.70057685088807,255.54842985234717
87,4,87,0,2.899999999999993,11.045361017187261,97.62171889492625,12.0,21.095023109728988,31.144823004794873,33.13608305156178,35.35533905932738,79.40403012442127,58.309518948453004,52.5,68.0,57.0,27.5,16.5,5.5,18.5,12.165525060596439,13.0,12.5,29.0,38.0,54.08326913195984,278.84224930953343,276.1014306373656,269.2842364491468,258.11818998280614
88,4,88,0,2.933333333333326,13.152946437965905,95.63472172804185,12.0,23.08679276123039,28.071337695236398,31.144823004794873,34.36568055487916,82.49242389456137,59.413803110051795,52.5,68.0,57.0,28.5,19.5,4.5,18.5,14.142135623730951,14.035668847618199,14.0,32.0,40.0,54.08326913195984,282.93108701590216,276.3548443577568,268.4250360901531,254.2833065696606
89,4,89,0,2.9666666666666592,12.165525060596439,92.77930803794561,14.0,26.076809620810597,26.1725046566048,30.14962686336267,35.35533905932738,87.46427842267951,61.40032573203501,55.0,72.0,60.0,31.0,21.0,5.0,19.0,15.132745950421556,15.033296378372908,14.5,33.0,41.0,54.08326913195984,281.710844661685,277.09384691833196,268.5609800399157,252.43811122728675
90,4,90,0,2.9999999999999925,12.165525060596439,90.79647570252934,15.0,26.076809620810597,27.16615541441225,30.265491900843113,35.35533905932738,88.45903006477066,62.39390995922599,56.0,73.0,61.0,32.0,21.0,6.0,19.0,15.132745950421556,15.033296378372908,14.5,33.0,42.0,55.14526271584895,279.72307734614964,275.10906927980403,267.30132809247317,254.2833065696606
91,4,91,0,3.0333333333333257,12.041594578792296,89.80534505250787,15.0,26.1725046566048,27.16615541441225,30.14962686336267,36.345563690772494,89.45389874119518,63.28506932918696,57.0,74.0,62.0,32.0,21.0,5.0,19.0,15.297058540778355,15.132745950421556,15.0,33.0,42.0,57.14017850864661,281.4977797425763,277.8488797889961,271.1401851441427,256.00781238079435
92,4,92,0,3.066666666666659,10.04987562112089,92.77930803794561,14.035668847618199,25.079872407968907,27.16615541441225,30.14962686336267,36.22154055254967,85.37564055396598,60.29925372672534,55.0,72.0,60.0,30.0,19.0,6.0,18.0,15.297058540778355,15.033296378372908,15.0,32.0,40.0,56.142675390472796,283.6987839240768,278.9587783167972,269.15608854343236,255.01568579207046
93,4,93,0,3.099999999999992,8.06225774829855,93.7709976485267,14.0,24.186773244895647,29.068883707497267,31.144823004794873,36.49657518178932,82.60750571225353,58.42088667591412,54.0,71.0,59.0,29.0,17.0,6.0,17.0,14.142135623730951,14.142135623730951,14.0,31.0,40.0,52.23983154643591,282.70479302622374,277.09384691833196,268.4250360901531,254.2833065696606
94,4,94,0,3.1333333333333253,7.0710678118654755,98.50888284819801,12.0,20.09975124224178,30.14962686336267,32.0624390837628,37.48332962798263,76.53103945458993,56.43580423808985,52.5,68.0,58.0,26.0,13.0,7.0,17.0,14.317821063276353,14.035668847618199,13.5,29.0,37.0,56.142675390472796,280.5031194122447,276.85555800814257,268.03917624108607,255.01568579207046
95,4,95,0,3.1666666666666585,8.06225774829855,97.73944955850733,11.0,19.1049731745428,30.14962686336267,31.25699921617557,36.345563690772494,74.43117626371358,55.326304774492215,51.0,68.0,56.0,26.0,12.0,7.0,18.0,12.165525060596439,12.041594578792296,12.0,30.0,38.0,57.14017850864661,282.70479302622374,277.8488797889961,270.0240730009086,257.75181861628056
96,4,96,0,3.199999999999992,8.06225774829855,98.85848471426213,10.0,18.110770276274835,29.154759474226502,32.2490309931942,37.33630940518894,73.43704787094863,55.326304774492215,51.0,69.0,56.0,25.5,10.5,7.5,17.5,14.317821063276353,13.038404810405298,13.0,28.0,38.0,58.137767414994535,282.59688604087626,276.85555800814257,269.15608854343236,256.1347301714471
97,4,97,0,3.233333333333325,7.0710678118654755,101.59724405711013,12.0,19.1049731745428,30.14962686336267,33.24154027718932,36.345563690772494,74.43117626371358,55.326304774492215,51.5,68.0,57.0,26.5,11.5,7.5,17.5,13.341664064126334,14.035668847618199,13.5,28.0,37.0,56.142675390472796,279.72307734614964,275.98007174431996,267.9178978717174,255.88473967784793
98,4,98,0,3.266666666666658,12.041594578792296,103.58571330062848,8.06225774829855,15.132745950421556,30.14962686336267,32.14031735997639,37.21558813185679,72.44308110509934,57.3149195236284,51.0,67.0,56.0,24.5,10.5,4.5,18.5,12.36931687685298,12.041594578792296,12.0,27.0,37.0,57.14017850864661,281.3129929455801,277.6130400395486,268.8438208328397,257.8158257361251
99,4,99,0,3.2999999999999914,25.019992006393608,104.47966309287182,8.06225774829855,16.0312195418814,29.154759474226502,32.0624390837628,36.345563690772494,85.37564055396598,69.35416353759881,56.5,68.0,58.0,27.0,22.0,6.0,21.0,13.341664064126334,13.038404810405298,13.0,28.0,36.0,55.08175741568164,281.18677067031444,275.49591648516315,268.5609800399157,255.69122002915938
100,4,100,0,3.3333333333333246,37.013511046643494,101.31633629380802,7.0,16.1245154965971,30.066592756745816,34.058772731852805,36.49657518178932,96.42095207992918,80.30566605165541,61.5,70.0,62.0,30.0,30.0,13.0,24.0,13.341664064126334,13.038404810405298,13.0,29.0,37.0,58.137767414994535,281.710844661685,276.9729228643118,267.1722290957651,253.4284909002932
101,4,101,0,3.366666666666658,35.014282800023196,104.47966309287182,8.0,17.11724276862369,31.064449134018133,34.132096331752024,36.345563690772494,96.33275663033837,79.22752047110903,61.5,71.0,61.0,30.0,30.0,12.0,23.0,13.341664064126334,14.035668847618199,13.5,29.0,37.0,55.08175741568164,281.82263926093657,274.9872724327437,267.30132809247317,255.27436220662662
102,4,102,0,3.399999999999991,22.090722034374522,103.4842983258813,8.0,16.1245154965971,29.068883707497267,32.0624390837628,38.3275357934736,84.48076704197234,68.3593446428504,57.0,69.0,59.0,26.0,20.0,3.0,19.0,13.341664064126334,13.038404810405298,13.0,28.0,37.0,56.0357029044876,280.8291295432153,276.1014306373656,265.5899094468764,253.56853117056934
103,4,103,0,3.433333333333324,11.045361017187261,103.4842983258813,10.0,17.11724276862369,29.068883707497267,31.064449134018133,39.20459156782532,77.31752712031083,60.207972893961475,54.5,67.0,57.0,23.0,15.0,2.0,15.0,13.341664064126334,13.0,13.0,28.0,36.0,56.08029957123981,279.6140196771256,274.86905973572215,265.9323222175146,253.7794317906792
104,4,104,0,3.466666666666657,8.0,106.30145812734649,11.0,15.132745950421556,29.017236257093817,31.064449134018133,39.319206502675,73.33484846919642,58.215118311311535,54.0,67.0,59.0,24.0,10.0,6.0,15.0,12.165525060596439,11.045361017187261,11.0,26.0,34.0,57.14017850864661,277.73548566936853,275.98007174431996,266.18038996139444,255.4094751570505
105,4,105,0,3.4999999999999907,5.0,106.23088063270491,10.04987562112089,14.142135623730951,28.0178514522438,29.068883707497267,37.21558813185679,66.37017402418047,52.23983154643591,49.5,64.0,57.0,23.5,5.5,8.5,14.5,10.44030650891055,9.0,9.0,27.0,33.0,53.08483775994799,278.03776721877193,274.23530042647684,266.47513955339247,255.53864678361276
106,4,106,0,3.533333333333324,3.0,105.11898020814318,12.0,17.029386365926403,28.0178514522438,29.017236257093817,37.12142238654117,69.1158447825099,52.08646657242167,50.5,64.0,59.0,24.5,7.5,9.5,13.5,6.324555320336759,6.082762530298219,5.5,32.0,32.0,53.009433122794285,276.4633791300396,274.5906043549196,270.7397274136177,261.76516192954324
107,4,107,0,3.566666666666657,6.0,104.00480758118829,11.045361017187261,14.035668847618199,27.0,29.0,36.22154055254967,67.11929677819934,53.08483775994799,50.0,63.0,62.0,26.5,4.5,9.5,15.5,5.385164807134504,6.324555320336759,6.0,35.0,30.0,52.0,272.47018185482244,273.80650101851126,272.9706943977686,264.18554086096384
108,4,108,0,3.5999999999999903,20.0,109.00458705944443,11.0,12.0,29.017236257093817,32.01562118716424,35.05709628591621,78.02563681252464,66.03029607687671,56.0,64.0,65.0,29.5,13.5,0.5,18.5,5.385164807134504,5.385164807134504,4.5,36.0,27.0,54.037024344425184,278.25887227544064,278.4600509947522,274.5906043549196,262.68802789621
109,4,109,0,3.633333333333324,41.012193308819754,115.15641536623133,12.041594578792296,16.0312195418814,31.016124838541646,35.014282800023196,36.013886210738214,105.01904589168576,89.00561780022652,68.5,70.0,76.0,37.0,32.0,14.0,24.0,7.0710678118654755,7.0710678118654755,7.0,36.0,26.0,57.0087712549569,279.06450867138227,276.2607463973121,271.4719138327205,261.6199533674754
110,4,110,0,3.6666666666666567,52.009614495783374,120.14990636700472,12.041594578792296,15.0,32.01562118716424,36.013886210738214,36.0,115.0173899895142,100.0199980003999,74.0,72.0,78.0,39.0,40.0,23.0,27.0,7.0710678118654755,8.06225774829855,8.0,37.0,25.0,55.08175741568164,283.21370023358685,283.5718603811034,278.03776721877193,265.2772134956186
111,4,111,0,3.69999999999999,54.00925846556311,124.10076550932311,12.041594578792296,17.029386365926403,35.05709628591621,38.05259518088089,36.013886210738214,119.01680553602503,102.00490184299969,75.0,74.0,79.0,40.5,42.5,23.5,27.5,9.055385138137417,8.246211251235321,8.0,38.0,27.0,58.034472514187634,279.0447992706547,278.3522947633089,272.8094573140748,259.3067681338071
112,4,112,0,3.733333333333323,54.00925846556311,128.14054783713078,11.045361017187261,17.0,34.0147027033899,38.01315561749642,36.013886210738214,118.00423721205946,101.00495037373169,74.0,69.0,75.0,36.0,46.0,28.0,24.0,8.06225774829855,8.246211251235321,8.5,35.0,25.0,56.00892785976178,282.0070921094007,280.11426240018557,272.31048455760936,258.55947091530027
113,4,113,0,3.766666666666656,59.00847396772772,130.034610777285,12.041594578792296,17.0,34.0147027033899,38.01315561749642,36.05551275463989,124.0,107.0,77.5,70.0,73.0,35.5,52.5,33.5,23.5,9.055385138137417,9.0,9.0,37.0,29.0,57.0350769263968,283.21370023358685,281.51376520518494,276.87542325024083,264.2820463065927
114,4,114,0,3.7999999999999896,59.00847396772772,129.0155029444136,11.0,17.0,35.0,39.01281840626232,36.013886210738214,123.0,106.0,76.5,72.0,74.0,37.0,50.0,31.0,26.0,9.219544457292887,10.198039027185569,9.5,36.0,27.0,56.0357029044876,283.08655920053855,283.2543027034188,276.40730815229904,261.6906570743404
115,4,115,0,3.833333333333323,64.03124237432849,133.0338302838793,10.04987562112089,16.0,36.013886210738214,40.01249804748511,37.0,127.03542812932147,111.04053313993049,79.0,70.0,73.0,34.5,55.5,37.5,24.5,9.055385138137417,9.055385138137417,9.0,36.0,29.0,57.0350769263968,283.08655920053855,283.2984292226132,277.5211703636319,265.75364531836624
116,4,116,0,3.866666666666656,62.00806399170998,133.0338302838793,9.055385138137417,17.0,36.013886210738214,40.01249804748511,38.0,126.01587201618692,109.01834707974616,78.0,70.0,73.0,33.5,54.5,35.5,24.5,10.04987562112089,10.04987562112089,10.0,36.0,27.0,59.033888572581766,286.08565151017274,286.2516375499012,279.35103364763125,266.48076853686837
117,4,117,0,3.899999999999989,60.00833275470999,134.05968819895114,10.04987562112089,17.0,36.013886210738214,40.0,37.013511046643494,124.00403219250575,107.00467279516349,77.0,70.0,74.0,35.0,52.0,33.0,25.0,9.0,11.045361017187261,10.5,36.0,27.0,59.00847396772772,287.0435507026765,286.2114602876691,280.349781523011,266.54267950930483
118,4,118,0,3.9333333333333225,63.0317380372777,135.05924625881784,9.055385138137417,16.0,37.0,41.012193308819754,38.01315561749642,126.01587201618692,110.01818031580054,78.5,70.0,74.0,34.0,54.0,36.0,25.0,10.04987562112089,10.04987562112089,10.0,39.0,30.0,58.034472514187634,286.02797066021355,285.14206985290684,278.30379084734005,263.54885695066105
119,4,119,0,3.966666666666656,61.032778078668514,133.06013678032951,10.04987562112089,17.0,37.013511046643494,41.012193308819754,36.013886210738214,124.01612798341996,107.01868995647442,76.5,70.0,74.0,36.0,52.0,33.0,26.0,11.045361017187261,11.045361017187261,11.0,39.0,29.0,59.07622195096772,288.00173610587836,285.0438562747845,277.1461708196597,263.2736219221364
120,4,120,0,3.999999999999989,58.008620049092706,135.0148140020198,10.0,17.029386365926403,36.013886210738214,40.01249804748511,36.0,121.01652779682617,104.00480758118829,75.0,65.0,67.0,30.0,55.0,36.0,20.0,10.04987562112089,10.04987562112089,10.0,38.0,31.0,58.034472514187634,284.0633732109791,280.2159881234474,274.4102767754881,262.68802789621
121,4,121,0,4.033333333333323,46.010868281309364,127.00393694685216,11.0,18.0,38.0,41.0,35.014282800023196,110.0,92.0,69.0,70.0,71.0,35.5,39.5,20.5,24.5,12.0,11.180339887498949,11.0,37.0,31.0,60.07495318350236,287.1114766079545,282.21445746098834,273.41177736154674,261.76516192954324
122,4,122,0,4.066666666666656,35.014282800023196,118.0,11.045361017187261,17.0,34.0,36.0,38.01315561749642,101.00495037373169,84.00595217006948,66.5,73.0,73.0,35.0,28.0,10.0,24.0,11.180339887498949,12.041594578792296,11.5,35.0,30.0,58.0,288.0277764383151,281.0871750898643,271.1844390815963,258.3273117577776
123,4,123,0,4.099999999999989,26.0,110.0,10.04987562112089,15.0,31.0,33.0,39.11521443121589,90.0222194794152,75.02666192761077,62.0,69.0,69.0,30.0,21.0,5.0,21.0,12.165525060596439,12.0,11.5,33.0,30.0,57.0,286.08565151017274,280.1446055165082,271.14940531006147,259.23348549136165
124,4,124,0,4.133333333333322,20.0,108.01851693112621,11.0,13.038404810405298,28.0,31.016124838541646,37.05401462729781,81.05553651663777,68.0294054067798,58.0,67.0,65.0,29.0,15.0,0.0,19.0,12.165525060596439,11.045361017187261,11.0,31.0,29.0,54.0,284.04401067440233,278.0287754891569,270.0296280040396,259.0308861892728
125,4,125,0,4.166666666666655,17.029386365926403,106.01886624558857,9.0,13.0,29.0,31.0,38.05259518088089,77.05841939723393,64.07027391856539,55.5,66.0,64.0,27.0,12.0,3.0,18.0,12.165525060596439,11.045361017187261,11.5,30.0,30.0,54.0,285.0438562747845,280.0160709673643,272.0073528417936,261.0019157017818
126,4,126,0,4.199999999999989,9.0,106.01886624558857,10.0,14.035668847618199,30.0,31.0,37.05401462729781,70.06425622241343,56.0357029044876,51.5,63.0,61.0,25.0,8.0,7.0,16.0,11.180339887498949,11.0,11.0,30.0,29.0,57.0087712549569,283.08655920053855,278.1150840928985,271.14940531006147,260.09421369957465
127,4,127,0,4.233333333333322,14.0,102.07840124139877,10.0,15.033296378372908,30.0,32.01562118716424,33.06055050963308,72.06247289678588,57.0350769263968,50.0,64.0,60.0,29.0,10.0,6.0,19.0,11.045361017187261,11.045361017187261,11.0,31.0,29.0,57.0,286.0629301395062,279.0447992706547,270.04629232781554,258.0310058888272
128,4,128,0,4.266666666666655,11.0,102.00490184299969,12.0,20.0,32.0,33.0,31.064449134018133,74.02702209328699,54.037024344425184,48.5,59.0,58.0,27.5,15.5,6.5,16.5,11.045361017187261,11.180339887498949,11.0,35.0,31.0,54.0,282.00177304407146,278.0017985553331,270.0166661522951,259.0308861892728
129,4,129,0,4.299999999999988,13.0,102.00490184299969,12.0,21.0,32.0,34.0,30.066592756745816,76.02631123499285,55.036351623268054,48.5,60.0,59.0,29.5,16.5,5.5,18.5,12.041594578792296,12.041594578792296,11.5,34.0,31.0,53.009433122794285,284.0070421662111,279.0161285660741,271.02951868754076,261.0689564080724
130,4,130,0,4.3333333333333215,17.029386365926403,103.07764064044152,13.038404810405298,22.0,33.015148038438355,35.014282800023196,26.1725046566048,78.05767098754612,56.08029957123981,47.5,63.0,59.0,35.0,17.0,6.0,23.0,12.165525060596439,11.180339887498949,11.0,36.0,31.0,54.0,287.0853531617383,279.06450867138227,271.0664125265246,261.0689564080724
131,4,131,0,4.366666666666655,22.0,101.01980003939822,12.0,22.0,33.0,35.0,28.160255680657446,84.0535543567314,62.07253821135398,51.0,66.0,64.0,37.0,19.0,5.0,25.0,13.038404810405298,11.045361017187261,11.5,36.0,33.0,56.0,289.0276803352925,281.0160137785746,272.04595200076034,259.0308861892728
132,4,132,0,4.399999999999988,30.0,94.19129471453293,13.0,25.019992006393608,31.016124838541646,35.014282800023196,30.265491900843113,98.12746812182611,73.10950690573696,58.0,74.0,68.0,41.0,27.0,0.0,29.0,13.152946437965905,12.041594578792296,12.0,35.0,33.0,54.0,289.0155705148081,281.0160137785746,270.0166661522951,257.0175091311874
133,4,133,0,4.433333333333321,30.0,93.08598175880189,13.0,25.019992006393608,30.0,33.015148038438355,30.265491900843113,98.12746812182611,73.10950690573696,58.0,74.0,70.0,42.0,26.0,0.0,29.0,14.142135623730951,14.035668847618199,13.5,36.0,34.0,55.0,291.04295215655026,283.0282671395209,272.04595200076034,257.0311265197272
134,4,134,0,4.466666666666654,17.029386365926403,106.07544484940895,13.0,21.0,31.016124838541646,33.015148038438355,37.12142238654117,88.09086218218096,67.11929677819934,58.5,70.0,66.0,31.0,20.0,2.0,19.0,14.142135623730951,13.038404810405298,13.0,36.0,34.0,55.00909015790027,290.1103238424996,285.08595195133694,275.11633902769205,261.1225765804252
135,4,135,0,4.499999999999988,2.0,111.07204868912791,11.0,15.033296378372908,28.071337695236398,29.017236257093817,46.010868281309364,74.02702209328699,59.00847396772772,58.0,66.0,62.0,18.0,10.0,5.0,9.0,13.038404810405298,13.152946437965905,13.5,36.0,33.0,59.0,287.0017421549911,284.0,278.0,268.00746258266764
136,4,136,0,4.533333333333321,2.0,116.03878661895772,12.041594578792296,15.033296378372908,29.017236257093817,30.01666203960727,47.0,76.02631123499285,61.00819617067857,60.0,66.0,63.0,17.5,11.5,4.5,7.5,13.038404810405298,13.038404810405298,13.0,36.0,33.0,56.0,287.0435507026765,284.0633732109791,277.0649743291274,267.0674072214728
137,4,137,0,4.566666666666654,11.045361017187261,116.03878661895772,12.0,14.0,30.01666203960727,31.0,44.01136216933077,81.02468759581859,67.02984409947557,61.5,66.0,63.0,20.5,16.5,1.5,9.5,14.035668847618199,13.038404810405298,13.0,36.0,34.0,55.00909015790027,291.0068727710739,288.00173610587836,281.00177935379696,270.0018518455012
138,4,138,0,4.599999999999987,21.0,117.03845521878696,12.0,16.0312195418814,31.016124838541646,33.0,42.04759208325728,91.0494371207203,75.02666192761077,64.5,69.0,66.0,25.5,23.5,6.5,14.5,14.142135623730951,14.035668847618199,14.0,36.0,34.0,57.0087712549569,295.0,289.0017300986276,279.00716836669267,268.00746258266764
139,4,139,0,4.63333333333332,22.02271554554524,117.01709276853532,12.0,16.0,32.01562118716424,34.0147027033899,39.05124837953327,89.05054744357274,73.06161783043132,62.0,68.0,66.0,28.0,22.0,5.0,17.0,14.035668847618199,13.038404810405298,13.0,35.0,33.0,59.00847396772772,293.0068258590574,288.00173610587836,279.00716836669267,268.00746258266764
140,4,140,0,4.666666666666654,19.026297590440446,117.06835610018618,11.0,15.033296378372908,31.064449134018133,33.015148038438355,39.05124837953327,84.09518416651456,69.06518659932803,59.5,65.0,61.0,24.0,21.0,5.0,15.0,13.152946437965905,12.041594578792296,12.0,34.0,32.0,58.008620049092706,293.0,288.00694436072195,280.0071427660373,269.0074348414928
141,4,141,0,4.699999999999987,14.035668847618199,117.03845521878696,10.0,13.038404810405298,31.016124838541646,33.015148038438355,39.11521443121589,76.16429609731846,63.12685640834652,56.0,63.0,60.0,22.5,14.5,0.5,13.5,14.142135623730951,13.0,13.0,34.0,33.0,57.0087712549569,294.0153057240388,290.0017241328058,282.00177304407146,273.00183149568795
142,4,142,0,4.73333333333332,9.055385138137417,115.00434774390054,9.0,15.0,30.01666203960727,32.01562118716424,39.11521443121589,72.11102550927978,57.14017850864661,52.5,61.0,60.0,21.5,11.5,3.5,13.5,13.038404810405298,12.041594578792296,12.0,34.0,31.0,58.0,293.00170647967224,288.00173610587836,280.0071427660373,270.0074073057997
143,4,143,0,4.766666666666653,12.0,111.01801655587259,10.0,16.0,31.0,33.0,38.05259518088089,76.02631123499285,60.03332407921454,54.0,63.0,61.0,24.0,14.0,3.0,14.0,14.035668847618199,12.041594578792296,13.0,34.0,32.0,58.0,293.01535795927146,287.0017421549911,279.0017921089397,270.0074073057997
144,4,144,0,4.7999999999999865,13.038404810405298,112.0,10.0,14.0,31.0,32.0,39.11521443121589,76.10519036176179,62.12889826803627,55.5,64.0,64.0,25.0,12.0,4.0,16.0,14.142135623730951,12.041594578792296,12.5,34.0,31.0,58.008620049092706,292.0273959751037,287.0017421549911,278.0,268.0
145,4,145,0,4.83333333333332,8.0,113.0,9.0,15.033296378372908,30.0,31.0,41.10960958218893,73.10950690573696,58.077534382926416,54.0,64.0,64.0,23.0,9.0,7.0,14.0,13.038404810405298,13.038404810405298,13.5,33.0,31.0,57.0087712549569,292.0616373302047,286.04370295463593,278.0287754891569,268.06715576511795
146,4,146,0,4.866666666666653,7.0,115.00434774390054,10.0,15.033296378372908,30.0,31.016124838541646,39.05124837953327,71.06335201775947,56.0357029044876,52.5,61.0,60.0,21.5,10.5,4.5,11.5,13.038404810405298,12.041594578792296,12.5,35.0,32.0,57.0087712549569,291.0154635066666,288.00173610587836,279.0017921089397,269.0
147,4,147,0,4.899999999999986,7.0,114.0175425099138,11.0,14.0,30.0,31.0,39.05124837953327,71.02816342831905,57.0350769263968,53.5,62.0,60.0,22.0,10.0,6.0,12.0,14.035668847618199,13.038404810405298,13.0,34.0,30.0,56.0,290.0017241328058,286.00174824640493,278.0071941515183,267.0074905316328
148,4,148,0,4.933333333333319,11.0,112.0044641967453,10.04987562112089,16.0,29.017236257093817,32.01562118716424,39.05124837953327,76.05918747922567,60.07495318350236,54.5,63.0,62.0,23.5,13.5,4.5,13.5,13.038404810405298,12.041594578792296,12.5,35.0,30.0,57.0,293.00170647967224,287.0017421549911,279.0,266.0
149,4,149,0,4.966666666666653,12.0,110.00454536063498,11.0,16.0312195418814,30.0,32.01562118716424,39.05124837953327,78.05767098754612,62.03224967708329,56.0,63.0,62.0,23.5,15.5,2.5,13.5,14.035668847618199,12.041594578792296,12.5,36.0,32.0,58.008620049092706,292.00171232374646,288.0,280.0,269.0
150,4,150,0,4.999999999999986,11.0,105.0,11.0,17.0,29.0,30.066592756745816,40.01249804748511,79.00632886041473,62.00806399170998,56.5,64.0,64.0,24.0,15.0,4.0,14.0,15.033296378372908,14.142135623730951,14.0,38.0,33.0,56.00892785976178,292.0154105522515,287.0278732109479,280.0160709673643,268.01679051880313
151,4,151,0,5.033333333333319,9.0,109.0,12.0,17.0,29.017236257093817,31.016124838541646,40.01249804748511,78.00640999302557,61.00819617067857,56.5,64.0,64.0,24.0,14.0,4.0,13.0,14.035668847618199,13.0,13.0,38.0,34.0,55.0,292.0,288.00173610587836,281.0071173475861,272.0073528417936
152,4,152,0,5.066666666666652,6.0,105.00476179678711,12.041594578792296,18.027756377319946,28.0,30.0,39.05124837953327,75.02666192761077,57.0087712549569,54.0,61.0,62.0,22.5,13.5,5.5,11.5,14.035668847618199,13.038404810405298,13.5,38.0,33.0,58.0,294.00680264238787,290.0068964697219,283.0017667789373,273.00183149568795
153,4,153,0,5.099999999999985,5.0,106.00471687618433,12.0,17.0,27.0,29.017236257093817,39.0,73.0,56.0,53.5,61.0,62.0,22.5,11.5,6.5,11.5,15.033296378372908,14.035668847618199,13.5,38.0,34.0,55.00909015790027,295.0271173977063,290.01551682625535,282.0070921094007,272.0073528417936
154,4,154,0,5.133333333333319,3.1622776601683795,110.01818031580054,12.041594578792296,16.0,28.0,30.0,40.01249804748511,71.00704190430693,55.00909015790027,53.5,60.0,62.0,21.0,10.0,7.0,10.0,14.035668847618199,14.035668847618199,13.5,39.0,34.0,55.0,296.0270257932542,292.0154105522515,285.0070174574654,276.00724628168734
155,4,155,0,5.166666666666652,3.0,106.1178590059185,13.0,18.027756377319946,27.018512172212592,29.017236257093817,39.0,73.00684899377592,55.0,53.5,61.0,66.0,24.5,9.5,9.5,12.5,14.035668847618199,14.142135623730951,13.5,40.0,34.0,55.00909015790027,297.0605998782067,292.0616373302047,284.0862545073239,273.11719096387907
156,4,156,0,5.199999999999985,5.0,108.11567878897121,12.041594578792296,18.0,27.073972741361768,28.0178514522438,39.01281840626232,74.0,56.0,53.5,59.0,64.0,22.5,12.5,7.5,10.5,13.038404810405298,14.035668847618199,14.0,41.0,35.0,54.00925846556311,301.0597947252339,295.0610106401725,288.0850568842473,276.08875384557047
157,4,157,0,5.233333333333318,6.0,111.07204868912791,13.0,18.0,28.071337695236398,31.016124838541646,36.0,73.0,55.0,52.0,57.0,61.0,23.0,14.0,6.0,10.0,12.0,14.035668847618199,13.0,41.0,36.0,51.03920062069938,300.0266654815868,296.04222671774374,290.06206232459976,278.0647406630334
158,4,158,0,5.266666666666652,11.0,111.07204868912791,12.0,19.026297590440446,29.017236257093817,31.064449134018133,33.0,75.0066663703967,56.0,50.5,54.0,58.0,23.0,19.0,2.0,11.0,14.0,14.142135623730951,14.0,47.0,40.0,50.08991914547278,301.1345214351885,297.1363323459452,288.1405906844782,276.181100005051
159,4,159,0,5.299999999999985,15.033296378372908,115.06954418958998,11.0,18.0,30.01666203960727,32.01562118716424,31.016124838541646,75.0,57.0,49.5,47.0,51.0,18.0,26.0,5.0,8.0,13.038404810405298,13.038404810405298,13.0,47.0,41.0,48.041648597857254,301.1345214351885,297.1683024819437,289.1729586251107,274.2207140243056
160,4,160,0,5.333333333333318,16.0,116.01724009818541,10.0,19.0,30.01666203960727,32.0,28.0178514522438,73.00684899377592,54.00925846556311,46.0,42.0,44.0,15.0,30.0,9.0,6.0,12.0,14.0,13.5,44.0,42.0,43.04648650006177,301.0016611249845,297.0,288.0,271.0018450121696
161,4,161,0,5.366666666666651,14.0,114.0175425099138,12.0,19.0,30.01666203960727,32.01562118716424,28.0178514522438,73.00684899377592,54.00925846556311,47.0,41.0,43.0,14.0,31.0,9.0,3.0,13.0,14.035668847618199,14.0,43.0,41.0,40.0,287.0435507026765,284.0281676172277,276.02898398537786,258.0310058888272
162,4,162,0,5.399999999999984,13.0,114.0,10.0,19.0,29.0,32.0,31.016124838541646,73.00684899377592,54.00925846556311,47.5,41.0,41.0,10.0,32.0,11.0,2.0,13.038404810405298,14.035668847618199,13.5,40.0,38.0,38.01315561749642,277.02887936097926,276.0163038662753,269.0018587296378,253.0
163,4,163,0,5.433333333333318,13.0,114.00438588054409,10.0,19.0,29.0,32.0,31.0,73.0,54.0,47.5,41.0,42.0,10.5,31.5,10.5,2.5,13.038404810405298,14.035668847618199,13.5,40.0,38.0,38.01315561749642,278.01618657912707,278.0071941515183,270.0,254.0019684963091
164,4,164,0,5.466666666666651,12.0,113.00442469213318,10.0,19.0,29.0,32.0,31.0,72.0,53.0,47.0,41.0,42.0,10.5,30.5,9.5,2.5,13.038404810405298,14.035668847618199,13.5,40.0,38.0,38.01315561749642,279.00716836669267,279.0,271.0,254.0019684963091
165,4,165,0,5.499999999999984,12.0,112.0044641967453,11.0,19.0,29.0,32.0,30.0,72.0,53.0,47.0,41.0,42.0,11.5,30.5,9.5,2.5,13.0,14.035668847618199,13.5,40.0,39.0,38.01315561749642,281.0,280.0017857085915,272.0073528417936,255.00784301664135
166,4,166,0,5.533333333333317,12.0,112.0044641967453,10.0,19.0,29.017236257093817,32.0,30.01666203960727,71.00704190430693,52.009614495783374,46.0,41.0,42.0,11.5,29.5,8.5,2.5,13.038404810405298,14.035668847618199,13.5,40.0,39.0,38.01315561749642,282.00177304407146,281.0160137785746,273.00732590903124,255.01764644824092
167,4,167,0,5.56666666666665,11.0,111.00450441310929,11.0,19.0,29.017236257093817,32.0,29.017236257093817,70.00714249274856,51.0098029794274,45.5,41.0,42.0,12.5,28.5,7.5,2.5,13.0,14.035668847618199,13.5,40.0,40.0,38.01315561749642,284.0070421662111,282.02836736753983,274.0164228654918,256.0175775215444
168,4,168,0,5.599999999999984,11.0,111.00450441310929,11.0,19.026297590440446,28.0178514522438,31.0,29.017236257093817,70.02856560004639,51.0098029794274,45.5,41.0,42.0,12.5,28.5,7.5,2.5,13.0,14.035668847618199,13.5,40.0,40.0,37.013511046643494,285.02806879323305,283.0635970943632,275.02908937056094,257.0311265197272
169,4,169,0,5.633333333333317,8.0,109.07336980216573,11.0,18.027756377319946,28.0178514522438,31.064449134018133,29.0,66.007575322837,48.0,44.0,40.0,44.0,13.0,24.0,3.0,3.0,12.0,12.0,12.0,42.0,39.0,38.01315561749642,286.0069929215018,283.0017667789373,275.0018181758077,258.00775182152955
170,4,170,0,5.66666666666665,6.082762530298219,107.16809226630845,13.0,19.0,28.071337695236398,30.066592756745816,28.0,66.007575322837,47.01063709417264,44.0,42.0,48.0,17.0,21.0,1.0,5.0,11.0,12.041594578792296,11.5,47.0,39.0,42.190046219457976,289.0276803352925,286.01573383294846,279.0161285660741,264.0170449043016
171,4,171,0,5.699999999999983,9.0,105.11898020814318,13.038404810405298,18.027756377319946,28.071337695236398,30.01666203960727,28.0,68.0294054067798,50.00999900019995,45.5,46.0,51.0,20.5,19.5,0.5,7.5,11.0,11.045361017187261,11.0,51.0,40.0,44.181444068749045,293.24563082849164,289.0847626562147,282.0159569953445,267.00187265260894
172,4,172,0,5.7333333333333165,9.0,105.23307464861035,14.035668847618199,18.027756377319946,27.073972741361768,29.017236257093817,33.015148038438355,74.06078584514209,56.0357029044876,51.5,54.0,61.0,24.5,16.5,3.5,10.5,11.0,12.165525060596439,11.5,48.0,38.0,49.25444142409901,290.2481696755382,288.1405906844782,282.04432275796654,270.0296280040396
173,4,173,0,5.76666666666665,14.0,105.17128885774862,13.038404810405298,17.029386365926403,27.073972741361768,28.071337695236398,34.0147027033899,78.05767098754612,61.032778078668514,54.0,59.0,65.0,28.0,16.0,3.0,14.0,11.0,12.165525060596439,11.5,45.0,33.0,49.16299421312742,291.171770609721,288.0850568842473,281.0284683088174,270.0166661522951
174,4,174,0,5.799999999999983,18.027756377319946,102.17631819555841,12.0,16.0312195418814,26.076809620810597,29.068883707497267,38.0,84.02380615040002,68.00735254367721,59.0,64.0,70.0,29.0,17.0,1.0,17.0,11.0,12.165525060596439,11.5,43.0,31.0,51.15662224971465,289.1729586251107,285.08595195133694,279.0447992706547,268.02984908401527
175,4,175,0,5.833333333333316,19.026297590440446,101.24228365658294,11.045361017187261,15.033296378372908,26.076809620810597,28.0178514522438,39.01281840626232,84.02380615040002,69.00724599634447,59.5,66.0,73.0,30.5,14.5,1.5,18.5,12.0,12.165525060596439,12.0,40.0,29.0,56.08029957123981,291.171770609721,288.0850568842473,280.0285699709942,268.01679051880313
176,4,176,0,5.866666666666649,21.02379604162864,100.17983829094555,11.045361017187261,14.035668847618199,27.018512172212592,28.071337695236398,41.012193308819754,87.02298546935747,73.00684899377592,62.5,70.0,76.0,32.0,14.0,2.0,21.0,11.045361017187261,12.36931687685298,12.0,39.0,26.0,55.14526271584895,290.2481696755382,284.14256984830695,276.08875384557047,264.06817301598466
177,4,177,0,5.899999999999983,23.021728866442675,100.17983829094555,12.041594578792296,14.035668847618199,27.018512172212592,29.017236257093817,41.048751503547585,90.00555538409837,76.0,64.5,72.0,78.0,34.0,15.0,1.0,22.0,12.041594578792296,12.165525060596439,12.0,37.0,24.0,56.142675390472796,290.38767191463205,285.25251970841555,276.1159176867571,264.12118430750684
178,4,178,0,5.933333333333316,24.0,100.17983829094555,12.041594578792296,15.033296378372908,26.076809620810597,29.068883707497267,40.0,91.02197536858887,76.00657866263946,64.0,71.0,77.0,34.0,17.0,0.0,21.0,13.0,12.165525060596439,12.0,36.0,23.0,56.08029957123981,287.4456470360962,283.3972476930572,276.3548443577568,265.31867631209076
179,4,179,0,5.966666666666649,23.021728866442675,99.32270636667126,11.045361017187261,16.0312195418814,26.076809620810597,29.068883707497267,42.0,92.04890004774636,76.02631123499285,64.5,71.0,79.0,33.0,17.0,1.0,21.0,12.041594578792296,12.36931687685298,12.0,36.0,23.0,56.0357029044876,286.44720281406137,283.346078144731,276.3059898011623,264.2290672882149
180,4,180,0,5.999999999999982,25.0,102.17631819555841,11.045361017187261,15.033296378372908,27.073972741361768,29.068883707497267,41.012193308819754,92.04890004774636,77.02596964660685,64.5,72.0,78.0,34.0,17.0,0.0,22.0,13.0,11.180339887498949,11.5,34.0,21.0,55.036351623268054,288.3400769924292,283.2984292226132,275.26169366622736,261.23169792351007
181,4,181,0,6.033333333333316,23.021728866442675,100.24470060806208,11.045361017187261,15.132745950421556,26.076809620810597,29.068883707497267,42.0,91.08786966440702,76.02631123499285,64.5,71.0,78.0,32.5,16.5,0.5,20.5,12.041594578792296,11.180339887498949,11.0,35.0,22.0,56.08029957123981,288.5012998237616,283.3972476930572,274.3082208028042,263.2736219221364
182,4,182,0,6.066666666666649,23.021728866442675,99.24716620639605,12.041594578792296,15.033296378372908,26.019223662515376,28.071337695236398,40.0,90.0499861188218,75.02666192761077,63.5,70.0,77.0,33.5,16.5,0.5,21.5,11.0,10.44030650891055,10.0,36.0,21.0,56.0357029044876,287.5030434621519,282.4535360019414,273.41177736154674,262.32232081925474
183,4,183,0,6.099999999999982,24.0,99.32270636667126,11.045361017187261,14.142135623730951,26.019223662515376,28.0178514522438,41.0,90.0499861188218,76.00657866263946,64.0,70.0,78.0,33.0,16.0,0.0,22.0,12.041594578792296,12.36931687685298,11.5,37.0,22.0,58.077534382926416,286.9233347080715,282.7083302628347,274.5906043549196,261.5530538915575
184,4,184,0,6.133333333333315,23.021728866442675,100.31948963187563,12.041594578792296,15.033296378372908,26.076809620810597,28.071337695236398,41.0,91.0494371207203,76.02631123499285,64.5,71.0,79.0,34.0,16.0,1.0,21.0,12.041594578792296,11.40175425099138,11.0,37.0,22.0,58.077534382926416,286.8449058289165,282.78083386255156,273.59276306218334,261.6199533674754
185,4,185,0,6.166666666666648,22.090722034374522,100.40418317978589,11.045361017187261,14.035668847618199,26.076809620810597,28.071337695236398,42.0,89.08984229416954,75.05997601918082,64.0,70.0,79.0,32.5,14.5,1.5,20.5,11.0,11.40175425099138,11.0,37.0,22.0,55.08175741568164,288.00173610587836,282.85685425670704,273.73162038756135,261.6199533674754
186,4,186,0,6.1999999999999815,22.090722034374522,99.50376877284599,11.045361017187261,14.142135623730951,25.079872407968907,27.073972741361768,42.0,89.1403387922662,75.05997601918082,64.0,70.0,80.0,33.0,14.0,2.0,21.0,11.045361017187261,10.44030650891055,10.5,37.0,21.0,55.08175741568164,285.63263118908526,282.57388414359883,275.40878707840824,263.2736219221364
187,4,187,0,6.233333333333315,22.02271554554524,100.4987562112089,12.041594578792296,14.142135623730951,26.1725046566048,27.073972741361768,41.012193308819754,89.1403387922662,75.05997601918082,64.0,69.0,79.0,33.0,15.0,1.0,20.0,11.0,11.180339887498949,11.0,38.0,21.0,58.137767414994535,287.9201278132531,282.78083386255156,274.6579691179559,263.54885695066105
188,4,188,0,6.266666666666648,21.0,100.4987562112089,11.180339887498949,13.152946437965905,26.076809620810597,27.16615541441225,43.0,88.09086218218096,75.02666192761077,64.5,69.0,79.0,31.0,14.0,2.0,19.0,11.0,10.44030650891055,10.0,39.0,21.0,57.21887800367987,287.0052264332481,281.8598942737331,274.8817927764587,264.7564918939666
189,4,189,0,6.299999999999981,22.02271554554524,101.59724405711013,10.198039027185569,14.142135623730951,27.073972741361768,29.274562336608895,42.01190307520001,88.20430828479978,74.10802925459562,63.0,67.0,78.0,30.5,15.5,1.5,19.5,11.0,11.704699910719626,11.0,38.0,21.0,56.142675390472796,288.8390555309306,283.7780823108085,274.5906043549196,263.48624252510797
190,4,190,0,6.333333333333314,20.024984394500787,101.59724405711013,11.045361017187261,15.132745950421556,27.16615541441225,29.154759474226502,41.012193308819754,87.14355971613737,72.06247289678588,62.0,65.0,76.0,29.5,16.5,1.5,17.5,11.0,11.40175425099138,11.0,38.0,20.0,57.14017850864661,285.0982286861846,279.8660393831306,272.5949375905576,261.43067914841214
191,4,191,0,6.366666666666648,14.035668847618199,99.50376877284599,13.038404810405298,17.11724276862369,28.071337695236398,30.14962686336267,39.05124837953327,83.21658488546619,66.12110101926616,59.0,63.0,73.0,29.0,15.0,5.0,16.0,10.0,10.770329614269007,9.5,39.0,20.0,55.226805085936306,285.18765751694093,280.0303554973996,272.8094573140748,261.6199533674754
192,4,192,0,6.399999999999981,12.0,95.03683496413377,15.132745950421556,19.235384061671343,27.16615541441225,30.14962686336267,37.12142238654117,83.38465086573187,64.19501538281614,58.0,63.0,77.0,33.0,13.0,9.0,17.0,10.0,10.770329614269007,10.0,40.0,21.0,56.142675390472796,289.3579098625092,283.1960451701259,274.05291459862275,262.8402556687236
193,4,193,0,6.433333333333314,10.04987562112089,90.60905032059435,17.11724276862369,21.095023109728988,26.30589287593181,28.442925306655784,37.12142238654117,85.37564055396598,64.28063471995279,59.0,66.0,83.0,37.5,10.5,13.5,19.5,11.0,10.44030650891055,10.0,41.0,20.0,53.23532661682466,290.55292116927683,285.3769437077915,276.04528613979267,261.92556194461054
194,4,194,0,6.466666666666647,9.055385138137417,91.92388155425118,14.035668847618199,18.110770276274835,26.1725046566048,28.284271247461902,39.11521443121589,80.30566605165541,62.20128616033595,57.5,63.0,76.0,30.5,10.5,10.5,15.5,10.0,9.848857801796104,9.0,43.0,21.0,52.3450093132096,287.56912212544654,282.39157211220027,275.230812228573,264.003787851614
195,4,195,0,6.4999999999999805,7.0,94.89467845985885,13.152946437965905,19.1049731745428,26.1725046566048,28.284271247461902,38.05259518088089,77.23341245859851,58.137767414994535,54.5,61.0,74.0,29.5,9.5,12.5,15.5,11.0,10.44030650891055,10.0,42.0,22.0,53.33854141237835,292.2498930709813,287.17938644686876,277.95323347642494,265.83077323741134
196,4,196,0,6.533333333333314,8.06225774829855,97.73944955850733,11.045361017187261,15.297058540778355,27.16615541441225,29.274562336608895,39.01281840626232,73.24616030891995,58.077534382926416,54.0,62.0,74.0,29.0,5.0,13.0,17.0,10.04987562112089,9.486832980505138,9.5,43.0,23.0,54.45181356024793,289.836160614924,283.70583356709466,276.52305509667724,265.3695536417092
197,4,197,0,6.566666666666647,7.0710678118654755,103.4842983258813,11.045361017187261,16.1245154965971,28.160255680657446,29.154759474226502,38.0,72.11102550927978,56.0357029044876,52.5,60.0,70.0,27.0,7.0,11.0,15.0,11.0,11.40175425099138,11.0,42.0,23.0,53.33854141237835,287.8419705324434,284.70335438838794,276.52305509667724,265.3695536417092
198,4,198,0,6.59999999999998,15.033296378372908,103.31021246711285,10.04987562112089,13.152946437965905,28.160255680657446,30.14962686336267,38.0,76.10519036176179,63.0317380372777,55.5,62.0,70.0,28.0,10.0,6.0,17.0,11.045361017187261,10.44030650891055,10.5,41.0,23.0,55.226805085936306,291.9075196016711,284.70335438838794,276.52305509667724,263.32109676210905
199,4,199,0,6.633333333333313,20.024984394500787,99.32270636667126,10.04987562112089,15.132745950421556,28.071337695236398,30.14962686336267,39.05124837953327,84.2140130857092,69.1158447825099,59.0,65.0,73.0,30.0,15.0,2.0,19.0,12.0,11.40175425099138,11.0,42.0,24.0,56.22277118748239,289.44256770558127,284.3448610402516,276.181100005051,264.12118430750684
200,4,200,0,6.666666666666647,29.017236257093817,97.51410154434076,10.04987562112089,18.110770276274835,29.068883707497267,32.14031735997639,39.05124837953327,96.18731725128839,78.10249675906654,63.5,68.0,78.0,34.0,23.0,2.0,23.0,11.045361017187261,11.40175425099138,10.5,42.0,25.0,56.142675390472796,293.43653487594213,286.44720281406137,276.3548443577568,261.23169792351007
201,4,201,0,6.69999999999998,24.020824298928627,98.6154146165801,11.045361017187261,17.11724276862369,28.160255680657446,31.144823004794873,39.05124837953327,91.19758768739445,74.10802925459562,62.0,65.0,76.0,31.5,20.5,0.5,19.5,12.041594578792296,11.40175425099138,11.0,41.0,25.0,54.147945482723536,289.62389404191083,284.50834785643815,275.35613303502066,261.19150062741323
202,4,202,0,6.733333333333313,9.0,108.46197490364999,10.198039027185569,15.132745950421556,28.160255680657446,29.154759474226502,42.01190307520001,76.16429609731846,61.07372593840988,56.5,62.0,72.0,25.0,9.0,8.0,14.0,12.041594578792296,11.180339887498949,11.0,40.0,25.0,53.150729063673246,292.43802762294786,287.4456470360962,279.35103364763125,266.27053911388697
203,4,203,0,6.766666666666646,2.23606797749979,113.21660655575224,10.04987562112089,15.132745950421556,29.068883707497267,30.066592756745816,40.0,67.11929677819934,52.03844732503075,51.0,57.0,64.0,20.5,6.5,10.5,10.5,11.0,10.44030650891055,10.0,40.0,25.0,55.226805085936306,292.4944443916841,286.50479926172267,279.45840477609545,269.41789101691074
204,4,204,0,6.799999999999979,2.0,113.1591799192624,10.04987562112089,14.035668847618199,29.017236257093817,30.066592756745816,41.012193308819754,67.06713054842886,53.03772242470448,52.0,58.0,64.0,20.0,6.0,10.0,11.0,11.0,11.180339887498949,11.0,41.0,26.0,53.150729063673246,292.7541630788536,287.62823227214676,281.51376520518494,270.4163456597992
205,4,205,0,6.833333333333313,12.041594578792296,113.1591799192624,10.04987562112089,15.0,29.068883707497267,31.064449134018133,40.01249804748511,77.05841939723393,62.07253821135398,56.0,61.0,67.0,24.0,13.0,4.0,14.0,11.045361017187261,11.40175425099138,11.0,41.0,26.0,54.147945482723536,292.55426846997125,288.44410203711914,281.2561110447202,270.14995835646545
206,4,206,0,6.866666666666646,20.0,109.37092849564732,9.055385138137417,14.142135623730951,29.068883707497267,32.14031735997639,39.01281840626232,82.09750300709517,68.0294054067798,58.0,63.0,72.0,28.5,14.5,2.5,18.5,11.0,11.180339887498949,10.5,41.0,27.0,53.08483775994799,292.3850201361212,286.3930865087354,279.2579452764057,266.1879035568671
207,4,207,0,6.899999999999979,19.0,108.2266141020775,10.04987562112089,15.132745950421556,30.066592756745816,32.14031735997639,38.0,82.05485969764375,67.00746227100382,57.5,63.0,70.0,28.5,15.5,1.5,17.5,10.0,11.180339887498949,11.0,41.0,27.0,55.226805085936306,292.55426846997125,287.4456470360962,280.349781523011,269.2675249635574
208,4,208,0,6.933333333333312,11.0,104.30723848324239,11.045361017187261,18.027756377319946,28.071337695236398,30.14962686336267,39.01281840626232,79.05694150420949,61.032778078668514,55.5,61.0,69.0,26.0,14.0,5.0,15.0,11.045361017187261,10.44030650891055,10.0,40.0,26.0,54.147945482723536,292.3850201361212,287.3412605248331,280.2159881234474,269.15051551130273
209,4,209,0,6.9666666666666455,8.0,102.3132444994293,12.041594578792296,18.027756377319946,29.068883707497267,32.14031735997639,36.0,74.02702209328699,56.00892785976178,52.0,59.0,67.0,27.0,11.0,9.0,15.0,10.04987562112089,10.44030650891055,10.0,40.0,27.0,53.08483775994799,296.33089612796033,288.39036044916617,280.3016232560918,268.26852219371546
210,4,210,0,6.999999999999979,8.0,102.39628899525607,13.038404810405298,18.110770276274835,29.068883707497267,32.2490309931942,36.0,75.05997601918082,57.0087712549569,53.0,59.0,68.0,27.5,11.5,9.5,14.5,11.045361017187261,11.180339887498949,11.0,40.0,26.0,52.15361924162119,293.43653487594213,286.44720281406137,279.4029348450012,265.3695536417092
211,4,211,0,7.033333333333312,10.0,103.39245620450265,11.045361017187261,18.027756377319946,28.160255680657446,30.265491900843113,37.013511046643494,76.05918747922567,58.034472514187634,53.0,59.0,68.0,26.5,12.5,8.5,14.5,11.045361017187261,10.198039027185569,10.0,40.0,27.0,54.037024344425184,294.38240436547835,287.39171873942365,279.2579452764057,266.1522120892479
212,4,212,0,7.066666666666645,13.038404810405298,102.48902380255166,10.04987562112089,17.029386365926403,28.160255680657446,31.25699921617557,38.01315561749642,78.10249675906654,61.07372593840988,54.5,61.0,71.0,28.0,12.0,8.0,17.0,11.045361017187261,11.40175425099138,11.0,39.0,25.0,51.088159097779204,296.4877737782791,289.44256770558127,278.30379084734005,264.27258654654287
213,4,213,0,7.099999999999978,19.0,104.38869670610895,11.045361017187261,16.0312195418814,30.066592756745816,32.14031735997639,36.013886210738214,82.05485969764375,66.03029607687671,56.5,61.0,70.0,29.5,16.5,2.5,18.5,10.0,10.44030650891055,10.0,41.0,25.0,56.08029957123981,291.556169545424,288.44410203711914,281.40007107319644,269.31394319641157
214,4,214,0,7.133333333333312,28.0178514522438,98.50888284819801,9.0,17.029386365926403,28.160255680657446,31.144823004794873,38.01315561749642,92.04890004774636,75.02666192761077,61.0,65.0,75.0,32.0,22.0,2.0,22.0,11.045361017187261,11.40175425099138,10.5,40.0,26.0,54.147945482723536,292.33542378576016,286.29530209208815,278.25887227544064,264.18932605235966
215,4,215,0,7.166666666666645,27.018512172212592,99.40824915468535,9.0,19.026297590440446,28.160255680657446,32.14031735997639,39.01281840626232,94.04786015641186,75.02666192761077,61.5,66.0,75.0,31.5,23.5,1.5,21.5,11.0,11.40175425099138,11.0,40.0,26.0,56.08029957123981,292.2892403082946,287.2507615307573,279.17915394957413,265.1207272168662
216,4,216,0,7.199999999999978,26.019223662515376,100.31948963187563,9.055385138137417,17.029386365926403,28.071337695236398,31.144823004794873,37.013511046643494,89.08984229416954,72.06247289678588,59.0,63.0,71.0,30.0,22.0,3.0,21.0,12.041594578792296,10.44030650891055,10.5,40.0,27.0,55.08175741568164,292.1711826994579,288.17355881482257,280.11426240018557,268.06715576511795
217,4,217,0,7.233333333333311,20.0,106.23088063270491,8.06225774829855,15.033296378372908,31.144823004794873,33.13608305156178,38.0,81.02468759581859,66.007575322837,56.0,61.0,68.0,26.5,16.5,1.5,17.5,11.0,11.40175425099138,10.5,39.0,26.0,55.08175741568164,293.20641193534635,288.2498915871435,279.17915394957413,266.1879035568671
218,4,218,0,7.266666666666644,14.0,109.16501271011697,9.055385138137417,16.0312195418814,31.064449134018133,34.132096331752024,38.01315561749642,77.00649323271382,61.0,54.0,61.0,67.0,26.0,13.0,6.0,17.0,10.0,9.486832980505138,9.5,39.0,25.0,57.14017850864661,293.28825411188905,288.2498915871435,279.17915394957413,267.1198233003309
219,4,219,0,7.299999999999978,15.0,107.11675872616759,9.055385138137417,17.029386365926403,31.016124838541646,33.06055050963308,36.013886210738214,77.00649323271382,60.0,52.5,61.0,66.0,27.5,13.5,6.5,18.5,12.0,11.180339887498949,11.0,39.0,27.0,55.08175741568164,293.20641193534635,287.2107240337658,279.1146717748818,268.04663773306316
220,4,220,0,7.333333333333311,17.0,108.04165863221463,9.0,16.0,31.0,33.015148038438355,35.0,77.0,61.0,52.5,61.0,64.0,27.5,14.5,3.5,19.5,11.045361017187261,10.198039027185569,10.0,38.0,27.0,58.034472514187634,291.171770609721,286.14157335137446,279.0877998050076,269.04646438858845
221,4,221,0,7.366666666666644,23.0,108.07404868885037,8.0,15.033296378372908,30.01666203960727,33.015148038438355,35.014282800023196,81.0,66.007575322837,54.5,60.0,64.0,27.0,19.0,2.0,19.0,10.04987562112089,9.219544457292887,9.0,39.0,28.0,57.07889277132134,290.33773437154184,285.34365246137855,278.21754078418564,268.1193763979023
222,4,222,0,7.399999999999977,22.0,113.07077429645558,8.0,13.0,30.01666203960727,31.016124838541646,36.0,79.0,66.0,55.0,61.0,65.0,27.0,16.0,1.0,20.0,10.0,10.198039027185569,10.0,37.0,28.0,56.08029957123981,289.2490276561012,284.3448610402516,280.4567702873297,270.36271932350434
223,4,223,0,7.4333333333333105,24.0,119.03780911962384,7.0,12.041594578792296,30.01666203960727,33.015148038438355,36.013886210738214,79.0,67.00746227100382,55.0,59.0,62.0,24.5,18.5,5.5,18.5,9.0,8.246211251235321,8.5,37.0,29.0,55.036351623268054,286.14157335137446,283.21370023358685,279.3027031734566,274.3082208028042
224,4,224,0,7.466666666666644,22.02271554554524,122.01639234135715,8.0,12.0,33.015148038438355,35.0,34.058772731852805,76.05918747922567,64.07027391856539,53.0,58.0,60.0,25.0,17.0,3.0,18.0,9.055385138137417,9.219544457292887,8.5,33.0,29.0,55.00909015790027,291.10994486619654,287.2107240337658,280.349781523011,273.3093485411723
225,4,225,0,7.499999999999977,15.033296378372908,124.00403219250575,8.0,13.038404810405298,33.0,34.0,36.124783736376884,72.06247289678588,59.135437767890075,51.5,59.0,60.0,23.5,12.5,0.5,15.5,9.055385138137417,8.246211251235321,8.0,32.0,27.0,55.036351623268054,287.1114766079545,285.17538463198395,280.3016232560918,275.35613303502066
226,4,226,0,7.53333333333331,12.041594578792296,121.0,9.0,14.035668847618199,30.066592756745816,32.01562118716424,34.0147027033899,69.06518659932803,55.036351623268054,49.0,60.0,60.0,26.0,9.0,5.0,18.0,10.04987562112089,9.219544457292887,9.0,31.0,29.0,52.0,287.14108030722457,285.21220170252184,279.3027031734566,271.31162894354526
227,4,227,0,7.566666666666643,24.0,112.0,9.0,12.0,28.0,32.0,35.014282800023196,80.00624975587844,68.00735254367721,56.0,64.0,64.0,29.0,16.0,3.0,20.0,9.055385138137417,8.06225774829855,8.5,31.0,28.0,55.0,288.1110896859057,285.17538463198395,280.25702488965374,270.31278179176064
228,4,228,0,7.599999999999976,28.0,108.01851693112621,10.0,14.0,30.0,33.0,35.05709628591621,87.02298546935747,73.02739212103907,59.0,68.0,70.0,34.0,18.0,3.0,25.0,9.055385138137417,10.198039027185569,9.5,32.0,28.0,58.0,287.01567901423084,284.04401067440233,277.0649743291274,267.0674072214728
229,4,229,0,7.63333333333331,24.0,107.0420478129973,11.0,15.0,31.016124838541646,33.015148038438355,34.0147027033899,84.00595217006948,69.00724599634447,57.0,65.0,68.0,32.5,17.5,0.5,21.5,9.219544457292887,8.246211251235321,8.0,33.0,27.0,57.0087712549569,289.0155705148081,286.02797066021355,279.0161285660741,269.02973813316623
230,4,230,0,7.666666666666643,22.02271554554524,105.04284840006957,12.041594578792296,17.0,30.01666203960727,33.06055050963308,32.0624390837628,83.02409288875127,66.03029607687671,55.0,63.0,66.0,32.5,18.5,0.5,20.5,8.246211251235321,8.54400374531753,8.0,33.0,27.0,57.0087712549569,288.0277764383151,285.02806879323305,279.0286723618202,269.0167281044062
231,4,231,0,7.699999999999976,19.0,102.04410811016969,12.0,18.027756377319946,31.016124838541646,33.06055050963308,31.016124838541646,80.0,62.00806399170998,52.5,62.0,65.0,32.5,16.5,3.5,20.5,8.06225774829855,8.246211251235321,8.0,37.0,28.0,55.00909015790027,288.0433995077825,284.0633732109791,278.0287754891569,268.06715576511795
232,4,232,0,7.733333333333309,16.0,99.24716620639605,14.035668847618199,18.027756377319946,31.064449134018133,33.24154027718932,31.016124838541646,79.00632886041473,61.0,53.0,65.0,72.0,37.5,10.5,10.5,23.5,10.04987562112089,9.486832980505138,9.0,35.0,26.0,56.0357029044876,291.247317584214,285.25251970841555,276.181100005051,264.15336454416024
233,4,233,0,7.766666666666643,14.0,98.32598842625484,13.038404810405298,20.024984394500787,30.066592756745816,32.14031735997639,31.0,78.02563681252464,58.008620049092706,51.0,59.0,67.0,32.0,15.0,7.0,18.0,10.04987562112089,10.198039027185569,10.0,42.0,30.0,52.03844732503075,290.2481696755382,286.174771774173,280.1446055165082,268.09140232390894
234,4,234,0,7.799999999999976,10.0,96.25487000666512,15.033296378372908,20.024984394500787,29.068883707497267,31.064449134018133,29.0,74.02702209328699,54.00925846556311,49.0,58.0,65.0,32.5,12.5,10.5,17.5,10.04987562112089,10.198039027185569,9.5,42.0,29.0,53.08483775994799,287.2107240337658,285.21220170252184,281.1778796420515,270.1851217221259
235,4,235,0,7.833333333333309,6.082762530298219,97.41663102366043,17.029386365926403,22.02271554554524,29.068883707497267,32.2490309931942,27.0,72.06247289678588,50.039984012787215,47.0,60.0,69.0,37.5,7.5,17.5,19.5,9.055385138137417,10.198039027185569,9.5,38.0,25.0,54.08326913195984,290.2912330746487,285.25251970841555,277.18044664081197,266.1522120892479
236,4,236,0,7.866666666666642,7.0710678118654755,96.51942809610924,16.0312195418814,22.02271554554524,29.154759474226502,32.2490309931942,28.0178514522438,73.10950690573696,51.088159097779204,47.5,61.0,71.0,38.0,7.0,17.0,20.0,10.04987562112089,10.198039027185569,9.5,38.0,25.0,53.03772242470448,290.2481696755382,285.21220170252184,277.1154993860863,266.092089322475
237,4,237,0,7.899999999999975,6.082762530298219,96.33275663033837,18.0,24.0,28.071337695236398,31.064449134018133,29.017236257093817,77.02596964660685,53.03772242470448,50.0,65.0,73.0,40.0,8.0,19.0,21.0,11.045361017187261,11.40175425099138,11.0,36.0,26.0,51.03920062069938,291.29023327259017,284.29737951659,275.1817581163403,261.15512631384433
238,4,238,0,7.933333333333309,16.0,95.25754563287887,13.038404810405298,17.029386365926403,27.018512172212592,29.068883707497267,38.01315561749642,84.00595217006948,67.0,59.0,66.0,73.0,31.5,14.5,5.5,18.5,10.04987562112089,9.486832980505138,9.5,38.0,27.0,53.08483775994799,286.174771774173,282.177249260106,277.18044664081197,266.1879035568671
239,4,239,0,7.966666666666642,26.0,104.12012293500234,11.045361017187261,14.035668847618199,28.0178514522438,31.064449134018133,39.05124837953327,90.0,76.00657866263946,63.0,69.0,74.0,32.5,18.5,1.5,21.5,10.04987562112089,10.198039027185569,10.5,35.0,25.0,54.08326913195984,287.14108030722457,281.215220071745,273.22152184628504,262.23081436017395
240,4,240,0,7.999999999999975,25.0,109.07336980216573,12.0,16.0312195418814,30.01666203960727,32.01562118716424,38.01315561749642,91.0,75.0066663703967,62.5,69.0,73.0,33.0,20.0,3.0,21.0,10.04987562112089,10.198039027185569,9.5,35.0,27.0,58.034472514187634,285.0631508981826,282.0638225650358,276.06520968785617,268.06715576511795
241,4,241,0,8.033333333333308,24.0,110.01818031580054,12.0,15.0,29.017236257093817,32.01562118716424,35.05709628591621,86.02325267042627,71.02816342831905,59.0,68.0,70.0,34.0,17.0,1.0,23.0,10.04987562112089,9.055385138137417,9.5,34.0,28.0,57.0087712549569,289.0,283.0,275.0018181758077,267.00187265260894
242,4,242,0,8.066666666666642,21.0,109.00458705944443,11.0,14.0,29.0,32.0,36.124783736376884,82.05485969764375,68.06614430096654,57.5,67.0,68.0,31.5,14.5,0.5,21.5,10.04987562112089,9.055385138137417,9.5,33.0,29.0,56.0357029044876,285.0157890363269,282.0159569953445,276.02898398537786,268.02984908401527
243,4,243,0,8.099999999999975,16.0,109.01834707974616,10.04987562112089,15.0,28.0,32.0,36.013886210738214,77.02596964660685,62.03224967708329,54.0,65.0,67.0,30.0,11.0,5.0,20.0,11.045361017187261,10.04987562112089,10.0,32.0,28.0,57.0,284.01584462842914,281.0160137785746,276.00724628168734,268.01679051880313
244,4,244,0,8.133333333333308,12.0,108.00462953040486,10.0,15.0,30.0,32.0,35.12833614050059,72.06247289678588,57.07889277132134,51.0,63.0,64.0,28.5,8.5,7.5,18.5,11.045361017187261,10.04987562112089,10.0,31.0,27.0,57.0087712549569,285.0438562747845,281.04448046528154,274.11676344215067,266.1879035568671
245,4,245,0,8.166666666666641,11.045361017187261,108.0,11.0,18.0,30.0,32.01562118716424,33.06055050963308,73.06161783043132,55.08175741568164,49.5,59.0,59.0,26.0,14.0,5.0,16.0,9.055385138137417,9.219544457292887,9.0,32.0,29.0,55.00909015790027,284.01584462842914,282.0070921094007,278.0071941515183,269.0167281044062
246,4,246,0,8.199999999999974,10.0,106.00471687618433,12.0,18.0,30.0,32.01562118716424,32.0624390837628,72.02777242147643,54.037024344425184,49.0,59.0,60.0,27.5,12.5,7.5,16.5,11.045361017187261,10.04987562112089,10.0,32.0,29.0,56.0,285.02806879323305,283.01590061337544,279.0286723618202,271.0461215365385
247,4,247,0,8.233333333333308,11.0,105.00476179678711,11.0,18.0,29.0,32.0,33.06055050963308,73.02739212103907,55.036351623268054,49.5,61.0,60.0,27.5,12.5,6.5,16.5,11.045361017187261,11.180339887498949,10.5,33.0,30.0,50.00999900019995,288.0277764383151,283.0441661649291,279.0447992706547,271.0664125265246
248,4,248,0,8.26666666666664,17.029386365926403,107.00467279516349,12.0,17.0,31.0,33.015148038438355,33.06055050963308,79.05694150420949,62.07253821135398,53.5,64.0,63.0,30.5,15.5,3.5,19.5,10.04987562112089,9.055385138137417,9.5,32.0,28.0,56.0,287.0435507026765,283.0441661649291,277.04512267859906,267.0674072214728
249,4,249,0,8.299999999999974,21.0,103.0,10.0,16.0,29.017236257093817,33.0,35.12833614050059,82.05485969764375,66.06814663663572,55.5,66.0,66.0,31.0,16.0,2.0,21.0,10.04987562112089,9.219544457292887,9.5,33.0,29.0,53.0,285.02806879323305,282.0159569953445,277.01624501101014,269.02973813316623
250,4,250,0,8.333333333333307,23.0,100.0199980003999,10.0,15.0,29.017236257093817,32.01562118716424,35.05709628591621,83.02409288875127,68.0294054067798,56.5,65.0,67.0,31.0,17.0,0.0,21.0,11.180339887498949,9.486832980505138,9.5,34.0,30.0,54.00925846556311,288.01562457616774,282.0159569953445,276.0018115882575,265.0
251,4,251,0,8.36666666666664,19.0,106.0,10.0,16.0312195418814,30.0,32.01562118716424,37.05401462729781,82.05485969764375,66.03029607687671,56.5,66.0,66.0,29.0,16.0,1.0,20.0,12.041594578792296,11.045361017187261,11.5,34.0,29.0,56.00892785976178,287.0435507026765,284.0281676172277,278.044960393099,267.02996086581743
252,4,252,0,8.399999999999974,17.0,107.01868995647442,10.0,15.0,29.0,32.0,37.12142238654117,79.05694150420949,64.07027391856539,55.5,64.0,66.0,28.0,14.0,2.0,19.0,10.198039027185569,10.198039027185569,10.0,34.0,29.0,54.00925846556311,286.0629301395062,283.0635970943632,278.1150840928985,270.14995835646545
253,4,253,0,8.433333333333307,9.055385138137417,109.00458705944443,10.0,15.0,29.0,30.0,37.12142238654117,71.11258679024411,56.142675390472796,51.5,63.0,64.0,26.5,7.5,8.5,17.5,11.045361017187261,10.04987562112089,10.0,33.0,30.0,55.00909015790027,288.0850568842473,286.08565151017274,280.08748633239577,272.1488563268271
254,4,254,0,8.46666666666664,6.082762530298219,110.01818031580054,9.0,15.033296378372908,29.017236257093817,31.0,38.118237105091836,68.18357573492314,53.150729063673246,50.0,62.0,60.0,23.0,7.0,9.0,15.0,11.180339887498949,10.198039027185569,10.0,32.0,30.0,57.0,288.1405906844782,286.14157335137446,280.11426240018557,270.1184925176357
255,4,255,0,8.499999999999973,6.082762530298219,109.01834707974616,9.0,16.0,29.0,30.01666203960727,36.124783736376884,67.11929677819934,51.15662224971465,48.0,61.0,59.0,24.0,7.0,9.0,15.0,10.198039027185569,10.198039027185569,10.0,31.0,31.0,56.0,290.2085457046363,287.14108030722457,281.1440911703463,271.14940531006147
256,4,256,0,8.533333333333307,11.045361017187261,111.07204868912791,10.0,16.0312195418814,31.016124838541646,32.01562118716424,35.12833614050059,72.17340230306452,56.142675390472796,50.5,63.0,59.0,26.0,11.0,5.0,17.0,11.045361017187261,10.04987562112089,10.5,34.0,33.0,53.03772242470448,288.1405906844782,287.1114766079545,282.11345235560816,273.0659261057666
257,4,257,0,8.56666666666664,9.055385138137417,111.07204868912791,11.0,16.0312195418814,30.066592756745816,32.0,33.13608305156178,69.18092222571191,53.150729063673246,48.5,64.0,60.0,29.0,7.0,9.0,19.0,11.180339887498949,11.045361017187261,11.0,30.0,31.0,59.033888572581766,290.13962156175774,287.0435507026765,280.04463929880893,271.01660465735307
258,4,258,0,8.599999999999973,20.024984394500787,111.07204868912791,9.055385138137417,14.0,31.064449134018133,33.015148038438355,35.05709628591621,78.10249675906654,64.1248781675256,54.0,67.0,63.0,30.0,13.0,1.0,22.0,10.04987562112089,10.04987562112089,10.0,30.0,31.0,57.0350769263968,285.112258592997,283.08655920053855,279.0877998050076,270.0296280040396
259,4,259,0,8.633333333333306,23.021728866442675,109.04127658827184,10.04987562112089,14.0,31.144823004794873,33.015148038438355,34.132096331752024,81.15417426109393,67.1863081289633,55.5,67.0,64.0,31.5,15.5,1.5,23.5,11.180339887498949,10.04987562112089,10.5,30.0,33.0,58.034472514187634,286.11186623417075,283.08655920053855,277.02887936097926,267.0074905316328
260,4,260,0,8.66666666666664,26.019223662515376,114.03946685248927,12.041594578792296,15.0,32.14031735997639,34.0147027033899,34.058772731852805,87.09190547921202,72.11102550927978,59.0,70.0,67.0,34.5,18.5,3.5,24.5,10.198039027185569,10.04987562112089,10.0,29.0,32.0,57.07889277132134,286.14157335137446,284.1126537132762,278.044960393099,270.0296280040396
261,4,261,0,8.699999999999973,30.01666203960727,115.03912377969506,13.0,17.029386365926403,33.06055050963308,35.014282800023196,34.23448553724738,94.19129471453293,77.1621668954417,62.0,75.0,72.0,39.5,20.5,3.5,27.5,11.40175425099138,11.045361017187261,11.0,27.0,31.0,58.077534382926416,286.2114602876691,284.14256984830695,276.1159176867571,266.092089322475
262,4,262,0,8.733333333333306,26.0,114.03946685248927,12.041594578792296,13.038404810405298,31.064449134018133,33.06055050963308,35.22782990761707,86.20904824900923,73.17103251970687,60.0,71.0,68.0,34.5,16.5,2.5,24.5,11.180339887498949,10.0,10.0,26.0,31.0,56.142675390472796,290.13962156175774,284.0862545073239,276.08875384557047,265.04716561397146
263,4,263,0,8.766666666666639,4.47213595499958,118.06777714516353,13.0,15.033296378372908,31.064449134018133,32.0624390837628,36.124783736376884,68.26419266350405,53.23532661682466,51.0,64.0,60.0,26.0,6.0,9.0,15.0,10.198039027185569,10.04987562112089,10.0,29.0,33.0,53.03772242470448,285.17538463198395,284.14256984830695,281.1440911703463,272.0900586203031
264,4,264,0,8.799999999999972,6.082762530298219,118.06777714516353,13.038404810405298,15.033296378372908,31.064449134018133,32.01562118716424,36.124783736376884,70.25667228100119,55.226805085936306,52.0,66.0,62.0,28.0,6.0,9.0,16.0,10.198039027185569,9.055385138137417,9.5,28.0,32.0,56.0357029044876,282.14358046923553,281.1138559374119,278.14564530116235,271.1180554666177
265,4,265,0,8.833333333333306,16.1245154965971,116.15506876585283,13.0,16.0312195418814,31.064449134018133,34.058772731852805,34.23448553724738,79.30952023559341,63.28506932918696,55.0,67.0,61.0,30.0,15.0,1.0,18.0,10.44030650891055,10.0,9.5,30.0,33.0,55.036351623268054,283.08655920053855,282.0638225650358,278.0647406630334,270.06665843824555
266,4,266,0,8.866666666666639,24.08318915758459,120.03749414245534,12.0,15.033296378372908,32.0624390837628,35.014282800023196,34.058772731852805,85.14693182963201,70.11419257183242,58.0,67.0,64.0,31.5,19.5,4.5,20.5,10.04987562112089,10.0,9.5,29.0,33.0,54.037024344425184,283.17662332897464,281.1778796420515,278.1150840928985,270.09072549793336
267,4,267,0,8.899999999999972,27.018512172212592,129.0348790056394,13.038404810405298,16.0312195418814,34.0147027033899,38.01315561749642,34.058772731852805,90.13878188659973,74.10802925459562,60.5,67.0,64.0,31.5,24.5,8.5,19.5,9.219544457292887,9.055385138137417,9.0,29.0,31.0,55.036351623268054,283.0441661649291,283.01590061337544,279.0017921089397,269.0
268,4,268,0,8.933333333333305,34.0147027033899,133.00375934536586,12.0,16.0312195418814,36.013886210738214,39.01281840626232,35.12833614050059,97.12878049270464,81.09870529176159,64.0,68.0,67.0,32.5,29.5,12.5,20.5,10.04987562112089,9.0,9.0,32.0,32.0,54.00925846556311,284.0017605579233,282.00177304407146,279.0017921089397,271.0018450121696
269,4,269,0,8.966666666666638,38.05259518088089,137.00364958642524,12.0,16.0,36.013886210738214,40.0,36.05551275463989,102.07840124139877,86.09297300012354,67.0,68.0,69.0,32.5,33.5,16.5,21.5,10.04987562112089,10.04987562112089,10.0,32.0,31.0,55.00909015790027,283.0,283.0017667789373,280.0017857085915,272.0018382290826
270,4,270,0,8.999999999999972,41.012193308819754,139.0,12.0,16.0312195418814,37.013511046643494,40.0,34.058772731852805,103.07764064044152,87.05170877128145,66.5,67.0,67.0,33.0,36.0,19.0,21.0,10.04987562112089,9.055385138137417,9.0,33.0,32.0,56.0,284.0070421662111,285.0070174574654,282.0070921094007,273.0164830188829
271,4,271,0,9.033333333333305,42.01190307520001,139.00359707575916,12.0,15.033296378372908,37.013511046643494,41.012193308819754,36.05551275463989,105.07616285342742,90.0499861188218,69.0,68.0,67.0,31.5,37.5,21.5,20.5,9.055385138137417,9.0,9.0,33.0,32.0,58.0,285.00175438056516,286.0,284.0,276.00724628168734
272,4,272,0,9.066666666666638,45.0111097397076,141.00354605470034,11.045361017187261,15.033296378372908,38.05259518088089,42.0,36.013886210738214,107.07474025184464,92.04890004774636,69.5,68.0,67.0,31.5,39.5,23.5,21.5,10.04987562112089,9.055385138137417,8.5,35.0,33.0,55.00909015790027,284.0070421662111,285.00175438056516,283.0017667789373,276.0
273,4,273,0,9.099999999999971,48.010415536631214,144.0,10.0,13.0,37.013511046643494,41.0,36.05551275463989,107.0420478129973,94.04786015641186,70.0,67.0,67.0,31.0,40.0,25.0,21.0,11.180339887498949,10.04987562112089,10.0,33.0,31.0,60.00833275470999,286.00174824640493,284.0070421662111,281.0160137785746,271.0461215365385
274,4,274,0,9.133333333333304,42.0,139.00359707575916,11.045361017187261,15.033296378372908,37.013511046643494,41.012193308819754,38.01315561749642,106.04244433244644,91.02197536858887,70.0,64.0,63.0,25.5,42.5,26.5,16.5,9.055385138137417,9.055385138137417,8.5,38.0,36.0,53.03772242470448,289.0017300986276,288.00694436072195,286.01573383294846,279.0161285660741
275,4,275,0,9.166666666666638,39.01281840626232,144.00347218036097,10.0,14.0,39.01281840626232,41.0,36.124783736376884,99.08077512817509,85.09406559801923,65.5,60.0,59.0,23.5,39.5,23.5,15.5,9.055385138137417,10.04987562112089,9.5,35.0,33.0,60.00833275470999,290.0068964697219,288.00173610587836,284.0070421662111,275.0163631495406
276,4,276,0,9.19999999999997,31.016124838541646,142.00352108310554,10.0,15.0,37.013511046643494,40.01249804748511,36.124783736376884,92.0869154657707,77.10382610480494,61.5,59.0,58.0,22.5,33.5,17.5,14.5,10.04987562112089,10.198039027185569,10.0,37.0,35.0,61.00819617067857,292.0,288.00173610587836,282.0070921094007,274.00182481144174
277,4,277,0,9.233333333333304,21.02379604162864,139.01438774457844,10.0,15.0,36.0,38.01315561749642,37.05401462729781,83.05419917138447,68.06614430096654,57.5,55.0,57.0,19.0,27.0,11.0,9.0,7.0,6.082762530298219,6.0,37.0,33.0,58.008620049092706,293.0,289.0017300986276,284.01584462842914,277.0018050482704
278,4,278,0,9.266666666666636,14.0,137.03284277865654,11.0,14.0,35.014282800023196,37.0,37.013511046643494,76.00657866263946,62.00806399170998,55.0,53.0,56.0,17.5,21.5,6.5,6.5,6.082762530298219,5.385164807134504,5.0,39.0,33.0,59.033888572581766,291.02749011047047,288.0277764383151,283.01590061337544,276.00724628168734
279,4,279,0,9.29999999999997,11.0,134.03357788255897,11.0,16.0312195418814,34.0,35.014282800023196,36.013886210738214,74.0,58.008620049092706,52.5,53.0,56.0,18.5,19.5,3.5,8.5,5.0990195135927845,5.385164807134504,5.5,39.0,32.0,60.03332407921454,292.0068492347397,288.00694436072195,281.00177935379696,274.00182481144174
280,4,280,0,9.333333333333304,12.0,126.01587201618692,11.045361017187261,14.0,33.0,35.0,37.0,74.00675644831355,60.00833275470999,54.0,57.0,59.0,21.0,16.0,1.0,11.0,7.0710678118654755,7.280109889280518,7.0,37.0,31.0,59.00847396772772,292.04280508172087,286.04370295463593,281.0284683088174,274.0164228654918
281,4,281,0,9.366666666666635,15.0,122.00409829181969,10.04987562112089,13.0,34.0,36.013886210738214,37.013511046643494,75.0,62.0,54.5,59.0,60.0,22.5,15.5,1.5,13.5,9.055385138137417,8.06225774829855,8.0,34.0,29.0,56.00892785976178,296.00168918436935,289.0,283.0017667789373,274.0164228654918
282,4,282,0,9.39999999999997,15.033296378372908,118.00423721205946,11.045361017187261,15.033296378372908,34.0,36.0,35.05709628591621,76.00657866263946,61.032778078668514,53.5,59.0,60.0,24.5,16.5,0.5,14.5,10.04987562112089,9.055385138137417,9.5,35.0,31.0,56.00892785976178,293.0068258590574,289.0017300986276,284.0017605579233,276.00724628168734
283,4,283,0,9.433333333333303,18.027756377319946,117.00427342623003,11.0,14.0,31.0,34.0147027033899,37.12142238654117,80.02499609497022,66.03029607687671,57.0,61.0,62.0,24.5,18.5,3.5,14.5,10.198039027185569,9.055385138137417,9.5,33.0,31.0,58.0,293.01535795927146,289.0017300986276,281.0,272.0
284,4,284,0,9.466666666666637,18.027756377319946,114.00438588054409,11.0,14.0,30.0,32.0,37.013511046643494,80.02499609497022,66.03029607687671,57.0,64.0,63.0,26.5,16.5,1.5,16.5,11.180339887498949,10.04987562112089,10.0,35.0,33.0,56.0,293.0068258590574,288.00694436072195,282.0070921094007,273.00732590903124
285,4,285,0,9.49999999999997,17.029386365926403,112.0714058089752,11.0,14.0,31.016124838541646,34.0147027033899,38.118237105091836,80.09993757800315,66.12110101926616,57.5,67.0,63.0,27.0,15.0,0.0,17.0,10.04987562112089,10.04987562112089,10.0,34.0,34.0,55.00909015790027,290.0431002454635,288.0277764383151,283.0441661649291,274.0456166407337
286,4,286,0,9.533333333333305,16.0312195418814,114.10959644131601,11.0,13.038404810405298,31.016124838541646,33.015148038438355,38.05259518088089,78.10249675906654,65.06919393998976,57.0,68.0,63.0,27.5,12.5,1.5,17.5,10.198039027185569,10.04987562112089,10.5,33.0,35.0,54.037024344425184,291.06184909740404,289.0276803352925,282.0159569953445,273.00183149568795
287,4,287,0,9.566666666666636,17.029386365926403,111.07204868912791,11.0,14.035668847618199,30.01666203960727,32.01562118716424,38.05259518088089,80.09993757800315,66.06814663663572,57.5,69.0,65.0,29.0,13.0,1.0,19.0,11.180339887498949,10.04987562112089,10.0,33.0,34.0,56.0357029044876,289.06227702694105,286.04370295463593,281.0284683088174,272.01654361453825
288,4,288,0,9.59999999999997,16.0312195418814,112.04017136723775,11.0,15.033296378372908,30.066592756745816,32.01562118716424,38.05259518088089,80.09993757800315,65.06919393998976,57.0,69.0,66.0,29.5,12.5,2.5,19.5,11.180339887498949,11.045361017187261,11.0,31.0,32.0,54.037024344425184,290.06206232459976,284.0633732109791,278.044960393099,267.02996086581743
289,4,289,0,9.633333333333304,11.0,111.01801655587259,12.0,15.0,29.017236257093817,31.016124838541646,37.05401462729781,75.02666192761077,60.03332407921454,54.5,67.0,65.0,29.0,9.0,6.0,18.0,11.180339887498949,11.045361017187261,10.5,33.0,32.0,55.0,290.0844704564517,287.06271091871196,279.0447992706547,268.02984908401527
290,4,290,0,9.666666666666636,7.0710678118654755,113.07077429645558,11.045361017187261,16.0,30.0,31.064449134018133,39.01281840626232,73.06161783043132,57.07889277132134,53.5,68.0,64.0,27.0,7.0,9.0,16.0,11.045361017187261,11.045361017187261,11.0,34.0,33.0,50.0,290.01551682625535,287.0278732109479,281.06404963993526,271.1180554666177
291,4,291,0,9.699999999999967,5.0990195135927845,114.0175425099138,11.0,14.035668847618199,29.017236257093817,30.01666203960727,39.11521443121589,69.18092222571191,55.14526271584895,52.5,66.0,64.0,26.0,4.0,10.0,16.0,9.219544457292887,9.219544457292887,9.0,32.0,30.0,54.00925846556311,289.110705439975,287.1114766079545,282.0868660537034,271.0903908293321
292,4,292,0,9.733333333333302,2.23606797749979,118.01694793545543,11.0,14.0,29.0,31.0,40.049968789001575,67.06713054842886,53.08483775994799,52.0,66.0,64.0,25.0,2.0,12.0,15.0,11.045361017187261,10.198039027185569,10.0,32.0,29.0,56.0357029044876,290.0431002454635,287.06271091871196,282.0638225650358,273.045783706689
293,4,293,0,9.766666666666636,2.0,114.0175425099138,10.0,12.0,28.0,29.0,42.04759208325728,66.03029607687671,54.037024344425184,53.0,66.0,64.0,23.0,1.0,11.0,13.0,11.180339887498949,10.198039027185569,10.0,32.0,29.0,56.0,291.06184909740404,286.0629301395062,279.06450867138227,269.0669061776271
294,4,294,0,9.799999999999969,0.0,117.01709276853532,11.0,13.038404810405298,30.01666203960727,30.0,41.012193308819754,65.03076195155643,52.009614495783374,52.0,64.0,62.0,22.0,2.0,12.0,13.0,10.44030650891055,10.04987562112089,10.5,30.0,29.0,53.0,291.04295215655026,287.06271091871196,279.0877998050076,269.1189328159578
295,4,295,0,9.833333333333302,2.0,118.01694793545543,10.0,11.045361017187261,29.0,31.0,42.04759208325728,65.06919393998976,54.037024344425184,53.0,64.0,62.0,21.0,2.0,10.0,12.0,11.180339887498949,10.198039027185569,10.0,33.0,30.0,54.037024344425184,292.0154105522515,289.0155705148081,282.0159569953445,271.01660465735307
296,4,296,0,9.866666666666635,8.06225774829855,115.00434774390054,9.0,12.0,29.0,30.0,41.012193308819754,70.02856560004639,58.034472514187634,54.0,64.0,63.0,22.5,6.5,6.5,14.5,11.180339887498949,11.180339887498949,11.0,34.0,31.0,53.009433122794285,292.0273959751037,286.02797066021355,278.044960393099,268.06715576511795
297,4,297,0,9.899999999999968,14.035668847618199,116.01724009818541,9.0,13.038404810405298,29.0,31.0,42.04759208325728,78.10249675906654,65.06919393998976,58.0,67.0,65.0,24.0,12.0,2.0,16.0,11.045361017187261,10.198039027185569,10.5,35.0,31.0,54.00925846556311,293.0614270080592,288.0624932197873,281.06404963993526,271.0664125265246
298,4,298,0,9.933333333333302,18.0,115.0173899895142,8.06225774829855,12.041594578792296,28.0,31.016124838541646,42.01190307520001,80.05623023850174,68.0294054067798,59.0,67.0,65.0,24.0,14.0,1.0,16.0,11.180339887498949,10.04987562112089,10.5,33.0,31.0,56.00892785976178,294.0612181162283,288.0277764383151,280.0160709673643,268.01679051880313
299,4,299,0,9.966666666666637,16.0312195418814,113.01769772916099,10.0,15.033296378372908,29.0,32.01562118716424,40.0,81.02468759581859,66.007575322837,58.0,66.0,64.0,25.0,16.0,0.0,16.0,12.041594578792296,11.045361017187261,11.5,37.0,33.0,56.00892785976178,293.0068258590574,289.0069203323685,283.0017667789373,274.00182481144174
300,4,300,0,9.999999999999968,12.041594578792296,114.0175425099138,10.0,15.0,30.01666203960727,32.0,40.01249804748511,77.02596964660685,62.03224967708329,56.0,64.0,62.0,23.0,14.0,2.0,14.0,12.165525060596439,11.045361017187261,11.0,37.0,32.0,57.0087712549569,293.00170647967224,290.0068964697219,284.0,274.00182481144174
301,4,301,0,10.0333333333333,6.082762530298219,115.0173899895142,9.0,14.0,29.017236257093817,31.0,41.048751503547585,70.06425622241343,56.08029957123981,53.0,63.0,61.0,21.0,8.0,7.0,13.0,12.041594578792296,11.180339887498949,11.5,35.0,31.0,56.00892785976178,296.00675667964066,292.00171232374646,284.0,275.0018181758077
302,4,302,0,10.066666666666634,7.280109889280518,113.07077429645558,8.0,14.0,29.017236257093817,31.016124838541646,40.01249804748511,69.06518659932803,55.08175741568164,51.5,63.0,59.0,21.0,8.0,7.0,14.0,12.165525060596439,12.041594578792296,11.5,32.0,32.0,56.00892785976178,294.00680264238787,291.00171820798585,285.00175438056516,276.0
303,4,303,0,10.099999999999968,8.246211251235321,112.16059914247963,9.0,15.0,30.066592756745816,32.01562118716424,39.05124837953327,71.11258679024411,56.142675390472796,52.0,66.0,60.0,24.0,8.0,8.0,16.0,12.36931687685298,12.041594578792296,11.5,32.0,33.0,57.0087712549569,294.0017006753532,291.00171820798585,284.0070421662111,275.00727263110696
304,4,304,0,10.1333333333333,11.045361017187261,112.01785571952357,9.0,15.033296378372908,29.017236257093817,31.0,39.11521443121589,74.16872656315464,59.135437767890075,53.5,66.0,64.0,26.0,9.0,7.0,18.0,12.165525060596439,11.0,11.0,31.0,32.0,57.0087712549569,295.0830391601659,289.0847626562147,282.0868660537034,270.09072549793336
305,4,305,0,10.166666666666634,6.082762530298219,112.11155159036913,10.0,14.035668847618199,29.017236257093817,30.01666203960727,40.19950248448356,70.25667228100119,56.22277118748239,53.0,67.0,62.0,24.5,5.5,8.5,15.5,11.180339887498949,12.041594578792296,12.0,31.0,32.0,53.009433122794285,293.04265901059523,290.02758489495443,283.0441661649291,273.045783706689
306,4,306,0,10.199999999999967,1.4142135623730951,117.06835610018618,12.0,13.038404810405298,30.01666203960727,31.016124838541646,41.048751503547585,67.11929677819934,54.08326913195984,53.5,65.0,61.0,22.0,4.0,10.0,12.0,12.041594578792296,12.041594578792296,12.0,31.0,34.0,54.00925846556311,293.08360581922693,290.1103238424996,284.1126537132762,274.11676344215067
307,4,307,0,10.2333333333333,1.4142135623730951,116.15506876585283,10.0,13.038404810405298,29.068883707497267,31.016124838541646,42.04759208325728,66.12110101926616,53.08483775994799,52.5,66.0,60.0,21.0,3.0,11.0,13.0,13.152946437965905,12.041594578792296,11.5,30.0,33.0,58.034472514187634,290.02758489495443,288.01562457616774,283.01590061337544,272.0073528417936
308,4,308,0,10.266666666666634,1.4142135623730951,114.10959644131601,10.04987562112089,11.0,28.071337695236398,29.068883707497267,41.0,63.0317380372777,52.03844732503075,51.5,65.0,60.0,21.5,0.5,10.5,13.5,13.152946437965905,12.165525060596439,12.5,30.0,33.0,57.0350769263968,294.0612181162283,288.0277764383151,281.0284683088174,270.0166661522951
309,4,309,0,10.299999999999969,1.0,116.1077086157504,10.0,13.038404810405298,29.017236257093817,30.01666203960727,42.01190307520001,65.06919393998976,52.03844732503075,52.0,64.0,59.0,19.5,3.5,10.5,11.5,13.038404810405298,13.038404810405298,12.5,32.0,33.0,58.008620049092706,290.02758489495443,287.0278732109479,281.0284683088174,273.0164830188829
310,4,310,0,10.3333333333333,2.23606797749979,114.0701538527936,11.0,15.0,30.01666203960727,32.01562118716424,40.01249804748511,68.0294054067798,53.03772242470448,52.0,62.0,58.0,20.0,8.0,8.0,11.0,12.165525060596439,12.165525060596439,12.0,31.0,32.0,57.0087712549569,290.0844704564517,287.06271091871196,281.04448046528154,271.01660465735307
311,4,311,0,10.366666666666632,7.0710678118654755,113.03981599418853,12.0,15.0,29.0,31.0,41.048751503547585,75.05997601918082,60.07495318350236,56.5,65.0,62.0,22.5,11.5,4.5,11.5,12.165525060596439,13.038404810405298,12.5,35.0,35.0,57.0,291.04295215655026,288.0624932197873,282.0868660537034,271.0903908293321
312,4,312,0,10.399999999999968,15.033296378372908,108.04165863221463,12.0,15.0,28.0,31.0,42.01190307520001,84.02380615040002,69.02897942168927,61.5,70.0,67.0,26.5,15.5,0.5,15.5,13.152946437965905,13.038404810405298,13.0,34.0,33.0,55.0,292.04280508172087,288.0433995077825,282.0868660537034,273.0897288438362
313,4,313,0,10.4333333333333,23.0,108.0,11.0,16.0312195418814,29.0,33.0,39.11521443121589,89.08984229416954,73.06161783043132,61.5,68.0,68.0,29.0,21.0,3.0,19.0,12.041594578792296,12.041594578792296,12.0,35.0,33.0,56.00892785976178,294.0425139329345,289.0276803352925,281.04448046528154,269.04646438858845
314,4,314,0,10.466666666666631,21.0,108.00462953040486,11.0,15.0,29.0,32.0,39.11521443121589,86.05230967266364,71.06335201775947,60.5,69.0,68.0,29.5,17.5,1.5,19.5,11.045361017187261,11.045361017187261,11.0,35.0,32.0,56.00892785976178,294.0153057240388,290.0068964697219,283.01590061337544,273.0164830188829
315,4,315,0,10.499999999999966,15.033296378372908,110.00454536063498,10.0,16.0,30.01666203960727,32.01562118716424,38.118237105091836,79.1012010022604,63.12685640834652,55.5,64.0,63.0,25.5,15.5,1.5,16.5,11.045361017187261,11.045361017187261,11.0,35.0,31.0,55.00909015790027,294.0153057240388,290.01551682625535,284.0281676172277,276.02898398537786
316,4,316,0,10.5333333333333,8.06225774829855,112.0044641967453,10.04987562112089,17.0,30.01666203960727,31.0,38.118237105091836,73.06161783043132,56.08029957123981,52.0,62.0,61.0,23.5,11.5,6.5,14.5,12.041594578792296,12.041594578792296,11.5,35.0,32.0,57.0087712549569,294.0612181162283,290.06206232459976,283.1130516242584,275.11633902769205
317,4,317,0,10.566666666666633,8.06225774829855,112.0,10.0,17.0,30.0,31.0,38.118237105091836,73.10950690573696,56.142675390472796,52.0,61.0,61.0,23.0,12.0,6.0,14.0,11.045361017187261,11.180339887498949,11.0,34.0,31.0,59.0,293.01535795927146,289.0155705148081,283.0282671395209,275.02908937056094
318,4,318,0,10.599999999999966,11.045361017187261,109.00458705944443,8.0,15.0,29.0,30.0,38.05259518088089,72.06247289678588,57.07889277132134,51.5,63.0,62.0,24.5,9.5,6.5,16.5,12.165525060596439,11.180339887498949,11.5,33.0,29.0,58.0,293.027302482209,290.02758489495443,281.0284683088174,271.0461215365385
319,4,319,0,10.6333333333333,12.0,108.00462953040486,9.0,16.0,29.0,31.016124838541646,37.12142238654117,74.06078584514209,58.077534382926416,52.0,63.0,62.0,25.5,11.5,5.5,16.5,12.041594578792296,11.180339887498949,11.0,33.0,31.0,58.0,294.0,289.0017300986276,281.0,271.0018450121696
320,4,320,0,10.666666666666632,16.0312195418814,106.00471687618433,10.0,14.0,29.0,31.0,38.118237105091836,78.10249675906654,64.1248781675256,56.0,65.0,64.0,26.5,13.5,2.5,17.5,12.041594578792296,12.041594578792296,11.5,33.0,30.0,58.0,293.00170647967224,289.0,280.0017857085915,270.0018518455012
321,4,321,0,10.699999999999966,15.033296378372908,105.00476179678711,10.0,14.0,29.0,31.016124838541646,39.05124837953327,78.05767098754612,64.07027391856539,56.5,65.0,66.0,26.5,12.5,3.5,17.5,12.165525060596439,11.045361017187261,11.5,33.0,31.0,55.0,288.0,285.0070174574654,278.01618657912707,268.02984908401527
322,4,322,0,10.7333333333333,17.029386365926403,107.0,11.0,13.0,27.0,29.017236257093817,38.05259518088089,79.05694150420949,66.06814663663572,57.5,66.0,66.0,28.0,13.0,2.0,17.0,12.041594578792296,12.041594578792296,11.5,33.0,30.0,56.00892785976178,289.0,285.0070174574654,278.01618657912707,268.04663773306316
323,4,323,0,10.766666666666632,19.026297590440446,106.0,10.0,14.035668847618199,28.0,30.01666203960727,39.01281840626232,82.05485969764375,68.0294054067798,58.5,66.0,66.0,27.0,16.0,0.0,17.0,13.038404810405298,12.041594578792296,12.0,33.0,31.0,57.0,286.0069929215018,283.0282671395209,276.04528613979267,266.092089322475
324,4,324,0,10.799999999999963,25.0,109.00458705944443,11.0,15.0,29.0,31.0,37.12142238654117,88.05112151472007,73.06161783043132,60.5,67.0,68.0,30.5,20.5,3.5,19.5,12.041594578792296,12.041594578792296,12.0,34.0,30.0,56.0,293.0614270080592,288.1110896859057,279.1451235468748,266.1522120892479
325,4,325,0,10.833333333333298,26.0,109.04127658827184,12.0,17.0,28.0,32.01562118716424,38.01315561749642,93.00537618869137,76.00657866263946,63.0,68.0,71.0,31.5,23.5,4.5,19.5,12.041594578792296,12.041594578792296,12.0,35.0,29.0,54.08326913195984,287.0853531617383,285.14206985290684,281.2561110447202,272.26457720386617
326,4,326,0,10.866666666666632,29.017236257093817,116.06894502837527,12.0,16.0,31.016124838541646,33.06055050963308,40.049968789001575,97.0051545022222,81.00617260431454,66.5,71.0,75.0,33.0,24.0,6.0,21.0,12.0,12.165525060596439,12.5,35.0,27.0,55.08175741568164,288.1405906844782,285.25251970841555,276.3059898011623,265.3695536417092
327,4,327,0,10.899999999999965,33.015148038438355,120.10412149464314,12.0,15.0,31.016124838541646,34.058772731852805,37.013511046643494,97.0,82.0,65.5,68.0,73.0,33.5,26.5,8.5,21.5,12.041594578792296,12.165525060596439,12.5,36.0,29.0,55.036351623268054,291.171770609721,286.2516375499012,275.3071012524014,263.2736219221364
328,4,328,0,10.933333333333298,37.0,123.1990259701756,11.0,16.0312195418814,31.0,34.058772731852805,37.013511046643494,101.0,85.00588214941364,66.5,67.0,74.0,33.5,30.5,12.5,22.5,11.0,11.180339887498949,11.5,36.0,26.0,56.08029957123981,288.39036044916617,283.45193596093145,275.35613303502066,264.31988196123274
329,4,329,0,10.966666666666631,38.0,125.14391715141412,11.045361017187261,14.035668847618199,34.0,36.05551275463989,38.01315561749642,101.00495037373169,87.0,68.0,68.0,74.0,33.0,30.0,14.0,22.0,13.038404810405298,11.180339887498949,11.0,37.0,26.0,56.0357029044876,287.76726707532254,282.85685425670704,274.8817927764587,262.68802789621
330,4,330,0,10.999999999999964,40.01249804748511,127.1927670899568,11.045361017187261,15.0,34.058772731852805,38.05259518088089,38.0,104.01922899156675,89.02246907382428,69.0,68.0,75.0,33.5,32.5,14.5,21.5,12.041594578792296,12.165525060596439,12.0,37.0,25.0,56.08029957123981,284.63485380395707,281.64161624305456,274.5268657162719,264.3709515056448
331,4,331,0,11.033333333333298,41.0,128.14054783713078,12.0,16.0312195418814,35.014282800023196,38.05259518088089,37.013511046643494,106.01886624558857,90.00555538409837,69.5,68.0,74.0,34.0,35.0,17.0,21.0,11.0,11.045361017187261,11.0,36.0,24.0,57.07889277132134,282.398654387729,280.40149785619906,275.3071012524014,265.1886121235224
332,4,332,0,11.066666666666633,42.0,131.18688958886096,12.0,15.033296378372908,33.015148038438355,36.05551275463989,35.0,104.00480758118829,89.0,68.0,63.0,70.0,31.5,37.5,20.5,19.5,11.0,10.04987562112089,10.5,37.0,26.0,56.08029957123981,282.3473038652928,279.3027031734566,273.26360899322106,263.1539473388153
333,4,333,0,11.099999999999964,45.0111097397076,131.13733259449805,12.0,14.0,35.014282800023196,39.05124837953327,35.0,106.00471687618433,92.00543462209176,69.5,65.0,71.0,33.0,38.0,21.0,21.0,12.0,10.44030650891055,10.5,36.0,26.0,56.0357029044876,279.5174413162799,276.52305509667724,269.41789101691074,260.27677575995904
334,4,334,0,11.133333333333296,46.0,130.09611831257686,11.0,13.0,35.014282800023196,38.01315561749642,36.013886210738214,106.00471687618433,93.00537618869137,70.0,66.0,71.0,32.5,37.5,21.5,21.5,11.0,9.219544457292887,10.0,36.0,25.0,57.07889277132134,282.63934616397626,278.5192991517823,269.5366394388711,258.37956575549856
335,4,335,0,11.16666666666663,45.0111097397076,129.1394595001853,11.045361017187261,14.035668847618199,35.014282800023196,38.05259518088089,36.013886210738214,106.0,92.00543462209176,69.5,67.0,73.0,34.0,36.0,20.0,22.0,11.0,10.198039027185569,10.5,36.0,26.0,57.0350769263968,278.5192991517823,274.4102767754881,266.3174797117155,257.1575392633862
336,4,336,0,11.199999999999964,44.01136216933077,130.13838787997952,11.0,14.0,34.0147027033899,38.05259518088089,35.0,104.00480758118829,90.00555538409837,68.0,64.0,70.0,32.0,37.0,20.0,21.0,11.045361017187261,10.198039027185569,10.0,35.0,25.0,56.08029957123981,280.349781523011,275.3071012524014,268.26852219371546,255.15877409957903
337,4,337,0,11.233333333333295,37.013511046643494,130.13838787997952,11.0,13.0,34.0147027033899,37.05401462729781,35.0,96.00520819205592,83.00602387778854,64.5,62.0,68.0,30.0,31.0,16.0,19.0,10.0,10.198039027185569,10.0,35.0,25.0,55.036351623268054,281.30055101261354,275.26169366622736,268.2256512714621,256.12496949731394
338,4,338,0,11.26666666666663,37.013511046643494,128.191263352851,11.0,13.0,33.015148038438355,37.05401462729781,35.0,96.00520819205592,83.00602387778854,64.5,60.0,67.0,28.5,32.5,17.5,17.5,11.045361017187261,10.04987562112089,10.0,36.0,27.0,55.036351623268054,279.17915394957413,274.14777037211155,266.12027356065903,257.07002936943076
339,4,339,0,11.299999999999963,42.01190307520001,118.10588469674151,11.0,15.0,34.0147027033899,37.013511046643494,34.058772731852805,102.00490184299969,87.00574693662483,66.0,67.0,72.0,35.5,32.5,15.5,24.5,11.045361017187261,10.04987562112089,10.0,34.0,26.0,55.08175741568164,279.06450867138227,273.0659261057666,263.04752422328556,250.01799935204664
340,4,340,0,11.333333333333297,46.0,111.11255554616679,12.041594578792296,18.0,34.0147027033899,37.013511046643494,32.0624390837628,108.00462953040486,90.00555538409837,67.0,71.0,76.0,41.5,34.5,13.5,28.5,10.04987562112089,9.055385138137417,9.5,34.0,27.0,56.00892785976178,279.00716836669267,274.0072991728505,263.00760445279906,251.0
341,4,341,0,11.36666666666663,47.0,104.0768946500615,12.0,20.0,33.015148038438355,35.014282800023196,33.13608305156178,112.04017136723775,92.04890004774636,68.5,73.0,77.0,42.0,37.0,14.0,30.0,10.0,10.04987562112089,10.0,35.0,28.0,57.0350769263968,278.0071941515183,273.00732590903124,263.0171097096157,250.0719896349849
342,4,342,0,11.399999999999965,50.00999900019995,103.23759005323593,12.0,19.0,33.06055050963308,36.05551275463989,33.13608305156178,114.0175425099138,95.02105029939419,70.0,73.0,80.0,43.5,37.5,15.5,30.5,10.04987562112089,10.04987562112089,10.5,34.0,28.0,56.00892785976178,279.0017921089397,273.0,264.0075756488817,250.01799935204664
343,4,343,0,11.433333333333296,51.0,100.12492197250393,11.0,20.0,31.016124838541646,36.013886210738214,36.013886210738214,118.00423721205946,98.00510190801293,72.5,78.0,83.0,44.5,37.5,15.5,32.5,12.041594578792296,11.180339887498949,11.5,35.0,29.0,53.03772242470448,277.0072201225087,274.0072991728505,266.04698833100895,252.0972034751675
344,4,344,0,11.46666666666663,52.0,101.04454463255303,11.0,18.0,32.01562118716424,35.014282800023196,35.014282800023196,116.00431026474836,98.00510190801293,72.0,78.0,81.0,44.5,36.5,15.5,32.5,11.180339887498949,11.045361017187261,11.0,34.0,29.0,53.03772242470448,280.0017857085915,275.00727263110696,266.01691675530714,252.07141845120006
345,4,345,0,11.499999999999964,50.0,102.07840124139877,11.0,19.0,31.016124838541646,34.0147027033899,34.132096331752024,114.03946685248927,95.04735661763561,70.0,74.0,78.0,42.0,38.0,17.0,30.0,10.04987562112089,11.0,11.0,35.0,29.0,58.034472514187634,283.0282671395209,279.06450867138227,269.09106265351886,254.19677417308034
346,4,346,0,11.533333333333296,47.0,105.01904589168576,11.0,18.0,31.0,35.014282800023196,37.05401462729781,113.01769772916099,95.02105029939419,71.5,79.0,81.0,43.0,33.0,13.0,32.0,11.180339887498949,11.045361017187261,11.5,35.0,31.0,54.0,282.0159569953445,276.02898398537786,267.02996086581743,254.07085625864295
347,4,347,0,11.56666666666663,46.0,112.04017136723775,10.04987562112089,17.029386365926403,33.0,36.0,34.132096331752024,107.11675872616759,90.08884503644167,67.0,70.0,73.0,37.5,35.5,16.5,27.5,12.041594578792296,11.045361017187261,11.0,35.0,31.0,54.08326913195984,283.08655920053855,279.06450867138227,270.09072549793336,258.1937257177254
348,4,348,0,11.599999999999962,43.01162633521314,119.0,12.0,17.0,33.015148038438355,37.0,36.05551275463989,108.04165863221463,91.0494371207203,69.5,74.0,74.0,38.0,34.0,16.0,27.0,13.038404810405298,12.0,12.0,35.0,31.0,56.00892785976178,285.08595195133694,280.08748633239577,271.14940531006147,259.19297829995315
349,4,349,0,11.633333333333296,47.0,121.0,12.041594578792296,17.029386365926403,35.0,38.0,36.05551275463989,112.0714058089752,95.04735661763561,71.5,75.0,75.0,39.0,37.0,18.0,27.0,12.041594578792296,11.0,11.0,35.0,32.0,55.00909015790027,286.0069929215018,281.0160137785746,272.01654361453825,260.0307674103201
350,4,350,0,11.666666666666629,47.0,122.03687967167957,12.0,17.029386365926403,34.0,38.01315561749642,36.05551275463989,112.04017136723775,95.02105029939419,71.5,74.0,77.0,39.5,36.5,17.5,27.5,12.041594578792296,11.045361017187261,11.0,34.0,31.0,57.0350769263968,285.02806879323305,280.0160709673643,271.02951868754076,259.0308861892728
351,4,351,0,11.699999999999962,37.0,118.00423721205946,12.0,17.029386365926403,34.0147027033899,37.0,36.05551275463989,102.04410811016969,85.0235261559999,66.5,72.0,73.0,36.5,29.5,11.5,25.5,11.045361017187261,11.045361017187261,11.5,35.0,32.0,55.036351623268054,287.0069685565143,282.0070921094007,273.00732590903124,261.01724080987447
352,4,352,0,11.733333333333295,16.0,117.00427342623003,11.045361017187261,13.0,30.0,32.0,39.05124837953327,79.00632886041473,66.007575322837,58.0,67.0,66.0,27.5,12.5,1.5,16.5,11.180339887498949,10.04987562112089,9.5,34.0,29.0,52.009614495783374,283.0282671395209,280.0071427660373,275.0163631495406,264.0170449043016
353,4,353,0,11.766666666666628,4.0,116.00431026474836,11.0,18.0,30.0,32.01562118716424,37.05401462729781,70.02856560004639,52.03844732503075,50.0,59.0,60.0,22.5,10.5,8.5,11.5,8.06225774829855,7.280109889280518,7.5,37.0,32.0,53.03772242470448,283.0282671395209,281.0284683088174,277.02887936097926,269.0167281044062
354,4,354,0,11.799999999999962,4.123105625617661,114.00438588054409,11.045361017187261,14.0,29.0,30.0,36.05551275463989,65.03076195155643,51.03920062069938,49.0,59.0,60.0,23.5,5.5,8.5,12.5,8.246211251235321,9.055385138137417,8.5,36.0,30.0,54.037024344425184,282.0070921094007,280.0071427660373,276.0163038662753,267.0468123756582
