,video_id,frame_seq,gap,time_seconds,m1,m3,m4,m5,m6,m7,m8,m9,m10,m11,m12,m13,m14,m15,m16,m17,e1,e2,e3,b1,b2,b3
0,4,0,0,0.0,7.69794480404487,49.290896953199955,2.4716611177593597,3.5128904815988387,12.239090851006255,12.933189695004444,13.986195335651885,27.614107727171657,24.121183859474574,20.273648711088043,18.52592037392529,19.22501170879039,4.893639344055742,8.738641685813818,4.544093676623191,2.446819672027871,4.544093676623177,4.2090872139961695,4.019775175474365,13.632281029869553,10.48637002297658,19.58703717180134
1,4,1,0,0.0333333333333333,7.671138671131744,47.384195227305646,2.463054187192123,3.8474136334515476,11.84828913379871,12.544661653445162,13.937491971226708,27.86627709109547,24.03718797784405,20.203050891044228,18.461408572850758,19.50639396376684,5.050762722761064,8.88237582278667,4.005777331844968,2.9607919409288996,4.528270027303009,4.194430139390733,4.354105795483676,13.236481618270354,10.449853909160801,19.866940719286497
2,4,2,0,0.0666666666666666,7.319989917631693,47.357112289220765,2.4372348990621333,3.829940555669083,11.495095856712148,12.191147429406845,13.931408091426647,27.505936717987026,23.675996162317944,20.02014381372473,18.453349950041925,19.1497027783454,4.874469798124281,8.704410353793364,4.526293383972558,2.4372348990621475,4.886888849584911,4.886888849584911,4.700381591048412,13.578880151917645,10.097116010400299,19.525837609269324
3,4,3,0,0.0999999999999999,6.962557694684662,46.6543322036269,2.806696736097352,3.845198167039343,11.145530482339991,11.841466501994915,14.273243274103535,27.858932616407206,24.023346580042247,20.539545199319733,19.147033660382803,19.843289429851268,5.221918271013493,8.355069233621577,4.177534616810789,2.785023077873859,4.539032286955029,4.886207706751486,4.699726443912127,13.57698750463507,10.443836542026979,19.855500686040735
4,4,4,0,0.1333333333333332,7.414895530364447,46.303315300898085,2.846704711547864,4.251769800987992,11.320935059751191,12.025821033291143,14.128023472905408,28.619920734690947,24.37346052283349,20.655780406015253,18.360693694235778,20.479235274339914,5.296353950260325,9.180346847117889,3.8839928968575634,2.4716318434548157,4.590173423558937,4.251769800987989,4.413628291883597,13.417430007326146,9.533437110468576,19.44883223172175
5,4,5,0,0.1666666666666665,7.44213080787479,46.47338966495416,2.5058957908217034,4.620643529764774,11.716235308240053,12.449032029552425,13.821100071767475,28.359832801830375,23.7465856821212,20.02287574499647,17.719359066368554,19.845682154332778,4.961420538583198,9.568453895839014,4.252646175928447,2.480710269291606,4.2526461759284615,3.962169139012731,4.07545258526477,13.821100071767475,9.56845389583902,19.89624448380723
6,4,6,0,0.1999999999999998,7.799867483789466,46.109285743886105,2.504386517974001,4.264816562419628,11.70917875150179,12.441534117591662,14.166949516572643,28.707742346747935,24.44825166619009,20.54207679903034,17.7086868957158,20.187903061116018,4.781345461843273,9.739777792643679,4.42717172392895,2.3021292964430558,4.250084854971803,4.264816562419628,4.250084854971803,14.521123254486966,9.562690923686539,19.912629027371928
7,4,7,0,0.2333333333333331,8.233368496861118,46.2463951505213,2.177461973514996,3.9539359754507593,11.505351149162962,12.192105497921276,14.323375691516576,28.65793234883223,24.71047932787006,20.583421242152824,17.898627167089415,20.40443497048193,4.832629335114149,9.486272398557375,4.8326293351141345,2.3268215317216203,4.653643063443241,4.354923947029964,4.295670520101453,13.960929190329729,8.9493135835447,19.38347776118301
8,4,8,0,0.2666666666666664,8.679203978709552,44.91394883523208,2.199730698104568,4.715123954437296,11.623015429487255,11.98311766083187,13.746830478278348,29.312397292984986,24.60171191982368,20.251475950322288,17.720041456532,20.251475950322273,5.243685737137014,10.306554724717586,4.520418738911218,2.712251243346728,4.35464398242756,4.399461396209141,4.339601989354776,14.465339964515906,8.679203978709538,19.97186276805312
9,4,9,0,0.2999999999999997,9.048067257048858,44.533810921331195,2.199730698104568,5.075768037754036,11.233945438349599,12.343309428509993,13.742072966290124,30.03518066236729,24.963191368457718,20.432292699878744,18.081674955644885,20.251475950322273,5.424502486693456,10.849004973386926,4.701235488467674,3.2547014920160677,4.701235488467674,4.399461396209141,4.520418738911218,14.826973463628804,9.040837477822436,19.97186276805312
10,4,10,0,0.333333333333333,10.16655462293031,43.63984270640817,2.207190570197638,4.731114194348667,10.940090423771467,12.023755601241122,13.793449638133392,30.87722366806236,26.14858131492936,21.045873882764667,18.505854621051697,21.408733777295097,6.168618207017232,10.885796835912771,5.080038523425969,3.6285989453042475,4.717178628895539,4.414381140395276,4.535748681630309,14.151535886686588,8.708637468730203,20.01000421292557
11,4,11,0,0.3666666666666663,10.669121876192634,42.36613208164774,2.2378529234375684,5.16373315686618,10.694464244143404,11.458203877607051,13.6123279110044,31.648019549216958,26.491409056458174,21.154293375209534,19.13083922627645,21.33824375238528,6.622213578326466,11.404923384895582,5.150610560920583,4.414809052217649,4.0635966503075105,4.113255478516689,4.0469082978661675,15.083930928410282,9.197518858786758,20.720358615288298
12,4,12,0,0.3999999999999997,11.3565304394278,40.82839016747475,2.2283573493916826,5.180825602884389,11.045005006811891,11.814100068266452,13.554568588994456,32.25662070024751,27.111612333180375,21.43087195827502,19.782343346100006,23.445740262044467,8.059473215077773,10.623851056238891,4.396076299133341,5.495095373916669,4.762415990727774,4.456714698783394,4.396076299133341,14.287247972183344,8.059473215077787,20.26822142814774
13,4,13,0,0.433333333333333,11.825601870893152,40.450119540898,2.2478852487029104,5.226227046575544,10.406624133187881,11.877456159476127,13.673352163220201,32.90863501414915,27.718717942475667,21.80345344945924,19.955703157132177,23.65120374178629,8.13010128623904,11.086501753962324,4.804150760050334,5.543250876981176,4.06505064311952,4.1316952590884,4.24982567235223,14.78200233861643,8.869201403169853,20.409069048365613
14,4,14,0,0.4666666666666663,10.594318609936437,37.741424363338695,2.5832119072885766,5.127529230180242,10.287542097177845,11.377868205616371,13.53662195651168,31.816530861835925,26.690967498379404,21.371297885561447,20.092673225741535,23.01524387675849,8.037069290296614,10.22899727855932,4.018534645148293,5.114498639279674,4.018534645148307,4.035105992339777,4.018534645148307,13.882210592330509,8.402390621673725,18.324424757694924
15,4,15,0,0.4999999999999996,7.4698773548415955,36.3754779805886,3.7488837365486876,6.352435790991939,10.87553794260059,12.029787468788264,13.434183406370721,30.997247180624516,24.645260276601668,20.889560941980307,20.516533068016372,24.246811807655718,8.952668975134415,8.579641101170495,1.1190836218918037,5.222390235495084,3.7302787396393455,4.170578418427908,4.10330661360328,15.294142832521295,8.952668975134415,18.74441868274351
16,4,16,0,0.533333333333333,2.9972849402274306,35.04428897525274,4.927891034766636,7.1578810474382335,10.143551346226394,10.923140188506496,13.86750490563073,28.90962509887778,21.75936489643571,20.231673346535104,20.60633396406351,24.352940139347794,8.61719420315383,6.369230497983267,1.8733030876421424,3.7466061752842705,4.121266792812705,3.911571683814481,3.7466061752842705,14.611764083608684,7.493212350568555,19.199300473874853
17,4,17,0,0.5666666666666663,1.8838670615831374,32.49959444009985,5.224907143612086,7.793698198999958,9.302682692116198,10.144934601357424,13.6898549750012,28.56548052752704,20.77188103883035,19.765934906902032,21.797946906677012,26.60088436069057,10.529516726106692,4.248752363165863,4.61820909039767,4.987665817629491,4.433480726781767,4.569927331415346,4.433480726781767,14.408812362040742,7.019677817404464,18.56497078033057
18,4,18,0,0.5999999999999996,2.264868001065112,32.0170826440237,5.634556979767104,7.854563216133308,8.636408411862055,9.794788916611527,13.796766127618547,29.5302658400205,21.67593391732252,20.478810316547822,21.595836333814063,26.436282408634455,10.239405158273897,5.398959083453519,3.5372490546764226,4.28193306618725,4.1126518754321735,4.245352046944462,4.095762063309564,16.38304825323825,8.936208138129956,18.0115033255117
19,4,19,0,0.633333333333333,3.3659188179561363,31.351161939266436,5.624895416911046,8.62159958074693,9.043937746904295,9.410782271270152,13.401962149658752,30.99437088496925,22.379517366001494,20.62954711995718,21.930509550945473,27.506062826609565,11.336958327183666,6.133108603230511,3.531183741253926,5.017997948097687,4.4759034732003125,4.959143918369983,4.64629439638675,15.611549171859487,7.434071034218796,19.82612528606211
20,4,20,0,0.6666666666666663,4.877792753014173,31.695719181234484,5.661305934546783,8.677408067894872,8.677408067894872,10.2726988419573,13.488714407796152,32.68485138633731,24.015973224273615,21.51130352038797,22.4465775864918,28.806441235997823,12.158562859349715,6.921028089168317,2.8058221983114606,6.172808836285242,4.132175884051763,4.627480516136371,4.302260704077597,16.086713936985788,7.1080829023890715,18.839679401306622
21,4,21,0,0.6999999999999996,8.596480679285225,32.50596532375428,4.483746885717562,7.854835466639146,9.375657111575185,10.531787321917758,13.080208500609263,34.014982935829664,26.160417001218523,21.782762332526957,21.968939788360515,27.55426346336742,11.729179717514498,9.12269533584464,0.18617745583357248,6.888565865841841,3.742120549168093,4.24549919697819,3.9097265725048373,16.383616113353618,7.447098233342558,18.381665192558046
22,4,22,0,0.733333333333333,11.938606672867154,35.44419784927442,4.529893009322611,6.794839513983921,10.531787321917758,11.638697182118529,12.709253714623408,35.93948312288842,29.16040619449729,23.086004523361908,22.341294700027646,27.92661837503455,12.473889540848774,10.612114982513134,2.792661837503445,7.260920777508986,4.112794425886302,3.887499407903105,3.9097265725048373,16.75597102502074,6.702388410008297,18.11957203729044
23,4,23,0,0.7666666666666663,11.810547630174451,39.81226876335428,4.108420439160929,5.62118402484754,11.121608714750687,12.264856465356802,13.310267759425042,34.82234732744345,29.217773657563157,23.150502602925656,20.578224535933913,26.825185555770986,10.472846415609226,10.840314710893765,4.2258853957721385,6.063226872194818,4.0588199837880445,4.189783197865004,4.042151248129883,16.168604992519498,6.246961019837073,19.33316322211248
24,4,24,0,0.7999999999999996,11.422529002751615,42.80083425321982,4.1110581447821914,5.624792961401173,11.493330480300346,12.223054600911155,13.364417105487068,34.479991440900996,28.871221140117207,22.981513677967897,19.48832359891678,26.106999538171536,9.560309690034643,11.398830784272079,4.412450626169829,5.147859063864814,3.3297033185819567,3.838944749387277,3.493190079051118,16.178985629289393,5.515563282712293,19.76730822578822
25,4,25,0,0.8333333333333329,11.108999019366898,44.606763641999336,3.3970539933791137,4.8463640941011565,11.517023915901229,12.298030965781049,13.71253892910863,33.04266148952947,28.198798151140576,22.476196579561957,19.160036428479046,25.055432252626446,8.474631497211874,10.685404931267158,4.790009107119758,4.790009107119758,3.702999673122308,4.201115899953097,3.8688535095967325,16.949262994423762,7.0007825411750275,19.332859400457345
26,4,26,0,0.8666666666666663,10.348979413223779,44.17686091895398,3.388210564201741,4.903102028034141,11.487042059406487,12.216366921298143,13.275967641576383,31.862746218433845,26.988337932826376,21.682679031909558,18.375151721957252,24.622703307422725,8.268818274880758,10.106333447076508,4.226284896050174,4.593787930489313,4.108808834716873,3.61948512791973,3.491278827171868,16.537636549761523,6.247551585465459,18.971843612524175
27,4,27,0,0.8999999999999996,8.823397814520689,44.403579274074225,3.377779740177616,5.245643766354125,11.504303250896625,12.178758050433832,13.600236871210019,30.992529950807143,25.77392678684067,21.249555857972055,17.95221098345914,24.1805290797613,7.51061888083494,9.70884879717687,3.4805307008747235,3.4805307008747377,4.0467071707963385,3.4757066781809587,3.4805307008747377,16.120352719840866,6.228318096302154,19.637657291352696
28,4,28,0,0.9333333333333328,6.9704828231086555,44.27201954144521,3.720772346496097,4.867729430502272,11.76611526989691,12.128234015244448,13.54381577774387,29.05328910349779,24.215273885792993,20.614123658148685,17.512883815772327,24.08021524668696,7.297034923238471,8.02673841556232,2.1891104769715497,3.2836657154573174,3.666714669076102,3.461287578483834,3.4660915885382764,16.053476831124634,5.837627938590771,19.195501900264468
29,4,29,0,0.9666666666666662,5.16170749228072,44.26082723693869,3.390546771748575,4.304478673583943,11.184875215880002,11.547786193570161,13.32070450520587,26.05885849441448,21.84980822699359,19.12333444972559,16.549039427647145,23.168655198706006,6.619615771058861,5.884102907607883,0.3677564317254962,2.574295022078445,4.0620025548006415,4.193068458755549,3.8614425331176676,15.81352656419616,5.516346475882379,19.045380936815143
30,4,30,0,0.9999999999999996,2.6115091064094944,42.98927924132638,4.129158453262529,4.927385527212257,11.232525385589188,11.596982448447298,13.341719271354782,24.96690118727956,20.066180706632732,18.650819562553053,16.988865344107737,23.636682217889017,7.017140033435808,4.431877915854187,1.4772926386180671,2.585262117581621,3.404991289542691,3.5037071314748323,3.3239084368906475,16.619542184453216,5.909170554472247,19.12651868902958
31,4,31,0,1.0333333333333328,3.036295265136994,42.19120303905616,3.7549677868472124,4.912465881938998,11.198514388611134,11.561867910846095,12.934424967534545,24.578882705571257,19.684330952118696,18.042039363159006,16.569219823309282,23.56511263759542,7.179995256767356,4.234356177067923,2.025126867293366,2.7615366372182137,3.394681306303521,3.626397553921655,3.3138439646618565,15.832810053384428,5.891278159398858,17.981823794732712
32,4,32,0,1.066666666666666,4.406821568998418,40.79173584833565,4.091631107705442,5.328554299820621,11.130439968816036,11.491584708765402,13.255874471181228,27.017161347914964,21.74346821995909,19.39623042684613,17.566397367709712,24.153796380600852,7.6852988483729945,5.855465789236575,0.7319332236545648,3.293699506445563,3.374045447626497,3.4718641228468203,3.293699506445577,16.10253092040056,5.855465789236561,18.89252788779985
33,4,33,0,1.0999999999999992,5.930983662516439,39.71738375236335,4.500813565170861,5.6593700842840775,10.464178987545255,11.617123960829113,13.768450031162102,29.827499313594675,24.18674494970286,21.08798197668264,19.60812359235402,25.897521725750607,9.064132604012713,6.844345027519793,0.1849822980410778,3.884628258862591,4.1363299305397145,3.9846406454146623,3.884628258862591,16.648406823696817,6.65936272947873,19.098918379688964
34,4,34,0,1.1333333333333324,2.3358047543165474,39.53828236916362,4.0793076303924165,5.223018212818993,10.080560461185197,10.811773859659477,15.949459145051556,27.531301393163965,22.30968683649559,21.051420100307396,21.05142010030741,26.591267495125138,7.940447932572084,3.508570016717897,2.400600537754343,3.508570016717897,3.711651818527258,3.855846987632456,3.6932315965451608,16.250219024798703,6.647816873781288,18.701031116049414
35,4,35,0,1.1666666666666656,1.8923584731409624,38.944832157732485,5.616095397327167,4.231442183740909,9.344613945622058,10.129660067568823,15.657655600801094,27.344919924650704,23.155754526725072,22.081760787879844,22.267321802904036,27.46303022358164,9.278050751210017,2.226732180290412,2.5978542103388094,3.340098270435604,3.729730242244312,4.231442183740902,3.896781315508221,15.958247292081232,5.937952480774413,18.737068860050925
36,4,36,0,1.1999999999999988,1.8671214698652159,38.33462118293579,5.541197633530874,5.541197633530857,9.548614391219925,9.994568187285095,15.448840880283566,28.387237737312542,22.846943135470365,21.787272466957774,22.702704083216503,27.096775841258392,9.520488809090793,3.295553818531431,2.929381172027931,3.661726465034917,4.044509075249966,4.175010528867954,4.027899111538417,16.47776909265714,7.323452930069841,18.849890680731658
37,4,37,0,1.233333333333332,0.8162734966560008,38.622763506806535,5.487883876751002,5.226700610812029,9.554236323432185,9.916967146775598,15.764859757097067,27.212653510464737,22.012158476638067,21.537867715700088,22.26796492640179,27.013596795962812,8.943690831095807,2.3728159347805047,3.4679617508330693,3.102913145482219,4.032093634920842,4.16219448787752,4.0155346588593375,16.427187240788207,8.031069317718682,18.068984101439383
38,4,38,0,1.2666666666666653,0.513080323406599,38.74520889952279,5.816167745802351,5.490199212375928,9.822507052421042,10.21661330103434,14.552861093125781,26.244948769156448,20.759156334087972,20.498345542541728,20.679746830528828,25.396180318193302,8.525860535393477,3.083821895780602,3.0838218957806163,2.7210193198064303,4.0072854296004365,4.487620025963279,4.172229623703188,16.32611591883856,7.981656671432184,18.67640568213799
39,4,39,0,1.2999999999999985,0.8149767082984984,39.135856996740046,5.515411698700626,4.793836815473589,9.867614673320338,10.625996233847575,15.014162637404853,26.084347772654006,21.29258251453192,20.77471384611313,21.503651174046936,24.78386914974901,8.200544939255195,2.7335149797517175,2.7335149797517317,2.3690463157848285,4.0256879729663,4.508228396289798,4.1913896356193305,15.672152550576584,7.289373279337944,19.402608367875494
40,4,40,0,1.3333333333333317,1.091884100470125,40.141490383788906,5.147191011414655,4.787164363316698,9.85388012428481,10.579950646210426,15.355546888375274,26.366482815908533,21.584474091137032,20.927778592344055,21.837682009402485,24.74937294398947,8.007150070114236,2.911690934587,2.5477295677636107,2.9116909345869857,4.0200846928731,4.149798061375052,4.003575035057139,14.92241603975836,7.643188703290868,17.92671382283689
41,4,41,0,1.366666666666665,0.35790146267683554,39.8879534349132,3.953150863845006,4.35405921341915,9.33292830523346,10.04677282042044,17.212790767598378,25.53420639181577,21.191877222031962,21.116186297933197,20.75828483525636,24.337299462024703,5.368521940152519,2.86321170141467,1.7895073133841777,1.4316058507073421,3.5968651845194235,3.736600970333559,3.579014626768341,13.600255581719694,6.442226328183018,18.378858671654626
42,4,42,0,1.399999999999998,7.1256521780622,41.075801079952235,4.680319324461774,5.704518525216513,11.053914213931035,12.119408600662892,14.251304356124443,31.741475584560522,26.037040377833886,22.41779960343939,21.35028533660895,24.908666226043778,8.89595222358706,8.540114134643588,2.1350285336608863,3.9142189783783152,3.914218978378301,3.6288507184047565,3.5583808894348294,14.589361646682782,8.184276045700095,18.558244202424493
43,4,43,0,1.4333333333333311,10.272971528877534,43.3101443467686,4.265619250697214,5.00971574552111,11.357811167374653,12.41863972518396,13.126028872304902,32.63821157496834,27.651180402260387,22.49426524426633,20.900183455302567,23.734106635682565,9.21025033623502,10.27297152887752,4.250884770570025,4.95936556566501,3.542403975475011,3.612557399195147,3.5424039754750254,14.169615901900052,8.147529143592529,18.828135393455142
44,4,44,0,1.4666666666666646,9.65950456359856,44.414071564942226,4.307993992105481,5.735319937957541,12.169080592327504,12.899199629493717,12.88430734094612,32.573794569654744,26.841495677086034,22.00220483930785,21.107806268604264,23.254362838292835,9.30174513531712,10.375023420161426,3.935353711095729,5.008631995939979,3.2198348545328628,3.6484446119575935,3.3987145686735687,13.9526177029757,8.586226278754275,19.757910213354453
45,4,45,0,1.4999999999999978,8.122139366454775,44.164656727011234,3.5313649419368573,5.308805579233226,11.658853633579666,12.717817518750419,12.364821074706459,29.318837096344527,24.01587805666821,19.952211921943245,20.128780169040084,21.541326145814836,8.475275860648452,8.475275860648452,2.8250919535494887,4.590774424517903,3.5313649419368573,3.54897784392522,3.707933189033696,13.41918677936006,9.534685343229519,18.769462125384013
46,4,46,0,1.533333333333331,5.315807719910566,43.956869428323856,3.898258994601079,4.6070333572558155,11.700145254448032,12.40861298769967,12.403551346458002,26.224651418225463,21.617618060969647,18.959714201014364,19.845682154332792,20.908843698314897,7.973711579865835,5.847388491901626,0.8859679533184419,4.429839766592124,3.543871813273711,3.267288373342421,3.366678222610034,12.757938527785356,8.505292351856902,19.520268753101437
47,4,47,0,1.5666666666666642,3.178605039754487,41.33544706705738,3.5317833775049934,5.297675066257483,11.307223872932337,12.013256159860646,12.013256159860646,24.018723726188085,18.721783475404727,17.129149380899207,19.424808576277442,20.484343589528933,7.9465125993862245,4.061550884130739,1.5893025198772506,4.414729221881231,3.1981658707779563,2.9123831824507596,3.002015870879248,12.361241821267463,8.476280106011977,18.74841475981335
48,4,48,0,1.5999999999999974,3.8747067035445624,40.71692348262586,3.1571951589122023,5.273672283143481,11.231062691297984,11.947799154166272,11.932339411886709,24.20770477661357,18.95615907358221,17.01377391191575,18.9431709534732,20.346368801878626,7.717588166229817,4.560393007317629,1.7539973105067759,4.560393007317614,3.176624235579217,2.892766471307488,2.9817954278615133,12.277981173547445,9.120786014635243,19.657294437365618
49,4,49,0,1.6333333333333306,3.494773542647806,39.51567504579546,3.5122039427594487,5.591637668236487,10.839433248119692,11.205096382269142,12.581184753532114,25.164796316107523,19.57385192363652,17.823345067503823,19.570731838827726,20.968641255886837,7.688501793825168,4.8926829597069315,1.3979094170591253,4.543205605442154,3.5122039427594487,3.563983697909789,3.494773542647806,13.280139462061669,10.13484327367864,18.176182470317578
50,4,50,0,1.666666666666664,2.7938574721328706,37.77523639542468,3.5097400122593014,6.286179312298941,10.482784440980444,11.19723562612193,12.92159080861451,25.496341322267075,19.210944696610017,17.810841384847024,19.557002304930066,21.652395409029708,7.683108048365369,4.889250576232513,2.0953931040996423,4.190786208199299,3.4923218401660705,3.5097400122593188,3.3177057481577776,13.969287360664325,10.127733336481633,16.777689863588087
51,4,51,0,1.699999999999997,1.3971587974969282,36.01920361892793,4.206004950412728,6.985793987484598,9.430821883104244,10.484510860032303,13.626775612864808,26.196727453067282,19.210933465582684,18.51235406683422,20.608092263079598,22.35454075995075,7.859018235920189,4.715410941552108,2.6196727453067297,4.016831542803644,3.162952752617899,3.2202919118551963,3.143607294368067,13.622298275594986,10.478690981226912,17.14724289074913
52,4,52,0,1.7333333333333305,1.4305907939952514,33.672108205525745,4.869945246178485,6.948053464038977,9.37459242878978,10.068088190286153,14.225738528107343,27.412765278876105,20.47118471117885,19.777246246393133,22.206030873143163,23.246938570321745,8.500746193625105,4.684084637303641,2.949238475339314,3.9901461725179104,3.8166615563214776,4.17806282778961,3.9901461725179104,13.878769295714477,10.409076971785858,17.01564850326419
53,4,53,0,1.7666666666666635,2.4375892307296003,33.181669413466665,5.5156347993478505,8.62507116186687,9.314015372728734,10.364771581682971,13.444359823410409,29.99918793737068,21.375864724554013,20.166539735115606,23.441447897228386,25.85453812194308,11.203633186175324,5.343271211868242,4.309089686990504,5.6879983868274735,4.136726099510895,4.151064881151569,4.136726099510895,12.75490547349191,9.3076337238995,18.963128247211138
54,4,54,0,1.7999999999999967,4.148723691265063,31.47340141196874,4.823458496103626,6.890654994433746,9.3087622920813,10.01518243508399,14.474476487539667,30.326711254393143,23.438358106729257,21.36103048274461,23.42822698107473,26.184488978848222,10.335982491650611,5.512523995546999,2.7562619977734926,5.512523995546985,3.805488602920261,3.851993244263069,3.7898602469385594,12.058646240259058,8.613318743042186,18.60795832956975
55,4,55,0,1.83333333333333,8.364549245191169,33.80611894837775,4.178648896190083,6.616194085634305,9.756397003711355,11.14850334454867,14.98967944152871,34.14161863586068,27.529266779394085,23.330789670394637,24.72367263579133,26.116555601188026,10.446622240475207,8.705518533729347,1.0446622240475278,6.267973344285124,3.8462238018742023,4.236288155502844,4.0045385255155,12.535946688570263,9.4019600164277,19.51279400742274
56,4,56,0,1.8666666666666631,11.605625605214854,36.96883419083936,4.585419536933221,5.9786556148076215,11.25393998081438,12.314019909460104,14.071820359651577,36.23044751675904,30.253141328356534,24.44215089583126,25.321364956832383,27.07979307883464,12.133154041815516,10.023040295412812,3.341013431804271,7.912926549010109,4.234855708219635,4.23485570821965,4.044384680605191,13.012368102816637,9.495511858812144,19.345906219881787
57,4,57,0,1.8999999999999964,12.320201855840821,39.782881408733346,4.224069207716852,5.984098044265551,11.616190321221353,12.677095649416499,13.728224925079786,36.25659403290301,30.27249598863746,24.11239506071705,25.344415246301125,26.048426780920607,11.968196088531087,10.560173019292137,3.8720634404071177,7.744126880814235,3.8720634404071177,4.23871073934056,4.224069207716852,12.672207623150562,9.856161484672661,19.373113183077013
58,4,58,0,1.9333333333333296,12.055813088789659,40.05209847560397,3.8987241821011196,5.316442066501523,10.98731360410315,12.410093733761617,13.827292593855843,35.09567709983719,29.780513173703707,23.74677456370678,25.518921919207287,25.87335139030739,11.873387281853397,9.39238098415268,3.367079975450963,7.974663099752277,3.9148014634313633,3.9626419530456105,3.8987241821011196,12.405031488503539,9.92402519080283,19.15231395821791
59,4,59,0,1.9666666666666628,11.706836871994225,39.361072187465524,3.90048851036525,4.964258104101219,10.992285801938408,12.056055395674377,13.162880137010811,33.71588411137607,28.756778926910286,22.871046265323486,25.175880385084753,24.821290520506096,11.878760463385063,8.68745168217714,3.0140138489185944,7.978271953019814,3.9165730673068166,3.9165730673068304,3.7231935780759216,10.637695937359759,9.928516208202439,19.505665829685075
60,4,60,0,1.999999999999996,10.420610121069286,39.170203917049946,4.309415284932967,5.398726432990641,11.13844687155003,11.856331965930936,13.721877236101527,33.82578376253621,28.427082960688324,23.163107156514727,26.93384553083108,25.49737376918675,12.569127914387835,7.541476748632704,2.154707642466491,8.618830569865949,4.015060633494475,3.9665872995891274,3.9502973445218856,9.337066450688106,10.05530233151027,20.113810817630455
61,4,61,0,2.033333333333329,9.998917373289707,38.648276348955264,4.297364108779831,5.046998190584596,10.374006258847334,11.086176992095252,13.324457566005325,32.634219688270505,27.592821187620395,22.483229864751223,27.836379832549127,24.98136651639024,13.204436587234838,6.066903296837637,1.0706299935595922,9.278793277516371,3.725901763464996,3.586566090505087,3.5687666451985933,7.851286619436934,10.706299935595823,19.324138174477646
62,4,62,0,2.0666666666666624,9.358101107997395,37.935290018046075,4.330892459800541,4.798476806243025,10.1281469157091,11.172672160821875,13.072083327966862,31.49653419607998,26.733728919104443,21.939323593663886,28.053561316488256,24.456950891297453,13.307458573205977,5.035254595267105,0.3596610425190647,9.351187105496095,4.209724572262414,3.614548743079431,3.5966104251907893,7.912542935419758,11.86881440312964,19.54121555516575
63,4,63,0,2.099999999999996,7.267651380320865,36.15109959748781,4.37024617536567,5.196355211257169,9.464035412037253,10.22017880443001,13.030118308754822,29.77346857489028,24.585606659070276,20.68696387059616,26.856760112703782,22.864539014869436,12.158127888859141,4.536614883902672,0.18146459535610404,8.165906791024796,3.789091992066359,3.6473932259318107,3.4478273117660336,8.347371386380907,12.70252167492746,18.928070824074478
64,4,64,0,2.133333333333329,5.422390979922146,36.089237653413655,4.3147644215955365,4.780607506098711,9.378175886709478,9.734222497415846,12.789624735177426,27.274847643727977,22.503058076118712,19.528531660674872,25.799161093001672,21.499300910834734,11.10797213726461,3.2248951366252214,1.074965045541731,7.524755318792145,3.8592426214340594,3.244740832471964,3.224895136625207,7.5247553187921525,11.824615500959098,19.112355866162364
65,4,65,0,2.166666666666662,3.6525843406278344,36.42913261494838,3.599517340648396,5.1281475652547455,9.729975890191174,10.442224983298527,12.859084254914952,25.216978181545077,20.08921387345308,17.908268103754565,25.42974070733149,21.131756362430394,10.74496086225274,1.4326614483003652,2.8653228966007305,7.521472603576925,3.527519720606396,3.223488258675829,3.402570939713371,7.5214726035769175,11.81945694847802,19.37075367085302
66,4,66,0,2.199999999999996,4.064906311086576,36.352383068252394,3.5829401282155593,5.104530401193288,9.685165472006313,10.436845995521418,12.452563915130078,25.174160761064027,20.06965854879169,17.647535455457643,25.31262661287863,20.32140446386032,10.695476033610689,1.7825793389351219,2.852126942296181,7.4868332235274835,3.3822064925953343,3.208642810083205,3.3869007439767245,7.843349091314508,11.765023636971762,18.925587000321187
67,4,67,0,2.2333333333333285,7.547881118789421,36.00378351374477,3.2510289945820396,5.14032818106323,10.865798660571077,11.221765743286342,12.190697933523488,28.03545614757054,22.901174794549494,18.84834489222662,26.208174802524624,20.463917311560323,11.488514981928603,4.308193118223215,0.0,8.97540232963172,3.866721660432466,3.5901609318526937,3.5901609318526937,8.257370143261177,12.924579354669675,20.184879659779202
68,4,68,0,2.2666666666666617,11.213903601642393,35.84461746632525,3.2739814062340047,5.829830881301374,10.584240350202245,11.30099191667058,12.904880770949358,33.14061939063257,27.310846800148415,21.512270400350076,27.47785799036312,22.05459654489671,12.111950561541633,8.134892168199613,2.7116307227332044,9.581095220323988,4.122312949338944,3.6871087916998206,3.796283011826489,9.400319838808429,13.738928995181553,19.577231005844762
69,4,69,0,2.299999999999995,12.092337709765994,35.40655450411716,3.550432602187371,6.478931519680337,10.351200854622478,11.411203059950875,12.672607584174544,34.70173282323712,28.229846625766623,22.012682133561626,27.33833103684266,23.077811914217833,12.781557367874498,9.231124765687127,3.195389341968621,9.586168025905877,4.048116001484808,3.9695043240112127,3.9054758624061066,9.231124765687134,14.201730408749434,18.900843920846665
70,4,70,0,2.333333333333328,12.002855297072921,35.54041635077848,3.195396955843328,5.744349134132592,10.63897608211697,11.730027490705096,12.475929083036345,33.35719094587589,27.634675755973113,21.525226297170605,27.17118729314977,22.9367165461654,12.703412240953142,8.116068931720065,2.822980497989576,9.880431742963566,4.263775392471136,4.2491483325784785,4.234470746984385,8.468941493968764,14.114902489947937,18.8646609072942
71,4,71,0,2.3666666666666614,10.314537110058552,36.180570470515285,3.213130128870459,5.776227970637558,10.34500848253012,11.442951517843788,12.89652775272484,32.17241871980808,26.410478553030106,21.11243638468987,26.257483907009245,21.28985181649398,10.999756771855218,8.161109862989377,2.8386469088658686,8.515940726597577,4.15318877759586,4.316703763499034,4.0805549314946745,8.515940726597584,14.193234544329314,18.926160712957724
72,4,72,0,2.3999999999999946,6.107811100389301,36.73708722288528,3.586018069962171,5.108915472295928,10.799397419867018,11.507168072540422,13.27934559156502,28.059926377365635,22.972806482108464,19.803628461294636,25.334371545079634,20.33886166295126,9.634197629819013,4.995509882128388,0.3568221344377491,7.136442688754826,4.176496005096219,3.9893927423967948,3.925043478815155,8.563731226505787,14.272885377509645,18.677857950302908
73,4,73,0,2.433333333333328,2.1776154559284397,37.372635923549666,3.954214675902742,6.601152817266436,11.18993619429528,11.948762356267858,13.065692735570657,25.778325825832738,19.188814358053595,17.8998887847565,24.701846522963976,18.615884336146763,8.770945504530687,3.7589766447988637,2.326985542018349,5.906963298969643,4.190256533216596,3.597833118373998,3.5799777569513083,8.591946616683117,14.319911027805198,19.542875276169788
74,4,74,0,2.466666666666661,1.810372512024934,37.00804454641759,4.275286997486684,7.180305571515761,10.745558916599107,11.499236789520431,11.559371073910283,24.80733779694606,17.627459870467337,16.509511600171223,23.077811914217833,17.397119750718062,8.876081505468406,4.260519122624828,2.8403460817498853,5.680692163499771,3.8239329398804665,3.568140605315566,3.550432602187371,8.876081505468392,14.201730408749434,18.937489638362855
75,4,75,0,2.4999999999999942,2.1473359236514002,36.04607549146001,4.589258066285126,7.4886819214275535,10.292208852899757,11.384548124261217,11.493493650809087,25.661410975624246,18.172809104620352,16.944952860129703,23.65233003393105,18.357032265140518,9.70804590944931,4.412748140658778,2.6476488843952666,6.177847396922289,4.465387156849543,3.8992317033198503,3.883218363779733,9.178516132570266,14.473813901360806,19.882258543247502
76,4,76,0,2.5333333333333274,2.5850961319404093,36.55878009828345,4.6161734130838,7.844200286992651,10.70583891854247,11.451316882192211,11.910089477979941,26.86745366280296,19.03297056831253,17.576967995972964,24.146137853053773,19.174874177425053,9.942527351257425,4.971263675628734,2.840722100359258,6.036534463263436,4.491576018356344,3.5686129728474905,3.905992887993989,9.587437088712534,14.20361050179634,20.35196982138551
77,4,77,0,2.5666666666666607,3.5665674005505594,36.88944610938104,4.273402009583986,7.1771397515023025,11.052884096532694,11.796981213135572,11.444752848278826,26.45513287465435,19.28181560689337,17.389449304198067,23.42252355259332,18.45410946567958,9.581941453333627,5.323300807407577,1.7744336024691876,6.387960968889075,4.153842565679813,3.566567400550562,3.548867204938375,9.58194145333362,14.195468819753515,19.245857285920653
78,4,78,0,2.599999999999994,3.599953200912584,36.742999002200534,3.883048996427192,7.446637119621978,10.642952575857748,11.734411783003125,11.433203391434274,26.314818792760132,18.871711887147946,16.944213802591435,23.298293978563223,18.003227165253406,9.354618036847342,5.47156904042015,1.5885200439929434,6.177577948861455,4.024870036529227,3.547650858619234,3.7065467693168728,9.178115809737022,13.767173714605534,19.571860739506587
79,4,79,0,2.633333333333327,3.901128228732439,36.66733952354796,4.252989509096256,7.450584006359947,11.351688653573106,12.091331167688548,11.499083906645842,27.073923901447802,19.62995321238955,17.48298195249312,23.66383415791998,19.072343948174307,10.065959305980883,5.474469096235225,1.5893619956811875,6.5340437600226835,4.467559051434021,3.901128228732439,4.061702877851928,9.889363528682978,14.48085373842865,19.18971332641586
80,4,80,0,2.6666666666666603,4.304689470530909,37.11307305644859,3.948550913069126,7.541154393371399,11.489681438260826,12.593420869695333,11.931647717410877,27.713735190530766,20.174953630519457,17.874250135079066,23.95149518100594,19.304190145885386,9.830837574293483,5.898502544576104,1.6086825121571167,6.6134725499792495,4.421845277138496,4.3046894705309064,4.11107753106819,10.367065078345846,14.656885110764819,20.098797509847508
81,4,81,0,2.699999999999993,3.6055512754639767,35.652839999080015,4.242640687119291,7.106335201775963,11.011357772772625,11.715374513859992,12.150102880222862,27.05780848479788,19.953069939234904,18.03122292025695,24.04163056034261,19.445436482630058,9.722718241315022,5.1265241636024825,1.9445436482630072,6.540737725975561,4.373213921133983,4.257346591481607,4.242640687119291,9.899494936611667,14.142135623730951,19.52562418976665
82,4,82,0,2.7333333333333267,3.580006376670506,35.87795935903467,4.289504368268915,7.514552427905414,11.065900731529418,11.803866345685565,12.241878423503039,27.615972992859852,20.10378502797389,18.16742137847791,24.223228504637206,19.94854112146595,9.974270560732961,5.343359228964104,2.1373436915856274,6.412031074756911,4.752620253785871,4.289504368268915,4.452799357470084,9.974270560732968,14.248957943904237,20.38273465679556
83,4,83,0,2.76666666666666,2.8849395810101623,35.684731848090024,4.308876483906309,7.236718808013139,10.758810524056342,11.500857029483042,12.961252205967714,27.38530964790735,20.153321503927256,18.60730119229781,24.332624636081746,20.038632053243802,9.303650596148898,5.009658013310954,2.146996291418972,5.725323443783935,4.774083877839519,4.3088764839063245,4.4729089404562075,9.661483311385403,13.955475894223362,20.50915327670122
84,4,84,0,2.799999999999993,2.549544175875099,36.27348240339205,4.3417172827974415,7.606021429904981,10.4810765682769,11.229577231219764,12.74772087937549,27.23600610590276,19.633145632603064,18.208279754529087,23.796959679186543,19.830799732655436,9.19427987604935,5.228119929518243,2.3436399684047444,5.5886799246574554,4.810470330110086,4.386401656714341,4.326719941670262,10.09567986389731,14.061839810428395,19.883175656775837
85,4,85,0,2.8333333333333264,3.2447408324719467,35.69214915719146,3.957792336288551,7.558804159284608,10.773512084013374,11.873377008865637,12.978963329887792,27.739282706970975,20.180860353483247,18.45356661513314,24.365874365612697,20.42433586529299,9.495524568952007,5.195664386785069,2.329090932007091,6.2706294323268,4.780607506098711,4.31476442159552,4.299860182166938,9.674685409875629,13.61622391019533,19.432138631974784
86,4,86,0,2.86666666666666,3.2303599254811806,35.14142607988426,3.9240693397610613,7.525303036948935,10.72576316252983,11.793808419133875,12.965682919572066,27.61634036266797,20.09141743932725,18.37177918160856,23.901149614908206,20.333813851489083,9.27507298488976,5.3510036451287135,2.140401458051471,6.0644707978125325,4.412550646386148,4.651236777809494,4.4591697042739185,10.345273713915503,13.555875900992724,18.96064966406427
87,4,87,0,2.899999999999993,3.9611504513888005,35.009658377328506,4.303508535637718,7.565217667682816,11.169334303505092,11.883451354166382,12.679333618515118,28.47632678370685,20.911292708633113,18.827849843415066,24.386548368613802,20.441665544279203,9.86220706083644,5.917324236501884,1.972441412167285,6.634575659108151,4.362870078232623,4.66213424694088,4.482821391289306,10.400145627791176,13.627777029519471,19.39565086204848
88,4,88,0,2.933333333333326,4.648816281268761,33.80141883195277,4.241315483061612,8.159864299370092,9.921616599754776,11.00791833562087,12.146307751946555,29.15636622494044,20.999390253186448,18.555755238394596,24.034121070682517,20.146248544542686,10.073124272271357,6.892137659975106,1.5904933061481188,6.538694703053338,4.998438232040609,4.960808299877387,4.948201396905219,11.310174621497652,14.137718276872064,19.11535056199748
89,4,89,0,2.9666666666666592,4.318443997144093,32.93423373507936,4.96963473905771,9.256587069669614,9.29055631068666,10.702330930699626,12.550222942885522,31.04753689114028,21.795513696241454,19.523565046298145,25.55812151515393,21.29843459596161,11.004191207913479,7.454452108586594,1.7748695496634355,6.74450428872116,5.371729998039277,5.336427994608036,5.147121694024051,11.714139027778891,14.553930307240442,19.198149505713936
90,4,90,0,2.9999999999999925,4.349131711268113,32.45941542040565,5.362446367425704,9.322366201677829,9.71180342792915,10.819805140135243,12.63940730051962,31.623786962455377,22.305599720689194,20.019799771722617,26.097238988138443,21.807281894197857,11.439885583841502,7.507424914395983,2.144978546970293,6.79243206540589,5.409902570067609,5.374349703642652,5.183698155178192,11.797382008336548,15.014849828791967,19.714234248756046
91,4,91,0,3.0333333333333257,4.277687230714251,31.902683259041297,5.328638831083197,9.297588307992694,9.65057537549857,10.710431496452255,12.911492134683883,31.777834561607854,22.481551857019898,20.24882755811619,26.287951566677165,22.02504050181058,11.367762839644186,7.460094363516475,1.7762129436944178,6.7496091860387395,5.434166676116293,5.375795846155566,5.328638831083225,11.723005428383061,14.920188727032986,20.298624934413382
92,4,92,0,3.066666666666659,3.542445787786818,32.703456375327676,4.947384212748128,8.8403172058294,9.575703864025893,10.627337363360464,12.767605152034502,30.093763312293273,21.25467472672091,19.38675916732835,25.37903018268439,21.149191818903645,10.57459590945183,6.697244075986163,2.1149191818903716,6.344757545671101,5.392007089065336,5.299034479610638,5.287297954725915,11.27956897008194,14.099461212602428,19.789536850992516
93,4,93,0,3.099999999999992,2.8518291685102923,33.169228100009065,4.952162236139159,8.555487505530948,10.282416295927773,11.016729738255947,12.909782954547886,29.220412157847946,20.664979199873333,19.101197196536717,25.114537054705707,20.86982656658641,10.258050346288229,6.01333985816899,2.1223552440596336,6.013339858168948,5.002439283871324,5.002439283871338,4.952162236139159,10.965502094308121,14.149034960397572,18.47858007189502
94,4,94,0,3.1333333333333253,2.5208517561879176,35.11864076756426,4.278027290799599,7.165607029382789,10.74841054407417,11.430332450828049,13.36289225821222,27.283489614999688,20.119492559064312,18.71636939724823,24.242154647864368,20.677131905531382,9.269059130065799,4.634529565032892,2.4955159196331067,6.060538661966092,5.104335771123452,5.003747864561356,4.812780702149553,10.338565952765677,13.190584146632077,20.014991458245444
95,4,95,0,3.1666666666666585,2.8518291685103208,34.57297222033338,3.8909846141093283,6.757923334101604,10.664703113316522,11.056409366669707,12.856366282902417,26.32823287746995,19.570345512097543,18.0400195745069,24.05335943267589,19.80864894455661,9.19687272425844,4.244710488119267,2.4760811180695868,6.367065732178929,4.303260984849291,4.259423566856661,4.244710488119281,10.611776220298182,13.441583212377694,20.211959584054952
96,4,96,0,3.199999999999992,2.8529181128812566,34.98215642049317,3.5386094093597222,6.40869421103782,10.316730620311741,11.411672451524987,13.211861577196714,25.98650285917385,19.57781826601215,18.046907987734542,24.41640492458204,19.816212692414396,9.023453993867278,3.7155398798276877,2.653957057019781,6.192566466379503,5.066517633603842,4.613782194514116,4.600192232167615,9.908106346207205,13.44671575556692,20.572685081386638
97,4,97,0,3.233333333333325,2.5278814601039232,36.32065148896755,4.289957093940572,6.829959599972837,10.778383803511973,11.883731793803266,12.993409065708168,26.60887938523822,19.77895613740422,18.411065861494933,24.30975686566319,20.377296196217685,9.47365524911875,4.111208881693045,2.681223183712845,6.256187428663324,4.76959719973922,5.017701428420031,4.826201730683152,10.009899885861316,13.227367706316741,20.07080571368009
98,4,98,0,3.266666666666658,4.2804971262460425,36.8222285846097,2.865938634358852,5.379327059148309,10.717466885432858,11.425109456708933,13.229246094244964,25.751772197423325,20.37407477112724,18.129272830944544,23.816887836731055,19.906652520252834,8.70916047761061,3.7324973475474224,1.5996417203774485,6.576304850440664,4.396994517507355,4.280497126246057,4.265711254339891,9.597850322264755,13.152609700881328,20.311958544943693
99,4,99,0,3.2999999999999914,8.897997564661027,37.15667804847479,2.867225129076703,5.7012709039138025,10.368467693101344,11.402541807827548,12.925773002808496,30.36260929006051,24.664803174156116,20.093406195928424,24.18321453669263,20.62685945776724,9.602158713098547,7.823981173635843,2.133813047355204,7.468345665743328,4.744769475577189,4.636919716856999,4.6232616026029945,9.957794220991076,12.802878284131388,19.589028774139532
100,4,100,0,3.3333333333333246,13.13883073656399,35.96465603426869,2.484817369528855,5.723782311597385,10.672855989216071,12.08997572413481,12.955331991432265,34.22692235924536,28.5064162681053,21.83089546086066,24.848173695288565,22.008382415827,10.649217297980812,10.649217297980812,4.614660829125,8.519373838384652,4.735942657851439,4.628293534834806,4.614660829125029,10.294243388048109,13.134034667509653,20.637390614058162
101,4,101,0,3.366666666666658,12.424226418376513,37.07284246817915,2.838664779018302,6.073764270149716,11.022694704542838,12.111197461375516,12.89660894032028,34.18205041403539,28.112546486286067,21.82223548870317,25.19314991378741,21.64481894001453,10.644992921318632,10.644992921318618,4.2579971685274245,8.161161239677625,4.734063984041188,4.980319850962272,4.790246814593388,10.290159823941337,13.128824602959632,19.544830592790685
102,4,102,0,3.399999999999991,7.866250224934396,36.84955990648281,2.848707330686267,5.741753187365058,10.351092764051767,11.417063157199589,13.647991522751061,30.082622546808143,24.341970775624585,20.297039731139634,24.57010072716905,21.009216563811208,9.25829882473036,7.121768326715653,1.0682652490073394,6.765679910379873,4.750812027878777,4.642824920482078,4.62914941236518,9.970475657401927,13.175271404423974,19.953664705521444
103,4,103,0,3.433333333333324,3.950217170777594,37.009695881979056,3.5763585858631757,6.121739814187133,10.396075182876572,11.109760937555537,14.02096776588507,27.65152019544316,21.53253007967359,19.491154292954263,23.96160252528321,20.385243939420036,8.225624747485284,5.364537878794735,0.7152717171726266,5.364537878794749,4.771457482544037,4.6492661616221085,4.6492661616221085,10.013804040416865,12.874890909107393,20.056326086938178
104,4,104,0,3.466666666666657,2.8804385513501245,38.27435225684255,3.960603008106432,5.448618102922724,10.44779574607097,11.184904607760128,14.157069777350209,26.40456558601166,20.96063388191381,19.44296022161336,24.123672867557318,21.243234316207193,8.641315654050388,3.6005481891876627,2.1603289135126005,5.400822283781494,4.380255922744766,3.976935460935762,3.960603008106432,9.361425291887919,12.241863843238043,20.57359662591673
105,4,105,0,3.4999999999999907,1.7983168437925912,38.20735639454259,3.6145721214964297,5.086408139870908,10.076994838689748,10.455012640288057,13.385083797833115,23.87092037462579,18.788753797368607,17.803336753546617,23.01845560054511,20.500812019235497,8.452089165825157,1.9781485281718432,3.057138634447398,5.215118846998507,3.7549958098662493,3.23697031882665,3.23697031882665,9.710910956479978,11.86889116903108,19.092671578742245
106,4,106,0,3.533333333333324,1.0851346783940272,38.02275026042367,4.3405387135760805,6.159725899145693,10.134380741640669,10.495869777908302,13.427247580982664,24.999999999999996,18.84027705091525,18.266433752966037,23.149539805739124,21.340982008415764,8.861933206884501,2.712836695985061,3.4362598149143935,4.883106052773087,2.287664767839601,2.200205520687467,1.9894135770557,11.57476990286957,11.57476990286957,19.174124721184267
107,4,107,0,3.566666666666657,2.202075823180138,38.17107871150618,4.053787075707403,5.151267838583788,9.909341204310607,10.643366478703996,13.293763121518092,24.63363011735422,19.48280630143692,18.35063185983448,23.12179614339145,22.754783506194755,9.725834885712274,1.6515568673851106,3.4866200533685543,5.688695876548692,1.9764235376052495,2.3211917272131513,2.202075823180138,12.845442301884134,11.01037911590069,19.084657134227854
108,4,108,0,3.5999999999999903,7.187551590521281,39.17380465466121,3.9531533747866945,4.312530954312763,10.428144130610331,11.505696449266454,12.598734408444729,28.04066449866484,23.7298079794973,20.12514445345957,23.000165089668087,23.35954266919414,10.601638596018887,4.851597323601851,0.17968878976303415,6.6484852212321925,1.9353074937369406,1.9353074937369381,1.6171991078672932,12.937592862938295,9.703194647203723,19.419695013690497
109,4,109,0,3.633333333333324,14.696312871915367,41.26515977058049,4.314986035351457,5.744628587205712,11.114320837934018,12.547021105164948,12.905219077194467,37.6325339225967,31.894280725262977,24.546295881954478,25.083806010756405,27.233846525964097,13.25858317711409,11.46688274777435,5.016761202151287,8.600162060830769,2.5338470468819474,2.533847046881965,2.5083806010756433,12.900243091246146,9.316842232566657,20.42852798672749
110,4,110,0,3.6666666666666567,18.36408847908393,42.42376208068619,4.251769800987992,5.296353950260311,11.304404116311684,12.716152566431258,12.711249480624758,40.611520521306346,35.3160874342965,26.128679487950905,25.42249896124953,27.541040541353667,13.77052027067684,14.12361053402752,8.121076057065821,9.533437110468583,2.4967251958621524,2.846704711547864,2.8247221068054955,13.06433974397546,8.827256583767202,19.44883223172175
111,4,111,0,3.69999999999999,19.35504929915491,44.473419979045616,4.315290810029677,6.1027427891279515,12.56325019407121,13.63673334186473,12.906130594395046,42.651504649827494,36.55502704569734,26.877404702051095,26.519039306023757,28.31086628616049,14.513798539107597,15.230529331162302,8.421586806642665,9.855048390752074,3.2451366812087734,2.9551567607741127,2.8669231682187615,13.617885049039224,9.675865692738391,20.797546725785086
112,4,112,0,3.733333333333323,19.151737660771676,45.43876782624334,3.9166961846840165,6.028217188738296,12.061647970964643,13.479503417151571,12.770560464049307,41.84442182974652,35.81645752885827,26.240474821566806,24.467469766055544,26.595075832669067,12.765636399681156,16.311646510703667,9.92882831086311,8.510424266454109,2.8588847493136478,2.924114847450824,3.014108594369148,12.411035388578895,8.865025277556349,19.86082244982476
113,4,113,0,3.766666666666656,20.835317613187215,45.913954964055755,4.251769800987992,6.002534476961699,12.010260335335303,13.4220751277725,12.730850493779895,43.78319265548534,37.78065817852364,27.364495409678327,24.71631843454817,25.77558922460024,12.534704348949433,18.537238825911132,11.828523822248044,8.297621188741175,3.1973683231668435,3.1778123701561896,3.1778123701562038,13.06433974397546,10.239617637169957,20.138530332168212
114,4,114,0,3.7999999999999896,20.844675259176167,45.574577369114536,3.885737292178405,6.005230360639331,12.36370956602218,13.781233032199756,12.721863698666795,43.44960790344935,37.44437754281002,27.023536622877046,25.433916821531326,26.140414511018307,13.07020725550916,17.66244223717453,10.95071418704822,9.184469963330756,3.2567934285999596,3.602445505002328,3.3558640250631555,12.716958410765656,9.537718808074246,19.794547315399704
115,4,115,0,3.833333333333323,22.61896239622199,46.994046859581964,3.5501069529767193,5.651981515895841,12.721863698666809,14.134368710575297,13.07020725550916,44.87511822817754,39.224940051381736,27.906658734735757,24.727419132044346,25.787165666274817,12.187085143650421,19.605310883263726,13.246831677880905,8.65459669621552,3.198804338754411,3.198804338754411,3.1792396026914105,12.716958410765656,10.244216497561226,20.14757503410578
116,4,116,0,3.866666666666656,21.674650114182697,46.5013989976875,3.1652706419690606,5.942276346353395,12.58849789237249,13.986195335651885,13.282735362437009,44.04830209099319,38.106890892383554,27.264562059739106,24.468196720278684,25.51683372257635,11.709779858990515,19.050238875074115,12.408871193855617,8.563868852097542,3.512890481598853,3.5128904815988387,3.495456674325524,12.583644027571893,9.43773302067892,20.635039982242024
117,4,117,0,3.899999999999989,20.905654423452763,46.703605731874454,3.5011675393922013,5.922446248447102,12.54648854592865,13.935167643404952,12.894737037649923,43.20042442651872,37.278201350707334,26.825197713554488,24.386543375958624,25.780060140299113,12.193271687979319,18.115717936426407,11.496513305809074,8.709479777128081,3.1354127197661086,3.8479739364108516,3.6579815063937815,12.541650879064434,9.406238159298319,20.55732442804452
118,4,118,0,3.9333333333333225,22.036914044380694,47.218894693086234,3.1659089554198654,5.593858517776624,12.935797822358467,14.338525429577711,13.290013396156304,44.05718494079979,38.46413344186412,27.444868352841596,24.473131015272756,25.87159564471692,11.886949350275344,18.879272497496117,12.586181664997412,8.740403934025991,3.513598896612676,3.513598896612676,3.4961615736103937,13.635030137080541,10.488484720831188,20.289789274885134
119,4,119,0,3.966666666666656,21.191809085564316,46.20115787476103,3.4895191108939057,5.902742195189518,12.851836085125628,14.240259056543483,12.504746220522225,43.06089597245615,37.15904334588142,26.562339878352745,24.305409039015586,25.694289555530773,12.499924648636593,18.055446714697297,11.458264261250207,9.027723357348663,3.83517167866192,3.83517167866192,3.819421420416731,13.541585036022973,10.069383744735028,20.512453414256328
120,4,120,0,3.999999999999989,20.42101359051617,47.52982141831493,3.520341213639256,5.9949250666957195,12.678116789097638,14.08576459372221,12.673228369101338,42.60194703346882,36.61324105446781,26.402559102294447,22.882217888655177,23.586286131383034,10.561023640917767,19.361876675015935,12.673228369101338,7.040682427278512,3.5378991340980273,3.537899134098044,3.52034121363927,13.377296611829188,10.913057762281703,20.430114540350957
121,4,121,0,4.033333333333323,16.025436818095702,44.2350610457393,3.831264472586824,6.269341864232985,13.23527726893633,14.280167579641812,12.19536161134881,38.31264472586827,32.04330286163528,24.032477146226455,24.380773916461635,24.7290706866968,12.364535343348393,13.757722424289057,7.14008378982092,8.53327087076157,4.179561242822004,3.8940762729472946,3.831264472586838,12.886980498701142,10.797199877290147,20.923912165842662
122,4,122,0,4.066666666666656,12.156564631717726,40.96827099773529,3.8348249442368556,5.902208533572008,11.804417067144044,12.498794541681946,13.19773949844641,35.06778117816814,29.165920457001647,23.08805102838471,25.344777820632828,25.344777820632828,12.151605804412995,9.721284643530396,3.471887372689423,8.332529694454621,3.881688087778355,4.18070601651544,3.9926704785928564,12.151605804413002,10.41566211806829,20.136946761598693
123,4,123,0,4.099999999999989,9.088187353246369,38.45002341758081,3.5128904815988387,5.243185011488293,10.835915690409138,11.53500702527424,13.672553735126783,31.466876791691934,26.2252446187232,21.67183138081826,24.118651052846133,24.118651052846133,10.486370022976573,7.340459016083614,1.7477283371627692,7.340459016083599,4.2524065769736215,4.194548009190626,4.019775175474365,11.535007025274233,10.48637002297658,19.924103043655492
124,4,124,0,4.133333333333322,7.041162372166994,38.02879584563643,3.8726393046918446,4.590276267205339,9.857627321033789,10.919478557178675,13.045166676572723,28.53625968883786,23.950304477555573,20.419370879284273,23.587893946759408,22.883777709542713,10.20968543964213,5.280871779125249,0.0,6.689104253558639,4.2829718647162975,3.8886090190609517,3.8726393046918304,10.913801676858839,10.209685439642136,19.01113840485087
125,4,125,0,4.166666666666655,5.974303950445426,37.193878735413094,3.1574088695053035,4.5607017003965495,10.173873023961534,10.875519439407157,13.349733503534235,27.033881874987344,22.47733901579031,19.47068802861604,23.154331709705573,22.45268529425995,9.472226608515925,4.209878492673738,1.0524696231684345,6.314817739010621,4.267948525390694,3.874968982506131,4.034466888812332,10.524696231684352,10.524696231684352,18.94445321703182
126,4,126,0,4.199999999999989,3.1792396026914105,37.451042022268815,3.5324884474349147,4.958083805623335,10.597465342304702,10.950714187048192,13.089287860201349,24.750117568379473,19.794547315399704,18.192315504289766,22.254677218839902,21.54817952935292,8.831221118587266,2.8259907579479346,2.4727419132044304,5.651981515895841,3.949442149098565,3.8857372921783906,3.8857372921783906,10.597465342304716,10.244216497561226,20.138282586059436
127,4,127,0,4.233333333333322,4.894028035430011,35.68389696337706,3.4957343110214367,5.255240995763249,10.48720293306431,11.191810547263492,11.55709007577816,25.191125904234678,19.937947534335233,17.478671555107184,22.372699590537195,20.97440586612862,10.137629501962167,3.4957343110214367,2.097440586612862,6.64189519094073,3.861164748540016,3.861164748540016,3.8453077421235804,10.836776364166447,10.13762950196216,19.925685572822175
128,4,128,0,4.266666666666655,3.9006846947309413,36.17172358241105,4.255292394251953,7.0921539904199165,11.347446384671827,11.702054084192838,11.015692844301133,26.250552006890395,19.161944891736624,17.19847342676826,20.921854271738724,20.567246572217726,9.751711736827389,5.496419342575422,2.304950046886475,5.851027042096433,3.9167700606836613,3.964634607368828,3.9006846947309555,12.411269483234832,10.99283868515085,19.148815774133737
129,4,129,0,4.299999999999988,4.577351287082507,35.91632836459836,4.225247341922298,7.394182848364039,11.267326245126128,11.971534135446518,10.586565927175062,26.76916412181763,19.37851653377623,17.077041340269318,21.126236709611533,20.774132764451338,10.387066382225669,5.809715095143176,1.9365716983810586,6.513922985463552,4.23989295721234,4.239892957212342,4.049195369342215,11.971534135446532,10.915222299965954,18.664830533241243
130,4,130,0,4.3333333333333215,5.931819989552853,35.904876199786344,4.541647515907821,7.663226200051255,11.500115793033249,12.196471333142803,9.116628336611702,27.189708610306546,19.534364590047634,16.545602022837926,21.944693209237684,20.551379354682908,12.191496227354264,5.921583881857785,2.0899707818321644,8.01155466368995,4.237598653715574,3.894430615970905,3.8316131000256206,12.539824690992965,10.798182372799495,18.809737036489423
131,4,131,0,4.366666666666655,7.611727698356944,34.95160045647121,4.151851471831051,7.61172769835693,11.417591547535409,12.109566792840582,9.743099916239704,29.08148944738557,21.476329927758293,17.64536875528198,22.835183095070803,22.14320784976563,12.801542038145755,6.5737648303991705,1.7299381132629321,8.649690566314703,4.511126683534204,3.8215581996762027,3.9788576605047723,12.455554415493175,11.417591547535409,19.375306868544925
132,4,132,0,4.399999999999988,10.38006358846431,32.5903876205545,4.498027555001215,8.656970266974493,10.73164493639364,12.115016065623777,10.471924348896769,33.95231196265201,25.296044353427355,20.06812293769768,25.604156851545312,23.52814413385245,14.186086904234571,9.342057229617893,0.0,10.034061468848833,4.550947346725041,4.166417247812372,4.152025435385724,12.110074186541702,11.418069947310748,18.684114459235758
133,4,133,0,4.433333333333321,10.307756905882115,31.983589043836915,4.466694659215577,8.59666651296732,10.307756905882115,11.3437373397311,10.39897777169451,33.715802906316036,25.119834156441552,19.928330018038764,25.42580036784257,24.05143278039162,14.430859668234959,8.933389318431182,0.0,9.964165009019382,4.859123204647809,4.82254208309037,4.638490607646943,12.369308287058544,11.68212449333307,18.897554327450564
134,4,134,0,4.466666666666654,5.869969100159167,36.56382973361441,4.481053906601986,7.238625541433976,10.691148259646303,11.380204468822072,12.7956226772179,30.36460785518455,23.135783618179097,20.16474257970893,24.128751804779924,22.749965987363936,10.685590084973967,6.893929087079982,0.6893929087079869,6.549232632725975,4.874744006493435,4.494291908578829,4.4810539066019714,12.409072356743955,11.719679448035954,18.961438334667665
135,4,135,0,4.499999999999988,0.6968598814009823,38.70082733823444,3.832729347705353,5.238050565649316,9.780894528534565,10.110473908351205,16.031564106834534,25.793230918197622,20.5603190854016,20.208936560628246,22.996376086232132,21.602656323430182,6.271738932608756,3.484299407004883,1.7421497035024203,3.1358694663043707,4.542970614918465,4.582880347417145,4.7038041994565845,12.543477865217525,11.498188043116066,20.557366501328744
136,4,136,0,4.533333333333321,0.696758382170259,40.4254986168117,4.195040978734657,5.23728763164046,10.109001294772279,10.457180440433895,16.373821981000802,26.485984809232633,21.253986031503526,20.9027514651074,22.993026611618134,21.947889038362774,6.0966358439896595,4.006360697478911,1.5677063598830614,2.6128439331384357,4.542308920889386,4.542308920889372,4.528929484106598,12.541650879064441,11.496513305809067,19.50923470076691
137,4,137,0,4.566666666666654,3.7955670641072143,39.874929933439006,4.123613949640301,4.810882941247016,10.314760525680246,10.652669369904118,15.123822248676975,27.842877669613745,23.033766680901,21.133521491906535,22.67987672302165,21.648973235611564,7.044507163968845,5.669969180755416,0.515451743705043,3.264527710131901,4.823139987714184,4.4804456631037075,4.4672484454436585,12.370841848920897,11.683572857314182,18.90302096101152
138,4,138,0,4.599999999999987,7.118644067796609,39.674052616537935,4.067796610169495,5.434311709112339,10.513940623234467,11.18644067796609,14.253421045171956,30.86421597312553,25.432766755122294,21.86440677966101,23.389830508474574,22.372881355932208,8.644067796610173,7.9661016949152526,2.2033898305084705,4.9152542372881385,4.79394427923084,4.7578538466502325,4.745762711864401,12.203389830508478,11.525423728813557,19.32500720507013
139,4,139,0,4.63333333333332,7.516110070465947,39.93664394181145,4.095467730083627,5.460623640111493,10.926578619217715,11.608843105843466,13.327760629821553,30.391970283452704,24.93512484435278,21.15991660543203,23.207650470473837,22.525072515459897,9.55609137019512,7.508357505153299,1.7064448875348432,5.80191261761847,4.7902190696300195,4.449863846065164,4.436756707590575,11.945114212743889,11.262536257729955,20.13894174469235
140,4,140,0,4.666666666666654,6.493616925065,39.955070341360475,3.7542662116041043,5.1308178765777885,10.602201069630762,11.26796861380147,13.328071119294622,28.701428043179032,23.571736040726286,20.307167235494873,22.184300341296918,20.819112627986343,8.191126279863482,7.167235494880558,1.7064846416382267,5.119453924914666,4.489060217735798,4.109759241908633,4.095563139931727,11.604095563139929,10.92150170648464,19.79816383928079
141,4,141,0,4.699999999999987,4.773788498205609,39.806926013790104,3.401183477633623,4.434600701584934,10.54915313410697,11.229057601996473,13.303802104754787,25.90487454717949,21.47060210110186,19.046627474748306,21.427455909091847,20.407100865801752,7.652662824675659,4.931716042568766,0.17005917388168257,4.591597694805387,4.809999802188756,4.421538520923718,4.421538520923718,11.564023823954322,11.223905476190957,19.38972908725542
142,4,142,0,4.73333333333332,3.090557132562512,39.25040202858998,3.0716544651334345,5.1194241085557195,10.244534886928955,10.926769530397054,13.349824784699535,24.611128165658876,19.501653828289506,17.91798437994501,20.818991374793242,20.477696434222864,7.337841222263194,3.9248918165593807,1.1945322919963388,4.607481697700138,4.449941594899855,4.109735306141537,4.095539286844584,11.604027979392953,10.58014315768181,19.79510655308212
143,4,143,0,4.766666666666653,4.095348477149784,37.8881220865235,3.4127903976248177,5.460464636199703,10.579650232636936,11.262208312161903,12.986553143801457,25.946186494961918,20.488115195504196,18.429068147174007,21.50057950503634,20.818021425511375,8.190696954299568,4.777906556674736,1.0238371192874496,4.7779065566747505,4.790079586739309,4.109543835059343,4.436627516912267,11.603487351924372,10.920929272399412,19.79418430622394
144,4,144,0,4.7999999999999865,4.464788232237246,38.35256607552958,3.4243362567437146,4.7940707594411975,10.61544239590549,10.957876021579864,13.394364696711737,26.060976268216294,21.27502389307781,19.00506622492759,21.915752043159756,21.915752043159756,8.560840641859286,4.109203508092449,1.369734502697483,5.478938010789946,4.8427427764128765,4.123446890516693,4.280420320929636,11.64274327292862,10.615442395905504,19.864102083777816
145,4,145,0,4.83333333333332,2.7391478295916016,38.69046309298139,3.0815413082905536,5.147302643303427,10.271804360968503,10.614197839667469,14.075662232801383,25.032218395420216,19.885369031628084,18.489247849743336,21.913182636732827,21.913182636732827,7.875050010075853,3.0815413082905536,2.3967543508926497,4.793508701785299,4.464264779719803,4.464264779719803,4.62231196243583,11.298984797065359,10.614197839667462,19.51943150633744
146,4,146,0,4.866666666666653,2.4053704623292873,39.518294443231895,3.4362435176132493,5.1658067228542714,10.308730552839762,10.657895791792212,13.418959909887645,24.419098271089496,19.255232086044792,18.040278467469605,20.96108545744086,20.61746110567954,7.387923562868494,3.608055693493924,1.5463095829259572,3.9516800452552445,4.480313400977263,4.137785131310193,4.295304397016565,12.026852311646394,10.995979256362418,19.58960206719426
147,4,147,0,4.899999999999986,2.4137787528443653,39.31616022313705,3.7930808973268597,4.8275575056887305,10.344766083618737,10.68959161973936,13.46586765865221,24.492324533833404,19.6671509788258,18.448166182453377,21.379183239478678,20.68953216723743,7.586161794653719,3.448255361206236,2.0689532167237417,4.137906433447483,4.839857035191495,4.4959749289057385,4.482731969568121,11.724068228101203,10.344766083618708,19.31023002275495
148,4,148,0,4.933333333333319,3.7542443462741915,38.226556951645556,3.4299717028501777,5.460719049126098,9.90343592388155,10.926769530397054,13.327993494891997,25.9586158705538,20.50327757653186,18.600574261085768,21.501581255934013,21.160286315363635,8.020431103403965,4.607481697700138,1.5358272325667173,4.607481697700152,4.449941594899841,4.109735306141537,4.266186757129773,11.945322919963338,10.238848217111439,19.453811612511714
149,4,149,0,4.966666666666653,4.109564942103972,37.6725685905127,3.7671011969286496,5.490111484040668,10.273912355259938,10.964189535870963,13.373636773827073,26.731922346058877,21.243796546065205,19.17796972981857,21.5752159460459,21.232752200870564,8.04789801162029,5.3081880502176375,0.8561593629383282,4.623260559866978,4.806707719596064,4.123809577336173,4.280796814691655,12.328694826311938,10.958839845610612,19.865849274465113
150,4,150,0,4.999999999999986,3.7669244849773946,35.95700644751142,3.7669244849773804,5.821610567692332,9.930982733122192,10.29623494865723,13.702187145471049,27.055534059315626,21.23451768331063,19.348293945565658,21.916651548959337,21.916651548959337,8.21874433085975,5.136715206787358,1.369790721809963,4.794267526334849,5.148117474328615,4.8429415409911964,4.794267526334863,13.013011857194599,11.300773454932155,19.18012743020625
151,4,151,0,5.033333333333319,3.0821917808219155,37.32876712328766,4.1095890410959015,5.821917808219169,9.937409677086926,10.621960561144382,13.702910290234621,26.71452397021423,20.89321786667075,19.349315068493155,21.917808219178085,21.917808219178085,8.219178082191789,4.794520547945197,1.3698630136986338,4.452054794520549,4.806735906718554,4.452054794520549,4.4520547945205635,13.013698630136986,11.64383561643836,18.83561643835617
152,4,152,0,5.066666666666652,2.0407691067264295,35.71507898900848,4.095685702020627,6.1317480464041525,9.523589164723347,10.203845533632148,13.282430212008688,25.51868230711269,19.390289864924974,18.36692196053788,20.74781925171871,21.087947436173124,7.652884150224111,4.591730490134466,1.8707050144992365,3.911474121225666,4.773926562743633,4.434728956344728,4.591730490134466,12.924871009267392,11.224230086995362,19.727434698355495
153,4,153,0,5.099999999999985,1.6947594662153875,35.930499477879,4.067422718916916,5.762182185132303,9.151701117563078,9.83544716602358,13.219123836479994,24.7434882067446,18.981306021612298,18.13392628850461,20.676065487827685,21.015017381070763,7.626417597969237,3.89794677229537,2.203187306080011,3.8979467722953984,5.095564269133784,4.757416528833057,4.575850558781525,12.88017194323691,11.5243643702646,18.645435254599395
154,4,154,0,5.133333333333319,1.0682395135020362,37.16491087966996,4.067734878774938,5.404911918810555,9.458595857918482,10.134209847769796,13.516501724889778,23.986675444254324,18.58245543983498,18.0726742285228,20.268419695539592,20.944033685390906,7.093946893438854,3.3780699492565986,2.3646489644796134,3.3780699492565986,4.741347115185605,4.741347115185607,4.560394431496405,13.174472802100738,11.485437827472438,18.579384720911293
155,4,155,0,5.166666666666652,1.009894951141277,35.72263001199966,4.3762114549455475,6.068713381953456,9.095286343355529,9.768120130704203,13.1286343648366,24.57641606584932,18.514740770923424,18.00979329535278,20.53453067320598,22.217688925108106,8.247475434320435,3.1980006786140507,3.1980006786140365,4.207895629755313,4.724850368366843,4.76069045492036,4.544527280135753,13.465266015217033,11.445476112934479,18.517800805779583
156,4,156,0,5.199999999999985,1.660799644324257,35.91169617571962,3.9997351987110066,5.978878719567291,8.992888859859612,9.306407545323239,12.958494986641398,24.579834735998887,18.600956016431596,17.770556194269474,19.597435803026144,21.258235447350387,7.473598399459121,4.151999110810621,2.491199466486364,3.487679253080927,4.33083561433534,4.662086765995441,4.6502390041079025,13.618557083458846,11.625597510269742,17.93971144996474
157,4,157,0,5.233333333333318,1.9998222459224166,37.0207256447826,4.332948199498574,5.999466737767236,9.356280932622367,10.337789405737057,11.998933475534486,24.331170658722712,18.331703920955476,17.331792797994268,18.998311336262944,20.33152616687788,7.665985276035926,4.666251907152301,1.9998222459224166,3.3330370765373516,3.999644491844819,4.6781404663111825,4.33294819949856,13.665452013803161,11.998933475534486,17.011554802561974
158,4,158,0,5.266666666666652,3.6528525349982033,36.88452860195683,3.9849300381798685,6.318205398624612,9.63597136548789,10.31580470613827,10.95855760499461,24.90802649026076,18.59634017817268,16.76991391067358,17.93218517180938,19.260495184535998,7.637782573178086,6.3094725604514394,0.6641550063633161,3.6528525349982175,4.64908504454317,4.696285087584925,4.649085044543185,15.607642649537787,13.283100127266202,16.633735284399574
159,4,159,0,5.299999999999985,4.9922195259198885,38.21200692673019,3.6528525349982033,5.977395057269803,9.967858183960338,10.631667546643179,10.299757294753425,24.905812738624135,18.928417681354333,16.437836407491915,15.607642649537794,16.935952662264413,5.977395057269803,8.634015082723025,1.660387515908269,2.6566200254532504,4.329760914911074,4.329760914911076,4.317007541361505,15.607642649537794,13.61517763044786,15.9535507151069
160,4,160,0,5.333333333333318,5.3155852828853085,38.54372087668038,3.322240801803318,6.312257523426311,9.97225793619242,10.631170565770645,9.308204927350884,24.25463325382161,17.943176214943513,15.282307688295276,13.953411367573949,14.617859527934613,4.983361202704984,9.966722405409953,2.990016721622979,1.993344481082005,3.9866889621639956,4.651137122524659,4.48502508243449,14.617859527934606,13.953411367573942,14.301079382478111
161,4,161,0,5.366666666666651,4.877308675191728,39.721339229117426,4.180550293021469,6.619204630617332,10.457180440433923,11.153576211272012,9.760836424875846,25.434066996125384,18.815701775340216,16.373821981000788,14.283546834490053,14.980305216660298,4.877308675191728,10.799754923638801,3.1354127197660944,1.0451375732553743,4.528929484106612,4.8897349594718795,4.877308675191713,14.980305216660298,14.283546834490053,13.935167643404924
162,4,162,0,5.399999999999984,4.692651549537715,41.15094435748469,3.6097319611828738,6.858490726247453,10.468222687430313,11.551142275785196,11.19598971417217,26.35351561980843,19.495894648292957,17.146226815618647,14.799901040849775,14.799901040849775,3.6097319611828738,11.551142275785168,3.970705157301154,0.721946392236589,4.7065146566960445,5.066500243582619,4.873138147596876,14.43892784473148,13.716981452494906,13.7217302777895
163,4,163,0,5.433333333333318,4.6759867329883065,41.00638429845412,3.5969128715294687,6.834134455905996,10.431047327435465,11.510121188894288,11.150429901741347,26.25746396216512,19.423329506259122,17.085336139764976,14.747342773270816,15.107034060423771,3.7767585151059535,11.330275545317818,3.7767585151059393,0.8992282178823672,4.689800608675852,5.0485077938523135,4.855832376564791,14.38765148611786,13.668268911811971,13.673000872802545
164,4,164,0,5.466666666666651,4.300964763825945,40.502337396440694,3.5841373031882995,6.809860876057769,10.39399817924604,11.46923937020253,11.1108256398837,25.805788582955714,18.995927706897945,16.845445324984965,14.694962943072,15.05337667339083,3.7633441683477145,10.9316187747243,3.4049304380288703,0.8960343257970749,4.67314330550434,5.030576429194633,4.838585359304204,14.336549212753177,13.619721752115517,13.624436906057051
165,4,165,0,5.499999999999984,4.270462633451956,39.859239927667375,3.914590747330962,6.761565836298942,10.320284697508896,11.387900355871892,10.67615658362989,25.62277580071175,18.861209964412808,16.72597864768683,14.590747330960852,14.946619217081846,4.092526690391452,10.854092526690408,3.380782918149478,0.8896797153024778,4.626334519572964,4.994899945771611,4.804270462633454,14.234875444839851,13.879003558718857,13.527813387009422
166,4,166,0,5.533333333333317,4.255292394251953,39.71764538488952,3.546076995209944,6.737546290898919,10.289735395585268,11.347446384671827,10.644139473164323,25.179643779477203,18.443009749323554,16.311954177965788,14.538915680360802,14.893523379881799,4.077988544491433,10.460927135869383,3.0141654459284695,0.886519248802486,4.623518735241297,4.977156241292404,4.7872039435334415,14.184307980839819,13.829700281318821,13.479757665053995
167,4,167,0,5.56666666666665,3.873143396762117,39.08512393440778,3.873143396762103,6.689974958043649,10.217083363768129,11.267326245126128,10.217083363768113,24.6497910610885,17.960752870900517,16.020729504788747,14.436261751567883,14.788365696728079,4.4012993145023955,10.034962437065474,2.6407795887014487,0.8802598629004734,4.577351287082507,4.942014374208374,4.753403259662591,14.084157806407688,14.084157806407688,13.384582060908837
168,4,168,0,5.599999999999984,3.859269035001489,38.945113329745375,3.859269035001489,6.675236467410038,9.829856957901484,10.876121825913316,10.180483760756802,24.5690067987118,17.89641392000282,15.963340099324355,14.3845482213692,14.73539086091479,4.385532994319874,9.999015227049327,2.6313197965919244,0.8771065988639748,4.560954314092683,4.924311106286192,4.736375633865478,14.033705581823611,14.033705581823611,12.985917914454282
169,4,169,0,5.633333333333317,2.797134405100266,38.136609419232734,3.846059807012864,6.303257201220909,9.796212031757413,10.861429931031166,10.139612218488452,23.07900749159431,16.782806430601582,15.384239228051442,13.985672025501316,15.384239228051442,4.545343408287934,8.391403215300784,1.048925401912598,1.048925401912598,4.195701607650385,4.195701607650399,4.195701607650392,14.684955626776379,13.63603022486378,13.29098817801618
170,4,170,0,5.66666666666665,2.104560547018117,37.078833467433235,4.497839094483652,6.5737648303991705,9.712335393852806,10.402668949169989,9.687653434272463,22.837804063010005,16.265098567596354,15.223455396713874,14.5314801514087,16.60740588732422,5.881789585093998,7.265740075704343,0.3459876226525864,1.7299381132629321,3.805863849178472,4.166242681262642,3.978857660504758,16.26141826467164,13.493517283450934,14.59723379107309
171,4,171,0,5.699999999999983,3.0690994353685,35.846733644813746,4.446240093524519,6.147664102065918,9.572636296720896,10.236013390822825,9.548309354479741,23.198778858044655,17.053962188254715,15.516002701029578,15.686508225216727,17.391563467088105,6.990726491672675,6.6497154432983905,0.17050552418713494,2.557582862807081,3.7511215321170397,3.7665901401433977,3.7511215321170397,17.391563467088105,13.640441934971065,15.066360560573564
172,4,172,0,5.7333333333333165,3.1007947474951862,36.25624057035331,4.835747582252914,6.211152475990726,9.327870274471366,9.997388196980374,11.374799736151735,25.516366193775813,19.30613480427064,17.743436610666876,18.604768484971103,21.016497733022916,8.441052368181332,5.684790370407839,1.2058646240259066,3.6175938720777197,3.7898602469385594,4.191421800935388,3.9621266217994133,16.53757198664099,13.092244489424118,16.969768139850625
173,4,173,0,5.76666666666665,4.8081584182022965,36.1200155624693,4.477908274934263,5.848570529439189,9.2982821393256,9.640817046396455,11.682005653282342,26.808117704573974,20.961090407515925,18.54575389878032,20.262953333852565,22.323592655939265,9.616316836404607,5.495038192231206,1.0303196610433503,4.808158418202311,3.7778387571589533,4.178126552282704,3.9495587006661808,15.454794915650261,11.33351627147686,16.88453317784855
174,4,174,0,5.799999999999983,6.234246958302712,35.333980978498644,4.149765613304467,5.543816966186177,9.017720655760574,10.052421168876545,13.140924442130824,29.05659178849088,23.517881086468822,20.403014265413645,22.132083270957168,24.206966077609394,10.028600232152456,5.878834618848003,0.3458138011087044,5.878834618847989,3.8039518121957627,4.207006463688077,3.976858712750115,14.86999344767434,10.720227834369872,17.69066599205603
175,4,175,0,5.833333333333316,6.534389494764176,34.77063846010174,3.7934175397766,5.163033609643132,8.955816549868524,9.622447737146247,13.39855794556199,28.85712649081744,23.699840768162908,20.434673277359778,22.667032542953706,25.07111175205486,10.47491655394073,4.979878361709524,0.515159830521668,6.353637909767329,4.121278644173401,4.178126552282704,4.121278644173408,13.737595480578008,9.959756723419055,19.260211748483123
176,4,176,0,5.866666666666649,7.243386259810231,34.51523515305343,3.805488602920261,4.835747582252927,9.308762292081271,9.671495164505856,14.130043732805047,29.98226847274815,25.153250432341597,21.533296857605436,24.117292480518103,26.184488978848222,11.025047991093984,4.823458496103626,0.6890654994433731,7.235187744155425,3.805488602920258,4.261634755761031,4.134392996660246,13.436777239145805,8.957851492763872,18.999348997616273
177,4,177,0,5.899999999999983,7.927929141981823,34.498654033906874,4.146730644382261,4.833424489089332,9.304290362627885,9.992585451638703,14.135845104200936,30.994964349091973,26.17190995020698,22.21168673405724,24.794441005459248,26.860644422580847,11.708486030355743,5.1655085428040195,0.3443672361869261,7.576079196112545,4.146730644382275,4.189408241880486,4.132406834243213,12.741587738916557,8.264813668486418,19.333697956357327
178,4,178,0,5.933333333333316,8.349404573514448,34.85175000001492,4.189172702023951,5.229961397357706,9.071909729610896,10.112827940597388,13.915674289190747,31.665804059700626,26.442069812626134,22.26507886270518,24.70032186331356,26.787673006692174,11.82832314581212,5.9141615729060675,0.0,7.305729001825142,4.522594143986986,4.232287107506182,4.174702286757224,12.524106860271665,8.001512716284672,19.50987957184042
179,4,179,0,5.966666666666649,8.036988541091292,34.67400113910122,3.8559849454550363,5.596570461987581,9.103530900156002,10.148077349656122,14.66238789815067,32.134682811860856,26.541125376023675,22.517238557874222,24.786417637349928,27.57925342747386,11.520447634261217,5.934776054013369,0.34910447376547893,7.3311939490753275,4.2037745387266785,4.318183859132373,4.1892536851859035,12.567761055557703,8.029402896606314,19.5623145745506
180,4,180,0,5.999999999999982,8.670317446248177,35.436044569774204,3.8306714530971275,5.2137380745610455,9.389597527947046,10.081457982082902,14.223549406174493,31.92372735967718,26.713584337646303,22.369419011320275,24.970514245194735,27.051390432294298,11.79163172689752,5.89581586344876,0.0,7.629879352698396,4.508565072049045,3.8774838392626676,3.9883460252741614,11.791631726897513,7.2830666548484615,19.087305586282792
181,4,181,0,6.033333333333316,7.979766080952176,34.74670674596583,3.8285307636168677,5.245295587806984,9.038714777625,10.075824173150961,14.557993335093045,31.572776178149066,26.352155529779402,22.356918336035747,24.609941114085856,27.036273336601354,11.26511389025056,5.719211667357982,0.17330944446538865,7.105687223081134,4.173844133855972,3.875316989673442,3.81280777823865,12.131661112577532,7.625615556477307,19.43849112828883
182,4,182,0,6.066666666666649,8.007473099836359,34.52038803180926,4.188336385516396,5.228917300262246,9.050068948553804,9.763840186593299,13.912896196963473,31.321402735229263,26.095953985088013,22.086722712679517,24.347568344686096,26.782325179154697,11.652050564956923,5.739069681247443,0.17391120246205105,7.478181705867868,3.8260464541649597,3.631372518073873,3.478224049240879,12.521606577267136,7.3042705034058315,19.490472945850517
183,4,183,0,6.099999999999982,8.364603744905821,34.61646173453497,3.849586172008379,4.928890024967741,9.068353986959112,9.764926049235571,14.28953139754745,31.384685463258908,26.490204688291367,22.30560998641552,24.396760922641974,27.184962170943905,11.50133014924549,5.576402496603876,0.0,7.667553432830331,4.196798629516812,4.311018094585471,4.008039294434042,12.89543077339647,7.6675534328303385,20.24148173309677
184,4,184,0,6.133333333333315,8.025845465135623,34.97342556667518,4.197946114467268,5.24091454053545,9.090909090909081,9.786242364708079,14.293438428519181,31.74169569356936,26.504326794751364,22.48601899120699,24.752051912801505,27.541015508610116,11.85309528218663,5.577927191617235,0.34862044947607274,7.321029438997627,4.197946114467268,3.9748846917963925,3.834824944236864,12.898956630614869,7.669649888473707,20.24701614103813
185,4,185,0,6.166666666666648,7.670343357323809,34.862353448756366,3.83517167866192,4.873466749678984,9.054393203804823,9.746933499357967,14.583245423409352,30.93378654544545,26.062334565784152,22.222088264242828,24.305409039015586,27.430390201174745,11.284654196685807,5.034691872367517,0.5208301936931861,7.118012647140276,3.819421420416738,3.9589185833240044,3.819421420416731,12.847144777765386,7.638842840833476,19.125494922513916
186,4,186,0,6.1999999999999815,7.7339630078017,34.836274958716366,3.866981503900843,4.951162465176827,8.780464719161012,9.478599356331644,14.704202326307922,31.208037548502777,26.278501761758452,22.40640354485015,24.50700387717987,28.0080044310627,11.553301827813357,4.901400775435974,0.7002001107765636,7.352101163153961,3.866981503900843,3.65515188704025,3.6760505815769875,12.953702049366498,7.352101163153961,19.28412632211416
187,4,187,0,6.233333333333315,7.6488975303002436,34.905081827552195,4.182269114093528,4.911825974495143,9.090196248308295,9.403292832282327,14.244295326035896,30.96009281090736,26.06972169304719,22.22838690927189,23.964979636558752,27.438165091132475,11.461512000093308,5.2097781818605995,0.3473185454573695,6.946370909147461,3.8205040000311,3.883139387445187,3.8205040000311,13.198104727380176,7.293689454604838,20.192324814714983
188,4,188,0,6.266666666666648,7.316939925093735,35.01635055924077,3.8955178713790093,4.582824710693902,9.085830925408432,9.465387007762592,14.982305560906212,30.693121263653783,26.14121800498311,22.47345834135932,24.04137403959369,27.525631146781194,10.801197032281223,4.87795995006249,0.6968514214374864,6.620088503656234,3.832682817906239,3.637671215488741,3.4842571071874886,13.588602718031218,7.316939925093735,19.93652823496156
189,4,189,0,6.299999999999981,7.6245629265973465,35.17434436640113,3.5306994784483052,4.896199233768958,9.373376703367091,10.135250678893742,14.545090863136794,30.537528286355418,25.657205227448788,21.811454785502022,23.19630905759739,27.004658305859635,10.559513824727176,5.366310304369534,0.5193203520357628,6.751164576464916,3.8083492482622603,4.0523259187385845,3.8083492482622603,13.156115584905983,7.270484928500679,19.437355965339897
190,4,190,0,6.333333333333314,7.023889445676925,35.63587347606463,3.874229969118879,5.307905987405694,9.528700174533471,10.226215577901034,14.385285204266566,30.566152626664923,25.276366404965287,21.746890636856634,22.799159538640026,26.6574788451791,10.34731086753662,5.787478959808624,0.5261344508916892,6.1382352604030785,3.85831930653908,3.9992371413649206,3.858319306539073,13.32873942258955,7.015126011889237,20.042277629000065
191,4,191,0,6.366666666666648,4.921555501322652,34.8906294329849,4.571868545759469,6.002098028245447,9.843111002645273,10.571855432268036,13.69317617723816,29.17958848921185,23.185120139828772,20.688132338439374,22.09071758172341,25.59718068993348,10.168743013809177,5.259694662315098,1.753231554105028,5.610340973136104,3.5064631082100632,3.7765763455696524,3.3311399527995462,13.675206122019247,7.0129262164201265,19.365075461814357
192,4,192,0,6.399999999999981,4.147113174027936,32.8440425248065,5.229767507517595,6.647609554137018,9.388426750566616,10.419492896423158,12.82889498482337,28.81713200974972,22.1853328334169,20.044380341135025,21.772344163646665,26.610642866679257,11.404561228576824,4.492705938530264,3.110334880520952,5.875076996539576,3.45592764502328,3.7221479859965183,3.45592764502328,13.82371058009312,7.257448054548888,19.40250239475031
193,4,193,0,6.433333333333314,3.4588795668193555,31.18504193864403,5.891265074788622,7.260303226288679,9.053735467559092,9.78924086950923,12.77613119054278,29.383852074309704,22.12355479382798,20.306111452111836,22.715311115921722,28.566224585174282,12.906426770410079,3.613799495714815,4.646313637347632,6.711341920613236,3.785885185986956,3.593254704477063,3.441713805442703,14.111026602315007,6.88342761088537,18.32207585543757
194,4,194,0,6.466666666666647,3.1489420947591156,31.965838639014645,4.880798308204806,6.297884189518217,9.101291704464558,9.835642658158354,13.602021712940589,27.925691554819853,21.630029573620853,19.99519266012041,21.907776305871067,26.428428559463512,10.606145671889976,3.6512960509785017,3.651296050978516,5.390008456206388,3.477424810455723,3.424866247461612,3.1296823294101586,14.952926684959614,7.302592101957018,18.202583408929115
195,4,195,0,6.4999999999999805,2.395210457202751,32.47038945427808,4.50058212160623,6.537204504606136,8.955522406383931,9.678111752325691,13.020567700135562,26.427182452326914,19.89316978154518,18.648424273935703,20.872548269909686,25.32079626185765,10.094101212497307,3.2506427633465904,4.277161530719198,5.303680298091805,3.763902147032887,3.5723901895063563,3.4217292245753583,14.371262743216505,7.527804294065788,18.2510045946958
196,4,196,0,6.533333333333314,2.7816604150404993,33.72231033944862,3.8108981963303576,5.277829553194369,9.37293516336119,10.10038301449316,13.46030057929683,25.271574172635667,20.03805676272678,18.631215610030225,21.39139570040507,25.531665835967345,10.005652827608827,1.7251125564842908,4.485292646859122,5.865382692046552,3.467433325020174,3.273170939187718,3.2777138573201228,14.83596798576481,7.93551775982769,18.787101459224925
197,4,197,0,6.566666666666647,2.4565798374662235,35.95177525169747,3.83730037588188,5.6018639209460535,9.783234748069312,10.128738147635906,13.201688388148696,25.052297055877734,19.46752337778748,18.239174746784386,20.844771139182157,24.318899662379195,9.38014701263198,2.431889966237918,3.8215413755167305,5.211192784795543,3.8215413755167305,3.9611159657852073,3.8215413755167162,14.591339797427516,7.9904956033531676,18.530494810646957
198,4,198,0,6.59999999999998,5.150020252608397,35.39141869592366,3.4428286173767164,4.505860779439346,9.646978508496153,10.32848585213015,13.017821552474487,26.07167861438199,21.593050471357866,19.012870951640366,21.23960358561625,23.980197596663515,9.59207903866539,3.425742513809084,2.0554455082854304,5.82376227347541,3.783856281694796,3.576580186477258,3.5970296394995245,14.045544306617202,7.879207781760869,18.919281408473907
199,4,199,0,6.633333333333313,6.918465570990247,34.315169034743185,3.4721484475440327,5.228237874746354,9.698413719087222,10.41644534263207,13.491881546343892,29.095241157261654,23.8789495720664,20.38400932789345,22.45695942903515,25.22089289722409,10.364750505708543,5.182375252854271,0.6909833670472381,6.564341986948747,4.145900202283414,3.939211271297578,3.8004085187598093,14.51065070799195,8.291800404566828,19.424499869926453
200,4,200,0,6.666666666666647,9.888760535344243,33.231751998968825,3.424889005511775,6.171954792177351,9.90636142830232,10.953072824951578,13.308243431937749,32.77959825007956,26.616486863875483,21.640113773442096,23.173665143213597,26.581557076039118,11.586832571606791,7.838151445498724,0.681578386565107,7.83815144549871,3.7641396705618035,3.8855946332012654,3.5782865294667943,14.313146117867213,8.519729832063817,19.132817055043468
201,4,201,0,6.69999999999998,8.293799231721065,34.04947473094527,3.8136912196853774,5.910162497209813,9.72304297399665,10.753540590227662,13.483434613955662,31.488281721050768,25.587677943406007,21.40707354450116,22.44289968375122,26.240928861001436,10.87617446212559,7.07814528487539,0.17263768987501749,6.732869905125369,4.157666140988272,3.9367450288274446,3.798029177250214,14.156290569750773,8.63188449375047,18.695952439230677
202,4,202,0,6.733333333333313,3.0775751269954696,37.0888751320312,3.4872479171328252,5.1746847266843305,9.629478050291613,9.969551399046118,14.366087549108926,26.04459369269177,20.884331095665402,19.320332741693818,21.20107309707994,24.6206010159638,8.548819797209646,3.077575126995484,2.735622335107081,4.787339086437399,4.117656885006083,3.8231484387913506,3.761480710772247,13.678111675535447,8.548819797209653,18.175040194226245
203,4,203,0,6.766666666666646,0.764482204833066,38.70726734356088,3.4359201734659095,5.173686625704609,9.938268662829953,10.27937225244633,13.675473420765329,22.947203977768133,17.79126008128387,17.436228611475798,19.4875496245906,21.880757473224534,7.008680128142231,2.2222644308743753,3.5898117729508954,3.5898117729508954,3.7607551907104693,3.569403354181245,3.4188683551913357,13.675473420765329,8.547170887978332,18.881317626662742
204,4,204,0,6.799999999999979,0.6831670569484913,38.65331195607386,3.432871975389803,4.794353289465488,9.911809947268948,10.270252843047462,14.009089700894558,22.9090270973753,18.116812368068267,17.76234348066086,19.811844651506334,21.861345822351822,6.831670569484956,2.049501170845474,3.415835284742471,3.7574188132167308,3.7574188132167166,3.8190199483132554,3.7574188132167166,14.004924667444136,8.88117174033043,18.155413574548234
205,4,205,0,6.833333333333313,4.116020812743075,38.67972274377443,3.4352175661906097,5.127253852233451,9.936236397959426,10.618354432660317,13.676948983430114,26.339871846765917,21.217444044138194,19.141747715004897,20.850832332416047,22.901733873309425,8.203606163573525,4.443620005268983,1.3672676939289232,4.785436928751224,3.7754913216455033,3.897312560374317,3.759986158304528,14.014493862771438,8.887240010537987,18.508684137788094
206,4,206,0,6.866666666666646,6.840295713743785,37.406474669847725,3.0970756073350185,4.836819484509514,9.94198803138551,10.992463753790592,13.342960726271047,28.078559896425034,23.2670625106267,19.836857569856974,21.54693149829292,24.62506456947763,9.747421392084888,4.959214392464247,0.8550369642179731,6.327273535212996,3.7621626425590904,3.823841550532893,3.5911552497154986,14.022606213174761,9.234399213554113,18.155799409707836
207,4,207,0,6.899999999999979,6.494521546162375,36.99368827127068,3.4352175661906097,5.172628664611272,10.27727023570396,10.986104399729637,12.98904309232475,28.047739698614627,22.904284603826138,19.654473100228245,21.5344661793805,23.92718464375612,9.741782319243555,5.298162313974572,0.5127253852233338,5.9817961609390125,3.418169234822301,3.821629383830563,3.759986158304528,14.014493862771438,9.229056934020214,18.877456608227526
208,4,208,0,6.933333333333312,3.762162642559076,35.67461781546866,3.777676781130946,6.165759233809938,9.600812545788978,10.311618170221708,13.34296072627103,27.038642905646856,20.87411251446959,18.981820605639,20.86290192691854,23.59902021241605,8.89238442786693,4.788206999620641,1.7100739284359463,5.130221785307839,3.777676781130946,3.5707391931536043,3.4201478568718926,13.68059142748757,8.892384427866922,18.519397969675303
209,4,209,0,6.9666666666666455,2.699684745847577,34.52668818416047,4.06356365000582,6.083657361713401,9.809602740493466,10.8460905629286,12.14858135631414,24.981202790721134,18.900806021784593,17.547950848009307,19.91017500062594,22.609859746473532,9.11143601723559,3.712066525540436,3.0371453390785206,5.06190889846421,3.391436989000711,3.5231920280098805,3.3746059323094784,13.498423729237935,9.111436017235604,17.914040842040713
210,4,210,0,6.999999999999979,2.726313546260428,34.89554872182046,4.443347457029379,6.1719547921773374,9.90636142830235,10.990121256314689,12.268410958171899,25.579628675384395,19.427973166006353,18.0618272439753,20.106562403670623,23.173665143213597,9.371702815270211,3.919075722749355,3.237497336184262,4.941443302597023,3.7641396705618035,3.8101390108855124,3.748681126108096,13.631567731302113,8.86051902534637,17.773389828117516
211,4,211,0,7.033333333333312,3.396942158127402,35.12181933134155,3.752045249102037,6.123924565456808,9.565875970527177,10.281012537443727,12.573275609465727,25.836866046109705,19.713974630812963,18.003793438075206,20.041958732951628,23.099206675266288,9.001896719037603,4.246177697659249,2.8874008344082824,4.925566129284718,3.752045249102023,3.464214870167509,3.396942158127402,13.587768632509587,9.171743826943967,18.356064609533455
212,4,212,0,7.066666666666645,4.397619721127431,34.56770661956382,3.38964251140975,5.743706105959499,9.497948371293173,10.542424336036998,12.821154522858535,26.342569126467094,20.599070632869445,18.381870964013657,20.574204198253824,23.947024558623298,9.443897009034544,4.04738443244338,2.698256288295582,5.733794612628117,3.7254018526400534,3.845606888167316,3.710102396406441,13.15399940544097,8.432050900923699,17.2311183178785
213,4,213,0,7.099999999999978,6.516754568981895,35.80397453734738,3.7884161513057633,5.498501220837229,10.312452932696903,11.023713684429163,12.352297763716956,28.14375693904147,22.647538613169125,19.378770165656675,20.92221203725765,24.009095780459603,10.118118936050834,5.659286862536902,0.8574677064449929,6.345261027692899,3.4298708257799433,3.5808902707112584,3.4298708257799433,14.062470385697758,8.574677064449851,19.23481834003947
214,4,214,0,7.133333333333312,9.584145188226275,33.6972104073131,3.078655293788728,5.825290053936972,9.632857802855545,10.65379713531384,13.00326697504664,31.487425935491473,25.66458110208174,20.86644143567912,22.234732677362985,25.655460781572685,10.94632993347102,7.525601829261319,0.6841456208419316,7.525601829261319,3.7783176852634597,3.9002301203658476,3.5917645094201873,13.68291241683876,8.893893070945197,18.522539889796665
215,4,215,0,7.166666666666645,9.243758731493015,34.01023214191314,3.0791417400473478,6.509407452143056,9.634379852968634,10.99606585794128,13.347333061289985,32.176299085527084,25.668636261969738,21.04080189032355,22.58037276034723,25.65951450039458,10.776996090165724,8.039981210123628,0.5131902900078842,7.355727490113125,3.763395460057879,3.900846380443321,3.763395460057879,13.68507440021044,8.895298360136792,19.186576800462664
216,4,216,0,7.199999999999978,8.90547227215084,34.33586047227296,3.099342328860754,5.828564682042468,9.607839293347398,10.659786060020833,12.668433178338981,30.49234406728328,24.664469723187253,20.19364108906332,21.56270150188118,24.300822327516883,10.267953096133894,7.529832270498176,1.0267953096133766,7.187567167293736,4.121417611256656,3.573352584758507,3.593783583646868,13.69060412817852,9.241157786520503,18.852563386561496
217,4,217,0,7.233333333333311,6.821133231018877,36.23074950220714,2.749686712197932,5.127205874913767,10.622149358610354,11.301281862440467,12.960153138935851,27.634009454638054,22.512323276679236,19.09917304685284,20.804456354607566,23.191852985464166,9.038001531100022,5.62743491559057,0.5115849923264193,5.968491577141521,3.7516232770603892,3.8886442406673973,3.5810949462849067,13.30120980048681,8.86747320032454,18.786000296551304
218,4,218,0,7.266666666666644,4.773460854200806,37.22106534429116,3.0875376054721815,5.46602849487642,10.591780849896244,11.637730407959223,12.96102216319733,26.256248640402752,20.798650864732068,18.411920437631665,20.798650864732068,22.844419802246705,8.864998729230052,4.43249936461504,2.045768937514623,5.796345322958118,3.409614895857729,3.234644704484465,3.239134151064846,13.297498093845093,8.524037239644294,19.48260037950505
219,4,219,0,7.299999999999978,5.1158499232641645,36.532884127304655,3.088399424271172,5.80798566222401,10.578255991680328,11.275520985851806,12.282775800509945,26.26357749969472,20.46339969305663,17.905474731424547,20.804456354607566,22.509739662362293,9.379058192650945,4.604264930937745,2.2168683000811313,6.309548238692457,4.092679938611326,3.8131293970352367,3.751623277060375,13.301209800486802,9.208529861875476,18.786000296551332
220,4,220,0,7.333333333333311,5.838478079245647,37.105815033501585,3.090958983130065,5.495038192231206,10.646636497447957,11.338718712086626,12.020396045505748,26.444871300112666,20.94983310788146,18.030594068258637,20.94983310788146,21.98015276892481,9.44459689289738,4.979878361709538,1.2020396045505635,6.69707779678177,3.7934175397766143,3.5024133712655656,3.43439887014452,13.050715706549106,9.27287694939016,19.93135268321583
221,4,221,0,7.366666666666644,7.921808734157565,37.223562732134994,2.755411733620022,5.177865154494515,10.338532848505075,11.3712907865394,12.059845708934212,27.898543802902736,22.73475594404407,18.77124243528641,20.665588002150173,22.04329386896019,9.299514600967584,6.544102867347547,0.688852933405002,6.544102867347561,3.4614431509823005,3.17545512203203,3.0998382003225373,13.432632201397617,9.643941067670085,19.659481360517262
222,4,222,0,7.399999999999977,7.605902836830481,39.0911510447287,2.7657828497565475,4.494397130854381,10.377446134510496,10.722983268043292,12.446022823904428,27.312105641345838,22.817708510491457,19.014757092076223,21.089094229393623,22.47198565427189,9.334517117928328,5.531565699513081,0.34572285621956667,6.9144571243913475,3.4572285621956667,3.52569518031722,3.457228562195681,12.791745680124002,9.680239974147895,19.388241345418024
223,4,223,0,7.4333333333333105,8.387456502354738,41.6010185886021,2.4463414798534586,4.20826461452545,10.490143633462022,11.538046587133476,12.586037669721668,27.60871098691767,23.41759063046753,19.221254484562934,20.61916390162206,21.667595964416407,8.56219517948712,6.4653310538984385,1.922125448456299,6.4653310538984385,3.1452961883830284,2.8818640907901973,2.9705575112506466,12.930662107796877,10.134843273678634,19.233958553685884
224,4,224,0,7.466666666666644,7.56508526552317,41.91419581953472,2.7481026124604,4.122153918690614,11.34112682189996,12.022948929514286,11.699625290199993,26.1273064766595,22.008960892082925,18.206179807550186,19.923743940337957,20.610769593453057,8.587820663938771,5.839718051478371,1.030538479672657,6.183230878035914,3.1106409443688237,3.167031776097683,2.9198590257391714,11.335923276399178,9.961871970168978,18.896328046499487
225,4,225,0,7.499999999999977,5.236048574575299,43.1902039087873,2.7863741618813407,4.5412342844828135,11.493793417760486,11.842090187995666,12.582145500823916,25.099126565109714,20.59668198099877,17.937283667111046,20.549509443874797,20.897806214109963,8.184974100526404,4.35370962793958,0.1741483851175758,5.398599938645063,3.1539613968487816,2.872128745482148,2.7863741618813265,11.145496647525313,9.404012796349484,19.1689835159112
226,4,226,0,7.53333333333331,4.193616101850871,42.139564241569644,3.1343477535051676,4.888074124608302,10.471017495851259,11.149787816117898,11.845989667168526,24.05270138477998,19.16700723016793,17.06478221352819,20.895651690034526,20.895651690034526,9.054782399014954,3.134347753505182,1.7413043075028725,6.268695507010349,3.4999783417851953,3.2108064953396798,3.134347753505182,10.79608670651784,10.099564983516693,18.109564798029936
227,4,227,0,7.566666666666643,8.330120172105978,38.873894136494584,3.123795064539749,4.165060086053003,9.71847353412366,11.106826896141314,12.15304931101236,27.769236457749695,23.604559136483694,19.436947068247292,22.213653792282628,22.213653792282628,10.065561874628074,5.553413448070657,1.0412650215132402,6.941766810088325,3.143018600224474,2.798315662575808,2.950250894287535,10.7597385556369,9.718473534123653,19.089858727742893
228,4,228,0,7.599999999999976,9.755564607538986,37.635057883290905,3.4841302169782153,4.877782303769493,10.452390650934632,11.497629716028086,12.214348848927505,30.319941324544388,25.443694355602855,20.556368280171426,23.69208547545182,24.38891151884745,11.84604273772591,6.271434390560785,1.0452390650934689,8.710325542445517,3.1550140986159856,3.5531295928540234,3.3099237061292968,11.149216694330264,9.755564607538979,20.207955258473618
229,4,229,0,7.63333333333331,8.304050870771462,37.036775431278315,3.806023315770247,5.190031794232155,10.731644936393668,11.423311200718443,11.769159233463201,29.06623751116043,23.87665338356184,19.722120818082203,22.49013777500602,23.52814413385245,11.24506888750301,6.055037093270855,0.1730010598077456,7.439045571732763,3.1899819241124616,2.853206571724416,2.768016956923816,11.418069947310748,9.342057229617886,19.72515569088898
230,4,230,0,7.666666666666643,7.646038801490975,36.46969389515315,4.18070601651544,5.902208533572036,10.42144699055987,11.478250784855607,11.131717739254004,28.825029972944982,22.92497511642526,19.095380549791855,21.872890447943405,22.91445665975023,11.283633961240653,6.422991639475441,0.17359436863448252,7.117369114013343,2.8629916715693513,2.966381871557899,2.7775098981515356,11.457228329875122,9.37409590626146,19.792803305262506
231,4,231,0,7.699999999999976,6.596228218548944,35.42664344489261,4.16603887487301,6.2586944912212275,10.767865152106568,11.477628220652836,10.76786515210657,27.77359249915341,21.527333762089764,18.22642007756943,21.524534186843894,22.566043905562154,11.283021952781084,5.728303452950385,1.21509467183796,7.116983077908074,2.7989732665548286,2.862836386921804,2.7773592499153494,12.845286530858452,9.720757374703695,19.097500672433924
232,4,232,0,7.733333333333309,5.49361282799579,34.076594088355456,4.819158151923515,6.18984460590172,10.666003516079032,11.41350950556911,10.649411330483188,27.12688635752674,20.944398906733937,18.19759249273605,22.31780211373288,24.721257725981033,12.87565506561512,3.605183418372235,3.605183418372235,8.068743841118803,3.450632851996992,3.257311709922272,3.090157215747624,12.017278061240773,8.92712084549315,19.239903518865855
233,4,233,0,7.766666666666643,4.823458496103612,33.87652316160038,4.4921574613134085,6.899262936571232,10.358925877243795,11.073391916960324,10.680515241372305,26.882387199804807,19.985869373074493,17.57117023580605,20.327432233579543,23.083694231353036,11.025047991093984,5.167991245825306,2.411729248051813,6.2015894949903725,3.462511282105736,3.5135584278053207,3.44532749721688,14.470375488310857,10.335982491650611,17.928949348140016
234,4,234,0,7.799999999999976,3.4817641415173455,33.513675483562025,5.234239225902135,6.972227259921727,10.121099692670173,10.815908507081392,10.097116010400299,25.77446310277189,18.80474994353397,17.06064429343499,20.194232020800598,22.631466919862746,11.31573345993138,4.352205176896675,3.655852348593214,6.093087247655362,3.499129656432805,3.550716659864916,3.307675934441477,14.623409394372857,10.097116010400306,18.48288845708527
235,4,235,0,7.833333333333309,2.0954000111791258,33.558240802473584,5.8663109407604095,7.586421164803858,10.013696727803767,11.109199079705366,9.301004275612044,24.824198834228987,17.23785575016638,16.19063707236171,20.668898390248984,23.76923314878634,12.918061493905626,2.5836122987811194,6.0284286971559595,6.717391976830925,3.119413921745546,3.51303720721155,3.272575578456099,13.09030231382436,8.612040995937079,18.63069323834946
236,4,236,0,7.866666666666642,2.436214436690528,33.25410396351718,5.52328015015645,7.587546743245248,10.044769449129642,11.110847323945091,9.653067402135319,25.188619445030238,17.601543932176902,16.365305611780144,21.016497733022916,24.461825230239796,13.092244489424118,2.411729248051813,5.857056745268679,6.890654994433746,3.4625112821057225,3.5135584278053344,3.27306112235604,13.092244489424118,8.613318743042178,18.273232345959013
237,4,237,0,7.899999999999975,2.0882136905036406,33.07105615868346,6.179403887927663,8.23920518390355,9.636896294070787,10.664432097504598,9.961623474666741,26.443032016980045,18.20786156433596,17.165010799799077,22.314514039738796,25.060915767706646,13.73200863983925,2.74640172796785,6.522704103923644,7.2093045359156065,3.791874822953978,3.9142246970984385,3.776302375955794,12.358807775855325,8.925805615895513,17.52176859734832
238,4,238,0,7.933333333333309,5.590988996271818,33.286493090330396,4.556098613994589,5.950694486572238,9.441262765654779,10.157738058907624,13.283195923186927,29.354772137762186,23.412266421888233,20.616771923752324,23.062829609621247,25.50888729549017,11.007259586410129,5.066833777871338,1.9219024674684277,6.464581026939285,3.511796500724203,3.3150486752170467,3.3196497165363894,13.278598866145565,9.434793931208695,18.549796486546516
239,4,239,0,7.966666666666642,9.054782399014968,36.26096371288973,3.8466669434305016,4.888074124608314,9.757521084153598,10.818531817453977,13.600021403329224,31.343477535051818,26.47011656476209,21.94043427453626,24.029999443539722,25.77130375104261,11.318477998768714,6.442825937760645,0.5223912922508589,7.487608522262391,3.499978341785184,3.5515778572241423,3.656739045756055,12.18913015252015,8.70652153751439,18.835085900663827
240,4,240,0,7.999999999999975,8.769986552533894,38.26287945618197,4.209593545216265,5.623743192120736,10.529828897572395,11.231062691297984,13.334994543392865,31.922751051223358,26.312298216751,21.924966381334713,24.205162884993527,25.608360733398953,11.576382249344732,7.015989242027118,1.0523983863040627,7.366788704128467,3.5254909620747306,3.5774666052253368,3.332594889962877,12.277981173547445,9.4715854767366,20.358461741312915
241,4,241,0,8.033333333333308,8.3044982698962,38.0685745037372,4.152249134948093,5.190311418685113,10.0405661789252,11.078069614935723,12.130483143915638,29.76583137384991,24.57721917934915,20.415224913494797,23.529411764705884,24.22145328719722,11.764705882352942,5.882352941176464,0.3460207612456685,7.9584775086505175,3.477465612844608,3.13335125887108,3.2871972318339147,11.764705882352942,9.688581314878896,19.726218427320727
242,4,242,0,8.066666666666642,7.368012863779768,38.24510474595187,3.859435309598936,4.912008575853193,10.174874907124462,11.227448173378718,12.674660536708927,28.78958389466115,23.881534609400575,20.17432093653987,23.50746961301168,23.858327368429755,11.052019295669666,5.087437453562231,0.17542887770903803,7.54344174148882,3.5260768026574034,3.177152104013169,3.333148676471808,11.578305928796794,10.174874907124455,19.660560944343167
243,4,243,0,8.099999999999975,5.633488519252296,38.384600416350786,3.5384911832186297,5.281395486799042,9.858604908691518,11.266977038504592,12.680238406365769,27.120307230527235,21.841122898702544,19.0130237524765,22.886047109462453,23.59023317436899,10.562790973598055,3.873023356985968,1.7604651622663425,7.04186064906537,3.888994655082595,3.5384911832186434,3.5209303245326993,11.2669770385046,9.858604908691525,20.069302849836305
244,4,244,0,8.133333333333308,4.209878492673738,37.89053058077052,3.508232077228115,5.2623481158421725,10.524696231684345,11.226342647129968,12.323835566775585,25.28118789808859,20.02460025530135,17.891983593863387,22.101862086537125,22.452685294259936,9.998461420100128,2.9819972656438978,2.6311740579210863,6.490229342872013,3.874968982506131,3.5257296026169134,3.508232077228115,10.875519439407164,9.472226608515918,19.99999999999999
245,4,245,0,8.166666666666641,3.888994655082581,38.02604750495303,3.8730233569859536,6.337674584158847,10.562790973598055,11.272477149663771,11.640389483511163,25.72448657785837,19.39390300134266,17.42860510643679,20.773488914742842,20.773488914742842,9.154418843784981,4.929302454345773,1.7604651622663425,5.633488519252296,3.188338013319077,3.24613736580599,3.1688372920794308,11.2669770385046,10.210697941144794,19.36831736619035
246,4,246,0,8.199999999999974,3.5084263954559134,37.19097467312351,4.210111674547079,6.3151675118206185,10.525279186367726,11.232445043996444,11.248870758417038,25.270413796939863,18.958492254187462,17.19128933773392,20.699715733189834,21.050558372735424,9.648172587503737,4.385532994319874,2.6313197965919244,5.788903552502248,3.8751836140039546,3.525924890018942,3.5084263954559134,11.226964465458892,10.174436546822122,19.647187814553064
247,4,247,0,8.233333333333308,3.8190761099583597,36.45647065545264,3.819076109958374,6.249397270840973,10.068473380799361,11.11003959260617,11.478250784855621,25.354288056547503,19.108001423971967,17.185842494812675,21.178512973405518,20.83132423613658,9.547690274895928,4.339859215861779,2.2567267922481307,5.728614164937554,3.8348249442368534,3.881688087778355,3.6454817413238914,11.457228329875122,10.41566211806829,17.362908403700516
248,4,248,0,8.26666666666664,5.932683846837474,37.27820135070735,4.180550293021483,5.922446248447088,10.799754923638801,11.501790567186742,11.517607843374824,27.541793330900404,21.624780650671905,18.638286723054094,22.29626822944789,21.94788903836276,10.625565328096272,5.3998774618194005,1.219327168797932,6.793394226159904,3.5011675393921897,3.1547077493885585,3.3096023153086804,11.148134114723945,9.754617350383455,19.50923470076691
249,4,249,0,8.299999999999974,7.3676954304574025,36.13679187319579,3.508426395455899,5.613482232729453,10.180483760756816,11.577807105004496,12.324518174377982,28.78834356386442,23.179522955882394,19.471766494780255,23.155614210008963,23.155614210008963,10.876121825913302,5.613482232729453,0.7016852790911798,7.3676954304574025,3.525924890018942,3.234609312804564,3.3330050756831184,11.577807105004482,10.174436546822122,18.594659895916294
250,4,250,0,8.333333333333307,7.985677872110543,34.7272819478406,3.4720338574393566,5.208050786159049,10.074882673394686,11.115932072878712,12.171942524821302,28.826246149293535,23.620039887380813,19.61699129453241,22.56822007335589,23.26262684484375,10.763304958062022,5.902457557646926,1.4210854715202004e-14,7.291271100622666,3.88185186270762,3.2938605308186295,3.2984321645674015,11.804915115293845,10.416101572318098,18.752197400762896
251,4,251,0,8.36666666666664,6.619204630617347,36.92819425502307,3.483791910851224,5.584943296108663,10.451375732553714,11.153576211272012,12.908847642314338,28.58620564606841,23.003581134373494,19.683424296309468,22.993026611618134,22.993026611618134,10.10299654146857,5.574067057361972,0.3483791910851153,6.967583821702462,4.195040978734671,3.8479739364108516,4.006360697478925,11.84489249689419,10.10299654146857,19.512344981328816
252,4,252,0,8.399999999999974,5.942748328736442,37.410890640141275,3.4957343110214367,5.243601466532155,10.137629501962152,11.186349795268598,12.976662991055122,27.63620629406798,22.39726548536709,19.401325426168967,22.372699590537195,23.071846452741482,9.788056070860023,4.894028035430011,0.6991468622042873,6.64189519094073,3.5649634932468266,3.5649634932468266,3.4957343110214367,11.885496657472885,10.137629501962167,18.880201793089395
253,4,253,0,8.433333333333307,3.143302619051098,37.83764011864126,3.4711970513687618,5.206795577053143,10.066471448969395,10.413591154106257,12.885577193077589,24.68458015815002,19.488228927136245,17.876664814549102,21.86854142362317,22.215661128760047,9.198672186127212,2.6033977885265642,2.9505174936634546,6.074594839895326,3.8340624594163732,3.488509862265748,3.4711970513687476,11.4549502695169,10.413591154106278,19.094739155458164
254,4,254,0,8.46666666666664,2.1110397934038487,38.182117991239004,3.1234752377721122,5.217347664437455,10.070513213068445,10.758636930103961,13.229041078364535,23.663301158976946,18.446109566657597,17.35264020984512,21.517273860207936,20.82316825181414,7.982214496528755,2.4293696293783142,3.1234752377721264,5.205792062953535,3.88016830983099,3.5392580416942123,3.4705280419690183,11.105689734300874,10.41158412590707,19.782009839223434
255,4,255,0,8.499999999999973,2.0959970408621325,37.56551924239374,3.1012181182148595,5.513276654604169,9.992813936470071,10.343135129506871,12.447870426649443,23.12795325004347,17.627538198609766,16.539829963812522,21.01936724567841,20.33020766385289,8.269914981906268,2.412058536389324,3.1012181182148453,5.168696863691409,3.5140381557077762,3.5140381557077762,3.445797909127606,10.681973518295592,10.681973518295592,19.296468291114593
256,4,256,0,8.533333333333307,3.833323514381989,38.547865965456715,3.4705280419690183,5.563679696706122,10.764233100537062,11.111111111111116,12.191387564332123,25.047981657709716,19.48447292938,17.526166611943566,21.864326664404842,20.476115447617232,9.023372909119445,3.8175808461659386,1.735264020984502,5.899897671347333,3.8333235143819864,3.4878375161400985,3.6440544440674785,11.79979534269468,11.45274253849778,18.40689029571063
257,4,257,0,8.56666666666664,3.121043961315681,38.28227530292191,3.7912781235425257,5.525346540258403,10.362801397101125,11.029172723032815,11.420736979388598,23.84401063643988,18.319017849949127,16.716089908346603,22.058345446065616,20.679698855686524,9.995187780248472,2.4126315331634345,3.101954828352973,6.548571304300722,3.85343436629497,3.806912326462875,3.79127812354254,10.339849427843255,10.684511075438031,20.346717299352427
258,4,258,0,8.599999999999973,7.023543811592759,38.957303778258556,3.1760770942733023,4.91034656632749,10.89551508143437,11.5797013433814,12.295892312354361,27.393594770177632,22.49109823757703,18.939908184406065,23.4995157102816,22.096559548473735,10.522171213558934,4.559607525875521,0.3507390404519697,7.716258889943219,3.5248837320135276,3.5248837320135276,3.50739040451964,10.52217121355892,10.87291025401089,20.004428153268375
259,4,259,0,8.633333333333306,8.046408270113607,38.11141356123484,3.512568616394074,4.893190969067177,10.885540475732702,11.539244587435888,11.929633251847136,28.36449089974919,23.482531155829125,19.398007055944873,23.417413923392914,22.36887300144994,11.009679680401149,5.4174614300386565,0.5242704609714792,8.213570555219903,3.9076812977579656,3.5125686163940713,3.669893226800369,10.485409219429663,11.533950141372628,20.283839771500023
260,4,260,0,8.66666666666664,9.093129445599446,39.85421115737409,4.2082646145254525,5.242160313971709,11.232313076194941,11.88736830688377,11.902769783833374,30.43664870475336,25.2011704083032,20.619163901622045,24.463414798534643,23.414982735740296,12.056968722134926,6.4653310538984385,1.2231707399267293,8.56219517948712,3.563983697909789,3.5122039427594487,3.494773542647806,10.13484327367864,11.183275336472981,19.94778043008449
261,4,261,0,8.699999999999973,10.48758215671649,40.19375173309622,4.542096248324157,5.949931686456672,11.551092495179681,12.233710964903576,11.96125602477222,32.90968664212884,26.95984528987294,21.662305184315215,26.204401432639358,25.15622537533379,13.800984754523398,7.162536391588091,1.2228720668565103,9.608280525301097,3.983681939057062,3.859160987504002,3.8433122101204304,9.43358451575017,10.831152592157608,20.291827002508267
262,4,262,0,8.733333333333306,8.961202837464157,39.3050305362087,4.150275827194864,4.4938380839619345,10.70672422015477,11.394703809040417,12.14168189714781,29.712952607081004,25.21924862445306,20.679698855686524,24.47097697922905,23.43699203644472,11.890826842019734,5.686917185313803,0.861654118986948,8.444210366071985,3.85343436629497,3.4466164759477493,3.4466164759477635,8.961202837464157,10.684511075438031,19.350227000459
263,4,263,0,8.766666666666639,1.56820546092043,41.40181218569368,4.558598217295781,5.271596774656135,10.893103264893117,11.24305981918426,12.667567287757157,23.937617460075767,18.66757423173964,17.88373146785267,22.442329685148437,21.03968407982667,9.117196434591563,2.103968407982663,3.1559526119740013,5.259921019956664,3.576058656095457,3.524103468498919,3.506614013304443,10.169180638582887,11.571826243904667,18.59828206882201
264,4,264,0,8.799999999999972,2.1559103064411165,41.84669980752493,4.6211949209409635,5.328243284277782,11.010156276586029,11.347279684307834,12.803687993289598,24.901035197808397,19.574007317156788,18.430332497205256,23.392345092606675,21.97462720820627,9.924025190802837,2.126576826600612,3.189865239900911,5.670871537601627,3.614485578663557,3.2094953651177587,3.367079975450963,9.924025190802837,11.34174307520324,19.86070454315995
265,4,265,0,8.833333333333306,5.695966471221442,41.03164385263822,4.592234981665385,5.6630097829988655,10.973480769184816,12.031222120908083,12.093292466420369,28.01599640038386,22.355377630047013,19.42868646089198,23.667672597813876,21.54817952935292,10.597465342304716,5.298732671152365,0.35324884474347584,6.358479205382821,3.6880262130406054,3.5324884474349147,3.3558640250631697,10.597465342304716,11.657211876535186,19.441527629815972
266,4,266,0,8.866666666666639,8.504652988112815,42.38961985326177,4.237637930324226,5.308805579233241,11.322417333338585,12.364821074706446,12.027395599065995,30.068488997665,24.759880158037863,20.481916663233775,23.66014511097694,22.60073562839588,11.123799567101102,6.886161636776876,1.58911422387159,7.239298130970553,3.54897784392522,3.5313649419368573,3.3547966948400187,10.240958331616888,11.653504308391632,19.08244533364915
267,4,267,0,8.899999999999972,9.545687706020056,45.58824891322831,4.606491272039803,5.663857962202282,12.017454082967946,13.430114505644406,12.033024101265822,31.846189627549546,26.182496625425262,21.374756038867375,23.671217431472968,22.611312173347315,11.129005210319377,8.655892941359525,3.0030648980227,6.889384177816751,3.2572812159359956,3.199283440754913,3.179715774376959,10.245750828547997,10.952354333965097,19.44443949118473
268,4,268,0,8.933333333333305,11.97693374737107,46.832019310049056,4.225325919256946,5.644760620634171,12.680867238283556,13.736822732937078,12.369055766235668,34.200062810137,28.555705123955104,22.535071569370416,23.94351354245606,23.59140304918465,11.443591031320906,10.387259551506673,4.4013811658926585,7.2182651120639605,3.538666662269217,3.168994439442713,3.168994439442713,11.267535784685208,11.267535784685208,19.01722663953264
269,4,269,0,8.966666666666638,13.446146707025047,48.411183599443525,4.240282685512369,5.653710247349821,12.725754844783825,14.134275618374573,12.740463870897495,36.070106445723944,30.421545229725634,23.674911660777383,24.02826855123675,24.381625441696116,11.484098939929325,11.837455830388691,5.830388692579504,7.597173144876322,3.5511927989826435,3.5511927989826577,3.5335689045936363,11.307420494699642,10.954063604240282,19.437841045194467
270,4,270,0,8.999999999999972,14.440555063707876,48.94244837726674,4.225247341922298,5.644655646425611,13.03260326375355,14.084157806407717,11.992228246199762,36.294043927304024,30.651250091304313,23.414912353152786,23.590964325732884,23.590964325732884,11.619430190286337,12.675742025766922,6.689974958043649,7.394182848364039,3.538600854565903,3.1884368320831538,3.168935506441727,11.619430190286344,11.267326245126156,19.717820928970752
271,4,271,0,9.033333333333305,14.740927881833729,48.7728917240792,4.210500397122573,5.274808364266708,12.987116913399428,14.39015468447112,12.650979230989105,36.86860211853937,31.59629185951512,24.210377283454804,23.859502250361246,23.5086272172677,11.052563542446762,13.157813741008042,7.543813211511278,7.192938178417734,3.1773085600187807,3.157875297841926,3.157875297841912,11.578876092087079,11.228001058993527,20.35075191942579
272,4,272,0,9.066666666666638,15.848589315389411,49.64790484743685,3.889115189870217,5.293282963587529,13.398468886771875,14.78836569672805,12.680631415351174,37.701438469677335,32.4107808544677,24.471224188633357,23.943068270893065,23.590964325732884,11.091274272546059,13.908105833827591,8.274442711264513,7.570234820944137,3.538600854565903,3.1884368320831538,2.9928835338616295,12.323638080606727,11.619430190286344,19.36891766426937
273,4,273,0,9.099999999999971,16.786755966004737,50.349342576723245,3.496482123383558,4.5454267603986125,12.941707969824881,14.335576705872597,12.606745579602627,37.42706066285131,32.883666177937094,24.475374863684905,23.42643022666985,23.42643022666985,10.83909458248904,13.985928493534217,8.741205308458888,7.3426124591054815,3.9091858549992344,3.513921045147743,3.496482123383572,11.53839100716575,10.839094582489032,20.98180627308958
274,4,274,0,9.133333333333304,14.532784971794683,48.09784253828563,3.8219013475863397,5.20180151628935,12.807366597428983,14.190985394732255,13.153262302105832,36.69266765159409,31.495304660468925,24.221308286324486,22.145196147496677,21.79917745769204,8.823476590018203,14.705794316696995,9.16949527982284,5.709308381776481,3.133332501174678,3.1333325011746815,2.941158863339396,13.148710212576148,12.456672832966873,18.352043223618146
