,video_id,frame_seq,gap,time_seconds,m1,m3,m4,m5,m6,m7,m8,m9,m10,m11,m12,m13,m14,m15,m16,m17,e1,e2,e3,b1,b2,b3,label_measures
0,53,167,1,5.572233333333338,17.86078195718983,149.9076661613665,17.860781957190284,24.5472968552072,42.09826679741139,42.09826679741139,36.214298417007385,95.99881848335129,71.69076506289701,62.51273685016531,71.44312782876023,53.5823458715704,26.7911729357852,32.74476692151529,8.930390978594914,14.883984964325007,17.86078195718983,17.860781957190284,17.860781957190284,47.6287518858403,59.53593985730004,53.91208649688404,{}
1,53,168,0,5.605600000000004,13.003403680018891,150.80584944627532,19.50510552002788,33.15230455376935,45.97397460323643,45.97397460323643,35.01273593529959,99.45691366130852,66.30460910753918,58.51531656008365,78.02042208011153,58.51531656008365,35.7593601200515,29.2576582800416,3.250850920004723,22.75595644003306,26.006807360037328,19.50510552002788,19.50510552002788,39.010211040055765,52.0136147200742,52.41839603674197,{}
2,53,169,0,5.638966666666671,14.379561038245296,142.7854932384542,19.29220558087445,25.72294077449897,39.11663507805113,39.116635078050905,32.7904442390411,90.94432926854174,65.5808884780818,57.87661674262336,70.73808712987329,51.44588154899884,28.938308371311905,28.938308371310995,3.2153675968120297,16.076837984062422,20.335770241257883,19.29220558087445,19.29220558087445,45.01514635537342,57.87661674262336,57.87661674262336,{}
3,53,170,0,5.672333333333338,13.070918311243531,131.3611032818281,13.070918311243076,26.141836622487062,33.32443376480383,39.212754933730366,46.21267487107836,98.24949445521209,72.18650578692355,65.3545915562172,84.96096902308227,71.89005071183874,32.677295778108146,19.606377466865524,6.535459155621538,19.60637746686507,26.141836622486608,26.141836622487062,26.141836622487062,52.28367324497367,52.28367324497367,52.28367324497367,{}
4,53,171,0,5.705700000000005,9.717156665802628,144.94532500592797,13.742134744481518,34.355336861204705,48.58578332901215,41.79507115502186,35.03570661026771,90.3747811187406,56.66027307296954,51.53300529180751,68.71067372240987,54.96853897792789,27.484269488963943,27.48426948896349,6.871067372241214,13.742134744482428,20.61320211672273,21.728222852749305,20.61320211672273,54.96853897792789,54.96853897792789,48.097471605686906,{}
5,53,172,0,5.739066666666671,13.981399634375066,147.46897419674875,20.97209945156237,27.96279926875013,41.9441989031252,48.93489872031273,22.106533860835523,84.17917302060968,56.36082376714944,48.93489872031296,62.91629835468757,48.9348987203125,34.95349908593744,27.96279926875013,0.0,13.981399634375066,20.972099451562823,20.97209945156237,20.97209945156237,48.93489872031296,48.93489872031296,48.93489872031273,{}
6,53,173,0,5.772433333333338,0.0,133.7873126289029,22.161505654593384,29.54867420612481,37.6673165944562,37.66731659445638,39.78112010807632,89.86878414050227,60.91615242440785,59.097348412249175,81.25885406684347,66.4845169637806,36.935842757656246,14.774337103061953,7.387168551531431,22.161505654593384,22.161505654593384,22.16150565459384,22.16150565459384,44.32301130918722,44.32301130918722,51.7101798607182,{}
7,53,174,0,5.805800000000005,7.525766947069314,158.22018935200433,22.577300841206124,30.10306778827453,45.77745319738676,45.77745319738676,33.65625295293396,91.55490639477364,62.05906407309407,56.443252103015766,67.73190252361928,60.20613557655088,33.86595126180964,26.340184314740327,3.7628834735342025,18.81441736767192,16.828126476466625,22.57730084120658,22.57730084120658,45.154601682412704,52.68036862948156,52.680368629481336,{}
8,53,175,0,5.839166666666672,10.643041683803622,105.62917269340802,15.05153389413772,30.10306778827453,30.10306778827521,38.37403251785518,45.77745319738635,84.14063238233378,54.78841037577596,56.443252103015766,90.3092033648254,82.78343641775609,41.391718208878046,3.7628834735342025,33.86595126180873,26.340184314740327,16.82812647646703,22.577300841206124,22.577300841206124,45.154601682412704,45.154601682412704,45.154601682412704,{}
9,53,247,1,8.241566666666673,32.810591327802506,161.07293741982122,10.375619997282456,23.2005916226296,47.829244918461136,49.21588699170377,47.829244918461136,113.3034806244486,90.601206600743,72.62933998097685,93.38057997554176,51.87809998641205,25.939049993206027,36.31466999048848,15.563429995923684,20.7512399945648,21.389888590033085,16.405295663901253,15.563429995923627,20.75123999456485,77.81714997961814,64.16966577009936,{}
10,53,258,1,8.608599999999997,15.23878635518933,159.3163915828992,14.45678209772791,29.312390817582,43.63724325101904,48.42962065460467,49.14360934671608,107.75449168807296,78.44645405527359,69.87444680568547,77.10283785454953,86.74069258636814,33.73249156136535,24.094636829546744,4.818927365909303,14.45678209772791,19.86894653182382,19.27570946363744,21.68517314659221,57.82712839091221,53.0082010250029,48.18927365909349,{}
11,53,265,1,8.842166666666659,6.043426966215661,145.94594594594594,8.108108108108127,24.47401388685794,29.7297297297298,32.43243243243239,32.87979746107142,71.09700777278873,46.65588243684343,43.24324324324323,32.43243243243239,32.43243243243239,0.0,37.83783783783792,13.513513513513544,5.405405405405418,24.47401388685788,29.85232707347908,29.729729729729684,54.05405405405406,48.648648648648646,86.48648648648646,{}
12,53,283,1,9.442766666666644,8.096104433943951,144.94062127370253,12.801065092925151,18.10343986723592,46.15489657309485,46.15489657309485,40.07367242505347,76.37849647298628,58.38183933619201,54.385698291143854,40.07367242505347,62.97291381079822,11.44962069287226,22.899241385744745,0.0,0.0,12.801065092925151,18.10343986723592,20.036836212526623,57.248103464361975,34.34886207861723,46.15489657309485,{}
13,53,284,0,9.47613333333331,8.367907853106093,142.50033590501337,13.230824033112471,17.75101316182645,41.83953926553047,41.83953926553047,41.41903071092838,77.82604177904369,60.34184166546362,56.21154167911709,47.336035098203865,59.17004387275483,11.834008774550966,23.668017549101933,0.0,0.0,17.75101316182645,18.711210788999548,20.70951535546419,59.17004387275483,41.41903071092838,47.336035098203865,{}
14,53,285,0,9.509499999999976,6.118468555425807,146.97065814840295,13.681311608127045,18.35540566627742,36.71081133255484,36.71081133255484,36.71081133255484,73.67611778752652,55.40508922496396,52.00698272111936,48.94774844340645,55.06621699883226,15.296171388564517,21.414639943990323,3.059234277712904,3.059234277712904,18.35540566627742,24.473874221703227,24.473874221703227,55.06621699883226,48.94774844340645,48.94774844340645,{}
15,53,286,0,9.542866666666642,12.658608159699495,145.5739938365441,12.658608159699495,18.98791223954936,31.646520399248857,44.75493835053429,31.646520399248857,75.95164895819721,56.96373671864785,50.63443263879799,44.305128558948354,44.305128558948354,12.658608159699495,31.646520399248857,12.658608159699495,0.0,18.98791223954913,18.98791223954936,22.152564279474063,44.305128558948354,50.634432638798216,57.31428609942406,{}
16,53,287,0,9.576233333333308,0.0,154.47156019899805,12.86147038724971,19.29220558087445,39.11663507805113,45.47216463427111,39.116635078051054,71.02979181951778,51.8462446420579,51.44588154899861,51.44588154899861,45.015146355373645,9.646102790437226,22.507573177686936,3.2153675968124844,3.2153675968124844,19.29220558087445,19.29220558087445,19.29220558087445,45.01514635537387,51.44588154899861,51.8462446420577,{}
17,53,309,1,10.310299999999955,13.726953974581876,142.19991401338635,14.149420288798156,31.0757137533308,37.90479057889207,37.90479057889207,38.36800276396965,97.06422240462376,66.01080792449156,58.33955439197234,48.04433891103622,27.45390794916352,0.0,58.33955439197234,27.45390794916352,10.29521548093635,7.673600552794023,9.706422240462151,6.863476987290824,41.18086192374517,68.63476987290869,69.4026159255258,{}
18,53,310,0,10.343666666666625,14.228547426992236,129.82331272421902,14.666450985149831,29.332901970299663,36.27582049015722,39.28986077032531,39.76999908479277,97.67563592676063,68.42289359947513,60.47132656471672,53.35705285122072,32.014231710732474,3.557136856748229,53.35705285122072,24.899957997236243,3.557136856748002,7.114273713496232,10.061102372060452,7.114273713496004,39.12850542422848,67.58560027821295,64.91165636210954,{}
19,53,311,0,10.377033333333287,18.12945323979829,131.3353451441819,11.46607299425635,29.23286497099595,32.83383628604526,36.25890647959659,40.5386898390929,98.96755442197306,69.7453991791266,59.82719569133451,47.13657842347561,32.63301583163707,0.0,58.01425036735464,25.381234535717795,7.251781295919272,8.107737967818556,8.10773796781876,5.438835971939625,39.88479712755634,68.89192231123388,65.6676725720914,{}
20,53,312,0,10.410399999999957,15.159238551622366,130.23938738006444,15.625785438068409,30.55442211778068,30.55442211778088,38.08711548867594,38.64862659296492,99.69432635491772,69.1575361872451,60.63695420648901,53.05733493067783,34.108286741150096,5.6847144568582735,54.952239749630735,24.63376264638623,5.6847144568582735,5.359600188738517,8.474271972140665,5.6847144568582735,41.68790601696128,68.21657348230019,64.87109161889917,{}
21,53,313,0,10.44376666666662,12.35015042188864,130.35114268920486,15.621841911543244,31.486828998508628,35.365448769029705,39.2493920459552,39.828038372610166,98.87836168704573,67.41870081965183,60.534637407229866,54.67644669040124,35.14914430097224,5.858190716828631,52.72371645145836,21.48003262837188,5.858190716828858,7.810920955771508,8.73287511199136,7.810920955771508,39.054604778857765,66.3928281240585,59.10034123125798,{}
22,53,314,0,10.477133333333288,20.141487362769112,137.494237386159,12.084892417661422,28.48436459479425,32.22637978043076,36.25467725298404,37.13906763541037,97.4315175316452,68.9533457819368,58.41031335203024,44.31127219809196,32.226379780430534,2.014148736277093,58.410313352030016,26.18393357159948,10.070743681384329,5.696872918959069,11.393745837917496,6.042446208830825,40.282974725538224,68.4810570334148,64.9543450210965,{}
23,53,315,0,10.510499999999952,16.984793474626258,141.15017409663244,13.427658241845856,30.02515660740309,34.233945698514034,38.45096160111567,38.45096160111584,98.48983660895205,68.46789139702778,59.44677716119168,46.708182055222096,29.72338858059584,0.0,59.44677716119168,29.72338858059584,8.492396737313129,8.492396737313129,9.494788198264944,6.36929755298479,42.461983686565645,67.9391738985048,68.4678913970281,{}
24,53,316,0,10.543866666666618,17.16465520836755,142.19236013397284,12.873491406275887,30.343110236414503,34.596468612633586,38.85814091877568,34.59646861263375,94.79490675598228,64.51033724499331,55.78512942719499,38.62047421882721,25.74698281255155,2.145581901045944,62.22187513033282,32.18372851568938,10.727909505229944,4.291163802091887,12.137244094565686,8.582327604183774,34.3293104167351,64.36745703137854,68.79258900151046,{}
25,53,317,0,10.577233333333284,13.151918984428676,129.01102217967258,13.151918984428448,26.66666666666661,30.999370331684823,35.34472024573435,40.41823392521791,92.99811099505536,66.34154958396134,59.18363542992847,52.60767593771425,30.687810963666607,2.1919864974047414,50.41568944030951,19.7278784766429,6.575959492214224,6.199874066336965,12.399748132674732,8.767945989619193,35.07178395847632,65.75959492214292,66.34154958396157,{}
26,53,318,0,10.61059999999995,14.3278092368059,137.1284374789177,13.592553320611842,31.71595774809407,32.03795542214696,36.528889442753766,41.77238320916787,100.6012206389502,69.30869462134952,61.166489942752605,49.8393621755763,31.71595774809407,2.273736754432321e-13,58.9010643893173,27.18510664122323,9.061702213741,9.061702213741228,10.131291070892855,9.061702213741228,36.24680885496469,67.96276660305853,64.07591084429478,{}
27,53,319,0,10.643966666666616,13.929965161103835,135.93121115184235,14.683472545294544,32.50325204257592,32.83324275702969,37.43565651787913,38.28981181360391,98.4997282710898,66.4822495314535,58.04152150459981,46.43321720367999,27.8599303222079,0.0,60.36318236478383,27.8599303222079,9.286643440736045,10.382783008143962,10.382783008144369,9.286643440736045,37.146573762943945,65.00650408515185,60.54150825510536,{}
28,53,320,0,10.677333333333282,9.653278674478996,140.71950894605908,14.47991801171861,29.3593009078241,33.78647536067729,38.6131146979169,38.913610394901966,92.21281506115425,62.93167755275527,57.91967204687444,43.43975403515583,28.95983602343722,2.413319668619579,55.506352378254405,26.546516354817182,12.066598343098804,9.653278674479225,6.825898811407747,7.239959005859418,38.61311469791622,67.57295072135344,67.74511138438076,{}
29,53,321,0,10.710699999999948,14.988294965053,146.25859175797655,14.988294965053228,30.39007966882772,40.27983240526122,40.27983240526122,41.198882192551736,101.03983552012777,70.65550005475515,62.45122902105504,49.96098321684394,29.976589930106456,0.0,59.953179860212686,24.98049160842197,9.992196643368745,4.996098321684485,7.06555000547614,4.996098321684485,39.96878657347497,69.94537650358143,70.6555000547552,{}
30,53,322,0,10.744066666666614,15.3985421264897,145.17884744036692,15.398542126489474,31.22189168940985,36.29471186009193,41.06277900397163,37.367692938519895,98.73229059761758,67.51206660415977,59.02774481821007,46.19562637946888,25.664236877482608,0.0,61.59416850595835,30.79708425297917,10.265694750993134,7.258942372018391,11.477395649741712,10.265694750993134,35.92993162847574,66.72701588145492,67.51206660416022,{}
31,53,323,0,10.77743333333328,20.751239994564912,141.59965597977697,11.600295811314624,26.45274441588333,36.68335629546551,36.68335629546554,36.6833562954658,94.66864882212376,68.2349870424719,57.0659099850534,46.69028998777094,25.939049993206027,0.0,57.0659099850534,31.12685999184737,5.187809998641342,0.0,7.336671259093333,5.187809998641342,41.502479989129824,72.62933998097697,68.23498704247193,{}
32,53,324,0,10.810799999999944,16.22066002983229,142.23298170722535,17.098076948508076,27.034433383053965,37.84820673627473,38.232462341387006,38.23246234138655,97.9228825099486,71.11649085361265,62.17919678102362,48.66198008949687,27.034433383053965,4.547473508864641e-13,59.47575344271809,32.44132005966412,10.813773353221222,5.406886676610611,12.09016615553935,5.406886676611066,43.255093412886026,70.28952679593976,71.11649085361317,{}
33,53,325,0,10.844166666666611,11.134763237000245,140.18308723427447,17.60560651781515,27.836908092500835,33.404289711001184,38.97167132950108,39.36733295894759,95.29822274943994,67.73012060176727,61.24119780350157,44.53905294800097,27.83690809250038,2.783690809249947,58.45750699425162,30.620598901750785,13.91845404625019,11.134763237000245,15.746933183578768,8.351072427750069,38.97167132950108,66.80857942200169,67.04015231539896,{}
34,53,326,0,10.877533333333275,16.896381511084655,136.22298275595062,11.2642543407228,28.71832634470988,34.25889211774976,34.25889211774984,39.82515314667644,96.40648807884006,67.81979200169403,59.13733528879584,45.05701736289211,28.160635851807456,2.8160635851809275,59.13733528879629,30.976699436988383,8.448190755542328,7.965030629335578,7.965030629335417,5.632127170361628,39.42489019253048,67.58552604433817,67.81979200169356,{}
35,53,327,0,10.910899999999945,22.89924138574452,138.4646897192841,11.449620692872486,23.60399774498546,34.34886207861746,34.82266186836595,41.67724841734549,98.82554904372418,75.29812385418803,62.97291381079822,51.52329311792573,34.348862078617,2.862405173218121,54.385698291143854,25.76164655896264,8.587215519654364,8.096104433943951,8.096104433943951,5.724810346436243,45.79848277148949,68.69772415723423,63.23259703131627,{}
36,53,340,1,11.3446666666666,5.117073052583917,177.62951931957795,14.918703406013064,25.32821938716336,47.177082499512856,50.78549997400664,58.00603508579324,101.89273341118644,76.7560957887591,74.17549963383556,54.27475582963581,65.12970699556291,1.8091585276545168,41.61064613605407,9.045792638272644,9.045792638272644,14.918703406013092,14.473268221236196,14.473268221236223,47.03812171901765,25.32821938716336,55.34960781415951,{}
37,53,341,0,11.378033333333263,5.532921568652345,192.34364476386668,15.649465443868962,27.664607843260725,54.91267865309756,54.9126786530971,56.01656149031041,103.58539467628644,75.96441386922794,72.37877767789388,50.86076269257404,66.510228136443,3.912366360967326,43.03602997063956,11.737099082901636,11.737099082901636,11.737099082901691,11.73709908290175,11.73709908290175,46.94839633160683,27.38656452677065,47.11112956247258,{}
38,53,342,0,11.411399999999931,4.109757745910883,189.4504712356487,16.43903098364376,29.0603757116756,49.317092950931055,53.5846851638858,58.84277601936687,104.77867471269488,75.78018849425949,73.97563942639692,53.426850696842166,65.75612393457504,2.0548788729554417,43.15245633206485,10.274394364777322,10.274394364777322,16.439030983643704,16.43903098364376,16.43903098364376,45.207335205020286,28.768304221376525,53.58468516388581,{}
39,53,343,0,11.444766666666595,4.235947881853463,178.36308517638707,17.46526054149245,29.651635172972988,50.83137458223973,55.06732246409274,55.715195604031294,103.06506022413296,73.97764939238115,72.01111399150568,50.83137458223928,63.5392182277991,2.117973940926504,44.47745275945954,10.589869704633315,10.589869704633315,12.70784364555982,12.70784364555982,14.825817586486435,46.5954267003861,25.415687291119696,59.90534944022477,{}
40,53,344,0,11.478133333333265,4.33529519725198,169.5760012631307,13.00588559175594,30.65516632422324,47.88490056972573,47.88490056972572,57.021905522225794,101.20848543371822,70.57349274719734,69.36472315603135,52.02354236702354,65.02942795877937,2.16764759862599,41.18530437389359,6.502942795877971,10.838237993129953,9.694014763583787,13.00588559175594,10.838237993129953,39.0176567752676,26.011771183511712,52.20386714469327,{}
41,53,345,0,11.511499999999929,4.573295603800034,179.29418626591917,13.71988681140067,32.33808333817772,50.51370098228906,55.0697715499354,55.63654227754738,102.26199851298274,69.95797057561651,68.59943405700358,45.73295603800239,64.02613845320332,0.0,45.73295603800227,9.146591207600409,13.71988681140067,9.146591207600409,10.226199851298228,11.43323900950054,41.15966043420213,22.866478019001192,55.069771549935865,{}
42,53,346,0,11.544866666666596,4.797045929281012,182.85493413635925,14.391137787843943,24.46023080100605,52.985104104940525,52.76750522209432,58.35858246950357,97.84092320402438,73.38069240301833,71.95568893921927,52.76750522209409,67.15864300993792,2.3985229646407333,35.97784446960964,7.195568893921859,11.992614823203212,9.594091858562592,9.594091858562592,9.594091858562592,38.376367434250255,19.188183717125185,47.97045929281285,{}
43,53,347,0,11.57823333333326,7.223347474429463,179.4242290503831,15.323033946107104,25.538389910178463,51.07677982035693,51.331528432196464,53.32572368126633,99.17316742345643,74.36891397655683,68.9536527574819,51.07677982035693,66.39981376646404,7.661516973053494,38.3075848652677,7.661516973053608,7.661516973053608,10.215355964071364,15.323033946106989,12.769194955089231,45.9691018383212,25.538389910178463,56.416147271123016,{}
44,53,348,0,11.611599999999926,7.619393177595,178.12114075466857,16.163173753210913,26.93862292201834,48.78792112998652,54.14596195411256,54.94422557947555,103.634951599513,77.14047653770653,72.73428188944922,53.87724584403645,64.65269501284365,5.387724584403486,43.10179667522948,10.775449168807429,10.775449168807429,10.775449168807311,10.775449168807311,10.775449168807311,43.10179667522925,21.550898337614623,59.50936309591376,{}
45,53,349,0,11.644966666666592,7.731002358028616,170.2576658128029,10.93328838546222,27.333220963655776,49.50256857834341,49.50256857834341,61.11894011875701,105.15300057568956,78.27043336812396,73.79969660187089,49.19979773458067,65.59973031277423,2.733322096365555,46.46647563821489,13.666610481827774,13.666610481827774,10.933288385462332,10.933288385462332,10.933288385462332,43.73315354184945,21.86657677092478,44.07349450003768,{}
46,53,350,0,11.678333333333258,5.86651544288361,176.3861307223637,17.599546328652877,29.33257721442169,46.93212354307434,47.297359584906985,53.12355675414855,100.418569041731,71.36924063878526,70.39818531461196,58.66515442884338,70.39818531461196,11.733030885768583,35.19909265730598,5.8665154428842925,5.8665154428842925,11.733030885768583,11.733030885768812,14.666288607210843,46.93212354307457,23.46606177153717,53.1235567541483,{}
47,53,351,0,11.711699999999924,0.0,170.83485989757236,11.719174706180866,29.8781502550101,47.24150353928552,47.241503539285546,59.75630051001963,101.15216090945556,71.28495678877603,70.31504823708565,52.73628617781424,70.31504823708565,2.9297936765451595,38.08731779508821,8.789381029635706,8.789381029635706,13.102435641608425,11.719174706181091,11.719174706181091,41.01711147163337,23.43834941236196,58.888124089652514,{}
48,53,352,0,11.74506666666659,6.222713912870631,180.88734707825915,13.914411313712334,19.677949192289617,56.349071085488966,56.004425215835,56.349071085488895,95.18921900769682,75.70258205194882,71.56120999801146,56.004425215835,68.44985304157603,6.222713912870631,31.1135695643527,6.222713912870404,6.222713912870404,12.445427825741035,12.445427825741035,12.445427825740808,43.55899739009397,24.890855651482298,50.16912345948553,{}
49,53,353,0,11.778433333333256,6.222713912870404,168.47358685435006,13.914411313712538,25.65690674076602,43.55899739009419,43.55899739009328,50.16912345948567,95.18921900769682,69.5720565685612,65.33849608514083,49.78171130296437,62.22713912870563,6.222713912870631,37.33628347722333,6.222713912870631,6.222713912870631,6.222713912870404,12.445427825741035,9.334070869305606,43.55899739009397,24.890855651482298,49.78171130296505,{}
50,53,354,0,11.811799999999922,6.633581268066564,179.22949623661813,14.83313864966599,20.97722585091847,53.481641977437775,53.06865014453342,60.06963322747692,101.47428099262524,80.70099915816704,76.2861845827656,59.7022314125993,66.33581268066587,3.3167906340331683,36.48469697436644,9.95037190209996,9.95037190209996,13.267162536133128,6.633581268066564,9.95037190209996,39.80148760839961,19.90074380419992,53.06865014453251,{}
51,53,355,0,11.845166666666588,9.553643543848624,176.8069454229679,13.510892269788885,20.26633840468344,47.76821771924303,54.04356907915553,55.70683592468076,96.72326896202055,77.02393668587594,70.93218441639169,47.2881229442612,67.55446134894464,3.3777230674472776,37.15495374191937,10.133169202341604,10.133169202341604,13.51089226978911,6.755446134894555,6.755446134894555,33.77723067447232,20.26633840468344,54.464147944266216,{}
52,53,356,0,11.878533333333252,0.0,178.12247653131686,15.881020420107124,21.306624726852988,43.20104617854231,49.71545769599015,57.25983343138679,93.41496460204604,72.42859683401485,71.0220824228436,49.71545769599038,63.91987418055919,0.0,35.5110412114218,7.102208242284405,14.20441648456881,14.20441648456881,14.204416484568585,14.204416484568585,42.613249453705976,21.306624726852988,50.22019609518226,{}
53,53,399,1,13.313299999999886,22.97221554186241,170.02198702343688,13.132341543393864,28.10443819770382,41.02674651327497,46.57817731199168,45.52965957303456,109.63735718513394,81.58979117706224,68.71616141061781,63.144580755702805,44.57264523931963,9.285967758191646,53.85861299751127,24.143516171298188,1.8571935516383744,17.122478515127064,17.618885036863848,16.714741964744917,37.14387103276636,68.71616141061781,54.999274886061954,{}
54,53,400,0,13.346666666666552,44.54575819913929,187.23682929475245,13.981480209290648,25.62271928700534,46.727879237319634,50.520572659777336,30.06064256537209,113.19575084029768,87.58845887541152,62.41638020753169,61.45612820433894,28.807560095783856,18.244788060663154,64.3368842139173,39.37033213090456,10.562772035120815,12.883132528016713,12.146333831314085,10.562772035120702,38.41008012771181,80.66116826819484,63.8405112807701,{}
55,53,401,0,13.380033333333218,40.90977293544487,186.9145701508476,13.931789494748225,23.670895294574244,46.91440416737169,50.3410206154319,31.677015009731527,109.61552902000074,85.9665602720499,62.1945500089239,65.06506770164344,30.618855389008672,19.136784618130378,57.41035385439136,34.44621231263477,11.482070770878297,15.428569006504311,12.103165297073442,11.48207077087818,42.10092615988697,80.37449539614784,63.122387452197856,{}
56,53,402,0,13.413399999999884,34.733055532292376,178.4291875792409,15.695506325924146,25.39398595754878,44.79976710650923,48.526341730341336,31.50620941567859,106.67308181018484,81.31156281817415,60.90751099231579,68.5209498663553,34.26047493317765,22.8403166221184,51.39071239976647,28.550395777647964,15.226877748079003,13.856667909581905,13.856667909581905,12.37183817031405,43.77727352572703,78.03774845890462,62.782025303696685,{}
57,53,403,0,13.44676666666655,34.5068248075355,182.17143044934824,13.766413712942535,25.228584447097035,44.14496057718835,48.21026964018936,32.312778821143574,105.48790719904764,80.27129612470611,60.510795237143725,68.07464464178668,37.81924702321487,22.691548213928968,49.165021130179184,28.364435267411068,15.127698809285905,15.593275015804185,13.766413712942429,12.291255282544796,43.49213407669697,73.74753169526883,63.79020725919728,{}
58,53,404,0,13.480133333333216,34.68165812284495,177.47450704304427,15.67228037149106,27.211636856731246,44.36862676076112,50.712816702072885,30.704214383831623,107.86314983984036,80.67800108536078,60.81738105030752,70.32009683941806,39.911406314264354,26.607604209509645,49.41412210337489,24.707061051687447,17.104888420399107,15.322668800127124,15.672280371491004,13.303802104754766,43.71249262990858,76.02172631288448,60.400206437494056,{}
59,53,405,0,13.51349999999988,38.99095012364119,181.97227222731985,13.917303161463796,23.256695704004,46.51339140800795,48.73868765455137,30.22645093729316,106.1804928859582,82.99899430375639,61.17403554891371,70.73247860343145,42.05714943987812,27.71948485810151,46.836370967136986,27.71948485810151,18.16104180358377,15.412526315591274,13.517679802869946,12.42597597087314,43.9688380507817,74.55585582523855,64.48939220272138,{}
60,53,406,0,13.546866666666547,36.612269689564286,181.18150211495504,13.85682478610429,23.155632505473896,42.94223872036072,47.0870520618732,30.095100299575066,103.43261725797127,80.32629769872071,59.95650991545983,72.32848815198338,43.77776914462152,29.50240964094064,42.82607851104274,23.7922658394682,21.88888457231076,13.856824786104236,13.45893801190484,11.420287602944711,41.87438787746402,70.42510688482588,58.635265630075104,{}
61,53,407,0,13.580233333333211,34.56907211494056,178.45360184558652,15.27292728821518,26.7904867128444,44.22459424231874,48.70419118841992,29.952674720112444,106.25392089157684,79.51856934654141,60.6199514430092,73.88056582116747,45.46496358225693,31.25716246280172,44.51777684095976,21.785295049831348,19.890921567237456,13.395243356422183,13.260614378158207,12.313427636861206,43.57059009966281,70.09181885597934,57.95668412267826,{}
62,53,408,0,13.61359999999988,36.98428501759194,182.7293585724209,13.595693566309231,25.2894518936154,44.886383577694296,49.43301447936969,29.84866326497881,105.5922475169208,80.31822107006292,60.565724828730936,73.06341407910418,46.14531415522367,30.763542770149115,44.222592732089424,23.072657077611893,21.14993565447753,13.595693566309231,15.50147569148429,13.459049961940252,42.29987130895506,71.14069265596987,55.05836258193055,{}
63,53,409,0,13.646966666666543,35.852604982073665,176.78035273450365,13.661935125575493,21.39665874057196,42.33827652442168,46.42479503450246,30.94986335633494,101.57997324629144,80.23472706887455,60.989861188082045,75.06444453917788,46.915277836986206,30.96408337241087,38.47052782632864,21.581027805013605,23.457638918493103,13.269644439913588,13.269644439913588,11.259666680876704,39.408833383068384,65.68138897178062,55.22468278667736,{}
64,53,410,0,13.68033333333321,36.54948380711802,179.9217779829798,13.52757086480416,21.388967571057464,46.54742586080575,50.65167650238471,29.699103290858485,100.95955211904445,79.57155900935673,60.262253676353,74.61040931357991,47.82718545742307,32.52248611104767,38.26174836593839,21.04396160126612,22.9570490195631,15.423803861336776,13.39161192807842,12.435068218929928,40.17483578423537,68.87114705868919,60.40632218266437,{}
65,53,411,0,13.713699999999877,34.82800187420852,178.6785863289933,13.598050179396363,23.156645032819565,43.00081030415385,47.14426543653226,31.715830583901145,103.07644939767874,79.98613077512772,61.537750353703245,76.92218794212909,51.9224768609372,33.65345722468146,37.49956662178795,18.26901963625562,24.038183731915296,13.59805017939639,13.59805017939639,11.538328191319351,42.307203368170974,69.22996914791617,56.94969912713711,{}
66,53,412,0,13.747066666666544,35.68235056958691,185.01271704530097,15.8844876815659,23.724689376695054,44.05564216950929,48.300738375053,28.68695580493608,103.65722465980792,80.00679286023095,61.07707462372571,78.80912854674295,53.1961617690514,38.41945016653722,36.44922195286858,16.746939816182817,26.59808088452576,13.931617303701094,13.791597495680035,12.80648338884572,41.37479248704005,66.9877592647315,58.3467043681266,{}
67,53,413,0,13.780433333333209,36.91739177726327,183.369219641098,15.57906023651531,21.343443734124413,41.30880942715949,45.48199022953151,27.66696423808897,101.3882632753334,80.06998106018156,60.8688549499426,77.29378406341914,52.17330424280794,37.680719730916735,35.74837512933141,18.35727371506209,26.08665212140386,11.753993338148208,11.753993338148208,10.627895308720156,40.57923663329507,67.63206105549182,59.11837698282021,{}
68,53,414,0,13.813799999999874,34.05742150430618,186.5720101632915,16.041117960509037,23.87586970495113,44.49005640183185,46.44898254338453,30.43588138238617,104.14855183888696,80.47659702164461,62.67415797549654,79.5862323498369,55.71036264488589,37.80346036617243,35.81380455742669,15.917246469967496,25.86552551369698,10.145293794128689,14.068991145914453,11.937934852475564,39.79311617491845,67.6482974973614,56.975071694265104,{}
69,53,415,0,13.84716666666654,38.39420070469277,193.96971984038703,14.210331220302926,24.11573176507943,46.61335220818288,53.2081559325055,33.143903102161794,109.42877749508789,85.56932391661955,65.31344019709013,80.38577255026485,60.28932941269864,38.18324196137587,38.18324196137576,16.077154510052992,26.12537607883609,14.630431442515931,14.067510196296324,13.062688039417992,42.20253058888903,62.298973726455245,60.822873701576434,{}
70,53,416,0,13.880533333333206,40.99814666130685,176.3828218481991,15.72207154842611,23.482108540236712,45.23183718276321,49.7175556291565,29.51011019300291,109.63906871458296,86.15748174365281,65.32777955200254,78.0033188680627,60.45257212274862,39.976700919882205,39.97670091988209,16.575705259463348,26.326120117971183,13.789168931665904,13.789168931665904,12.675539316060169,42.90182537743448,60.45257212274862,59.309458156194495,{}
71,53,417,0,13.913899999999872,32.521414698435144,180.981843078168,17.099291997098362,24.69897732914194,47.83879680148139,51.85776025210083,26.868945165860183,100.98220401315652,76.37589234669602,59.84752198984416,72.19701065441518,58.89756132333866,38.94838732672406,35.14854466070199,12.349488664570911,25.648937995647543,15.199370664087382,15.19937066408744,14.249409997582006,39.89834799322938,53.19779732430584,57.281919260021816,{}
72,53,418,0,13.947266666666538,32.73517747314945,180.0206219837004,15.299275901211672,22.94891385181768,44.02697270632471,48.15324050075182,26.84194626971927,97.70148016524072,74.80430718977892,58.32848937336973,68.84674155545292,59.28469411719561,37.2919850092037,33.46716603390064,12.43066166973449,21.992709107992027,17.211685388863202,17.21168538886326,16.255480645037494,43.98541821598377,49.72264667893819,61.31651270103538,{}
73,53,419,0,13.980633333333204,29.803571195071072,186.81131594157628,17.882142717042598,25.82976170239488,45.87125811501208,47.85100284416235,25.82976170239499,99.34523731690354,73.51547561450866,58.61369001697312,69.54166612183246,65.56785662915638,41.72499967309943,31.79047594140912,7.947618985352278,25.82976170239488,19.869047463380696,19.869047463380696,18.875595090211675,47.68571391211367,47.68571391211367,69.57004468498965,{}
74,53,420,0,14.01399999999987,31.69069928787337,179.04660415709787,18.64158781639605,22.447444278999548,46.60396954099019,50.33228710426943,28.20984125379955,100.81980109212128,78.38338802880413,62.449319184926935,65.24555735738625,70.8380337023051,40.079413805251534,32.62277867869318,10.252873299017892,21.43782598885548,16.777429034756494,16.880675726387626,15.845349643936627,50.33228710426943,42.875651977711016,63.40880674938487,{}
75,53,421,0,14.047366666666536,31.573820695590435,172.6783333440033,16.789395726738572,22.55583957502671,46.3890315505211,48.206043391434605,26.023233134464856,96.57240260371763,74.18631604141359,58.403475647314735,61.18459353528215,70.45498649517333,39.862689727532256,30.592296767641187,8.343353663902235,21.321903807749777,20.478967402637984,20.478967402637963,19.4678252157716,51.91420057539091,38.9356504315432,61.21267918906117,{}
76,53,422,0,14.0807333333332,32.82917418630382,175.85667950229185,16.515600890221112,22.188007849009185,45.63253753987912,49.37867594674494,25.598856523318705,96.93858569779836,74.86647851334806,58.36297633120682,58.36297633120682,74.77756342435873,41.036467732879714,30.09340967077856,6.383450536225723,22.79803762937763,20.3911847571546,18.329395406470347,17.326508598327052,54.71529031050636,32.82917418630382,63.93864002424269,{}
77,53,423,0,14.114099999999867,38.56742807084856,173.8131661207193,16.630614998521345,24.155967412665536,44.2298412167516,47.89121330322973,29.61338531391865,108.7445096698195,84.66050421491296,65.19731888167269,60.60595839704786,80.8079445293971,41.322244361623575,37.64915597392371,10.100993066174624,22.956802423124145,20.28529364509169,20.28529364509169,19.28371403542434,58.769414203197925,34.894339683148814,59.02711323595904,{}
78,53,424,0,14.147466666666531,53.17331041254007,170.01560391390808,14.773871986908532,25.915085804667207,40.48065810139901,44.131800887381296,29.37678162866548,123.11711515050165,97.27654733896244,70.55022169391896,62.30409188553893,84.29377137455253,43.979358978027335,49.47677885028088,20.157206198262656,27.48709936126704,22.065900443690644,20.48767422536141,19.240969552886952,60.471618594787685,31.152045942769405,58.8962731184219,{}
79,53,425,0,14.1808333333332,44.40645529764812,169.68488389449084,14.90441309767638,26.144070060763607,40.83834294379207,44.71323929302925,29.63635323643287,114.98933587630331,88.90905970929857,66.55193722001582,61.00594245168122,83.18992152501983,42.51929322389901,42.51929322389901,12.9406544594475,25.881308918895115,24.3153907110483,20.41917147189604,20.335314150560407,61.00594245168122,29.57863876445151,61.25751441568811,{}
80,53,426,0,14.214199999999863,38.30708850451981,165.9596010259769,14.690097853822085,26.088249599491263,44.0702935614664,46.13144146325816,29.3801957076442,108.25684427399696,82.31699589746269,62.86184239939723,58.30663642842637,83.81578986586294,41.90789493293141,36.44164776776665,7.288329553553353,23.68707104904809,23.96575206003268,23.757047777717137,21.864988660659947,63.77288359359136,29.153318214213183,62.37805317295333,{}
81,53,427,0,14.24756666666653,37.09392685059686,168.65503516537495,14.95303995830212,24.74473554299701,41.18094185221889,43.29832208101725,29.733044250620352,106.12364375708628,81.69089994979565,63.05967564601451,57.49558661842502,81.606639071313,39.8759713643916,36.16657867933191,8.346133541384233,21.32900793909323,24.394721651986327,24.39472165198627,22.256356110358126,63.05967564601463,29.675141480477464,63.73790203368318,{}
82,53,428,0,14.280933333333197,33.436013817034336,168.65503516537473,16.794989695902565,24.7447355429969,39.34405082534213,43.29832208101725,29.906079916604376,104.6712797081153,80.09625924712721,63.05967564601463,57.49558661842502,81.606639071313,39.8759713643916,34.311882336802,6.491437198854442,21.32900793909323,20.736135497584804,20.48579068049893,20.40165976782828,63.05967564601463,31.52983782300732,65.33692728492072,{}
83,53,429,0,14.314299999999864,30.69109592897678,167.7429767645117,16.34821729108269,25.84880116158469,38.297438917810986,43.66579869832352,28.942099812845264,101.50226258281968,75.91098130645493,60.47951256592489,55.966116105781225,79.43577769852811,38.815209557235335,33.399133805063,6.318755044201112,18.95626513260333,21.96313509771391,21.739396138562416,20.76162371666078,61.38219185795356,28.88573734491933,62.04237638672756,{}
84,53,430,0,14.347666666666528,32.69183075894193,168.506968683792,18.521809219435355,25.685128021167493,38.31305140884595,40.3264689826446,29.28555176026043,105.90249583878568,80.2429051211779,63.56744869794261,58.11881023811896,79.91336407741358,39.956682038706845,36.32425639882433,5.448638459823656,19.978341019353365,23.88854994063385,22.095182576371435,21.794553839294625,63.567448697942666,29.059405119059534,60.61907879663932,{}
85,53,431,0,14.381033333333194,30.964440008278025,165.0947347392039,14.659559129973516,25.714567788897817,41.97858889789615,43.97867738992076,32.77977073479866,104.0407726511486,78.37672025629584,62.73116114289735,56.36713030231351,78.1866646128866,34.547595991740536,36.36589051762167,7.273178103524287,18.182945258810832,23.707660092981563,23.707660092981563,22.72868157351354,63.64030840583792,30.911006939978392,65.86142890568077,{}
86,53,432,0,14.41439999999986,30.951651126182643,168.40499637671485,14.653504462967495,25.703947200393948,38.34112291312572,41.96125097013788,30.951651126182643,102.18733439650184,76.53131759873766,60.88770848500928,52.70876256911254,72.70174147463808,31.80701189515412,39.077186042618,9.99648945276283,15.44912006336051,23.90605278906898,23.90605278906898,22.719294210824387,63.61402379030824,34.533327200453016,60.41794668627457,{}
87,53,433,0,14.447766666666526,30.97411520959736,168.61193691074394,12.883533474093884,29.378976511207984,42.06429287096768,43.87973385773815,32.846694294215325,105.92740623181254,76.61099773370371,61.03722703067706,54.66020331105403,72.88027108140545,30.974115209597244,41.90615587180821,9.110033885175769,16.39806099331622,25.767066948187768,25.57308376058128,24.59709148997433,61.9482304191946,32.79612198663244,59.011646491557045,{}
88,53,434,0,14.481133333333192,30.67048509085498,173.95749254197108,14.545491533401224,29.09098306680233,41.651949010528114,43.63647460020378,30.67048509085498,104.78036190618592,75.79561452390391,60.43889709080247,54.12438545444991,70.36170109078489,31.57255818176236,42.3974352726525,9.922803999982534,15.335242545427375,27.59812975934575,27.06219272722496,25.258046545409968,61.34097018170996,32.47463127266997,62.0007113585592,{}
89,53,435,0,14.514499999999858,29.020238652075587,171.12205931930498,14.481862007446352,29.189126044831305,41.79246837033133,45.40040642207101,32.58418951675446,105.13385483328308,76.05132287565749,61.54791353164728,54.30698252792399,72.4093100372321,30.773956765823527,41.63535327140846,10.86139650558482,14.481862007446352,27.393792330968537,23.60254740768936,23.53302576210035,63.35814628257805,34.39442226768523,58.3782520896626,{}
90,53,436,0,14.547866666666524,29.020238652075573,172.7421182856457,14.594563022415697,27.393792330968537,38.18690171487364,39.98934851833347,32.6344350200261,103.32608108151322,76.05132287565749,61.54791353164728,52.49674977699317,68.78884453537046,28.058607639427464,42.54046964687382,13.576745631980998,11.766512881050176,27.393792330968594,25.40782742917761,25.343258513031174,63.35814628257805,36.204655018616,56.84246138202397,{}
91,53,437,0,14.58123333333319,27.17649888236645,172.6854407236131,14.462030521243832,27.356279225653083,39.93458703717952,41.7352376938178,34.394862057402,103.10537791137946,75.92566023652967,62.36750662286363,50.61710682435319,68.69464497590786,25.3085534121766,43.38609156373127,12.65427670608824,9.038769075777282,29.4281000388306,25.373033907540528,25.308553412176536,63.27138353044137,36.15507630310936,58.10178132780474,{}
92,53,438,0,14.614599999999855,25.64903052240032,174.38200400104063,14.619342078166936,24.035927914053904,40.36897777177796,42.18921510802208,34.76899411945671,98.74821797217362,74.92412815060584,62.13220383220971,51.16769727358451,67.61445711152237,24.670139756906792,39.28948183507373,11.878215438510663,8.22337991896893,29.46622598618223,25.64903052240032,24.670139756906792,63.95962159198058,34.72093743564659,56.914602683882585,{}
93,53,439,0,14.64796666666652,10.894581964161604,169.83943189940675,16.442439267414766,27.47749018328354,39.98804659739305,43.61613986190021,32.73414491377464,87.23227972380042,59.92020080288853,54.47290982080767,47.20985517803331,65.36749178496927,23.60492758901671,30.867982231791075,1.81576366069362,7.263054642774364,23.882642173107737,21.864689852976,21.78916392832309,61.73596446358209,34.49950955317826,60.35878086080276,"{'happy': (['m1', 'm3', 'm12', 'e1', 'e2'], 4.117296873065631, 131)}"
94,53,440,0,14.681333333333187,14.545905355292234,170.0708877678013,16.46484689688336,25.71377078806225,36.54613490432104,38.35577620272765,36.41019096795167,92.80142270480846,67.2748122682267,60.00185959058058,52.72890691293446,70.91128860704976,25.45533437176141,30.91004887999611,3.6364763388230585,7.272952677646117,27.51493629506428,25.5201888319598,24.546215287055706,63.638335929403695,34.54652521881917,57.09383662126002,"{'happy': (['m1', 'm3', 'm12', 'e1', 'e2'], 4.117296873065631, 131)}"
95,53,441,0,14.714699999999851,22.036904457774995,169.9447184177883,16.629388093124245,24.15418533264072,40.56759423956481,42.59518222688941,36.774055655837465,99.23406188838024,75.29275689739802,64.27430466851058,55.09226114443754,73.4563481925835,27.546130572218885,34.89176539147718,7.345634819258294,9.182043524073038,29.61120061886864,27.54613057221883,26.62792621981157,67.94712207813973,38.564582801106326,59.478100009529655,"{'happy': (['m1', 'm3', 'm12', 'e1', 'e2'], 4.117296873065631, 131)}"
96,53,442,0,14.74806666666652,27.20927546949531,167.8665047307567,14.624546131968478,23.8588095244088,40.071502743556366,43.87363839590556,36.32435444415444,101.6460584303334,77.99992301255315,64.39528527780556,54.41855093899062,72.55806791865416,27.20927546949531,38.09298565729341,9.06975848983177,12.697661885764546,25.65315092753718,23.651036544607297,22.674396224579368,65.30226112678866,34.465082261360635,58.49818452787415,"{'happy': (['m1', 'm3', 'm12', 'e1', 'e2'], 4.117296873065631, 131)}"
97,53,443,0,14.781433333333185,20.094726130141247,170.59673411898197,16.47438087996167,27.530868841457,40.18945226028251,44.002779408632975,32.79773531887712,96.5767687257343,69.15699272186866,59.12695820565398,49.120857586235616,70.95234984678473,27.289365325686504,36.38582043424856,5.457873065137278,10.915746130274556,11.506206710612268,11.506206710612195,10.006100619418362,65.4944767816475,36.385820434248615,62.52117408852904,"{'happy': (['m1', 'm3', 'm12', 'e1', 'e2'], 4.117296873065631, 131)}"
98,53,444,0,14.81479999999985,18.734563893498407,172.724144704102,15.029328581332672,30.058657162665344,41.18061347313905,45.08798574399811,31.745480139975548,95.52790687159874,65.48479630070227,55.92476344918828,52.19644588590904,72.70219248394471,30.75861989705345,32.62277867869318,0.932079390819922,13.981190862297012,9.505382004015702,8.336771513198638,6.524555735738659,67.10971613902592,37.283175632792165,62.21935382953403,"{'happy': (['m1', 'm3', 'm12', 'e1', 'e2'], 4.117296873065631, 131)}"
99,53,445,0,14.848166666666517,20.87641727957726,174.86414114369222,13.203405597512033,28.256521914872085,43.108664332242085,45.162595769698925,33.61038347792578,95.68598311894526,67.4537685798203,56.95092755981875,52.2828187434402,72.82249753550605,28.942274661547344,32.67676171465007,0.9336217632757098,14.00432644913576,7.698842288722373,8.350566911830917,7.468974106205792,65.35352342930031,37.34487053102873,64.46724189724826,"{'happy': (['m1', 'm3', 'm12', 'e1', 'e2'], 4.117296873065631, 131)}"
100,53,446,0,14.881533333333184,27.97588428856532,172.65562526770694,15.003282327052888,30.006564654105635,43.16390631692684,47.114937375798135,33.548359168911325,106.21971783827382,76.32074466904083,62.34109273699914,52.10598795928286,74.43712565611838,29.774850262447444,42.80134725226799,7.443712565611804,13.026496989820773,9.488908906407678,10.021404735689448,8.37417663631328,68.85434123190953,35.35763468665624,69.75378293819622,"{'happy': (['m1', 'm3', 'm12', 'e1', 'e2'], 4.117296873065631, 131)}"
101,53,447,0,14.914899999999848,30.92898983352769,168.506968683792,16.446506577390362,31.08855575842044,42.126742170948,45.73107029843216,30.87561793900079,109.21466243350709,78.18158063483882,62.659342287972095,50.85395895835416,72.64851279764878,30.87561793900068,47.22153331847164,12.713489739588567,12.713489739588567,9.260904609717675,9.780605360213928,8.172957689735483,65.38366151788387,34.50804357888313,62.41538958977612,"{'happy': (['m1', 'm3', 'm12', 'e1', 'e2'], 4.117296873065631, 131)}"
102,53,448,0,14.948266666666514,32.97557256296825,173.3360249740208,14.747124369554818,29.494248739109608,42.42694904059505,46.31052232429489,32.9248018283721,109.99295646335798,80.56594945107614,64.02044799961232,51.21635839968985,73.16622628527114,29.26649051410834,47.55804708542632,14.63324525705434,12.80408959992235,9.850304671557067,9.850304671557016,8.231200457092996,65.84960365674402,32.92480182837204,63.1522447603922,"{'happy': (['m1', 'm3', 'm12', 'e1', 'e2'], 4.117296873065631, 131)}"
103,53,449,0,14.98163333333318,29.267344256867936,174.81461604904965,14.718834857860204,29.719376323002244,42.34556112787586,45.968611218669366,32.86164195102742,106.28024300461242,76.76405088571435,62.07199035194071,49.29246292654125,71.20022422722616,27.384701625856223,45.64116937642712,12.77952742539958,10.953880650342398,13.290909141426145,13.290909141426145,10.953880650342455,65.72328390205496,32.86164195102748,63.03109936811644,"{'happy': (['m1', 'm3', 'm12', 'e1', 'e2'], 4.117296873065631, 131)}"
104,53,450,0,15.014999999999846,31.25940944998547,175.76919208728532,16.62220738186607,28.079521248244045,42.378479899560325,44.39762137577275,31.205467374504792,106.86058677450406,79.016807650867,63.3287426129657,49.561624653625245,71.58901338856981,29.369851646592792,45.89039319780113,14.68492582329634,12.84931009538434,15.136875068452833,15.136875068452888,13.767117959340396,66.08216620483364,33.04108310241685,61.56842322268624,"{'happy': (['m1', 'm3', 'm12', 'e1', 'e2'], 4.117296873065631, 131)}"
105,53,451,0,15.048366666666512,30.98140972080193,174.44335309938796,14.667593136211025,29.33518627242208,44.002779408632975,47.85807472731176,30.9279473691114,105.7695182805051,76.49680676169667,60.94624922736648,47.30156656452323,70.95234984678484,28.199010836542584,46.39192105366703,13.644682662843252,11.82539164113075,16.7730344554316,15.002258092516428,14.554328173699446,65.4944767816475,34.56652941253617,62.52117408852904,"{'happy': (['m1', 'm3', 'm12', 'e1', 'e2'], 4.117296873065631, 131)}"
106,53,452,0,15.081733333333178,32.91231529176896,173.00351326646933,14.718834857860204,27.92702559283138,40.53593677969263,44.41990318750785,32.86164195102742,108.09925731637006,80.41139922744826,63.89763712699778,49.29246292654125,71.20022422722616,27.384701625856223,47.46681615148418,16.430820975513825,10.953880650342398,20.411351459654508,16.531934674340373,16.43082097551371,65.72328390205496,32.86164195102748,63.03109936811644,"{'happy': (['m1', 'm3', 'm12', 'e1', 'e2'], 4.117296873065631, 131)}"
107,53,453,0,15.115099999999844,31.14939840871716,171.29727775423262,12.934083690036076,29.494248739109608,42.42694904059505,46.05696261177995,32.9248018283721,106.34302616014892,76.91159092785952,61.27671451391461,49.38720274255809,69.50791497100761,26.52275702841075,46.64346925686039,15.547823085620166,10.06035611422476,20.45058195387478,18.65380077822711,18.29155657131776,65.84960365674402,32.92480182837204,62.860178998140746,"{'happy': (['m1', 'm3', 'm12', 'e1', 'e2'], 4.117296873065631, 131)}"
108,53,454,0,15.14846666666651,27.903056024145744,176.33950949641095,14.865882924943245,29.73176584988663,40.73276962148486,46.42785921563927,31.346059331503056,103.66837184849076,73.9625799875791,59.92628989846173,46.09714607573972,66.37989034906525,24.892458880899422,47.019088997254585,13.829143822722015,10.141372136662769,22.431839432255504,18.530823381993017,17.516915508781153,64.53600450603568,31.346059331503056,60.0325736767335,"{'happy': (['m1', 'm3', 'm12', 'e1', 'e2'], 4.117296873065631, 131)}"
109,53,455,0,15.181833333333175,27.514936295064224,177.94598228078237,12.856885394031051,25.71377078806225,40.37143903884972,44.23964403221813,32.72828704940764,98.60485134978612,72.93379172574495,59.09274050587487,43.637716065876816,67.2748122682267,22.727977117644173,42.728596981171,13.636786270586413,8.182071762351939,22.49036407504033,20.0830969963801,19.09150077882112,67.27481226822675,32.72828704940764,64.28442697015547,"{'happy': (['m1', 'm3', 'm12', 'e1', 'e2'], 4.117296873065631, 131)}"
110,53,456,0,15.21519999999984,24.33801488500427,177.42481069344322,14.918280858990324,28.00140621946501,41.08521466553378,46.84800652977955,31.456545116826305,98.50585020771332,70.53341442765893,58.28712771647213,42.55885515805903,66.61386024739681,23.12981258590161,43.48404766149508,12.027502544668891,6.476347524052471,20.68793329956246,18.87029851540101,17.578657565285255,68.46424525426886,35.15731513057051,63.88519555420759,"{'happy': (['m1', 'm3', 'm12', 'e1', 'e2'], 4.117296873065631, 131)}"
111,53,457,0,15.248566666666507,24.313313493377063,177.24473685611292,14.90313984195815,28.276719713153607,41.04351603142803,44.709419525874274,31.424618912333244,98.59666689551148,70.46182791985134,58.227970337558645,42.51566088139202,66.54625181435279,23.106337435539217,43.43991437881357,10.166788471637233,6.469774481951049,17.042392418573094,17.536477123372208,15.712309456166563,68.39475880919582,33.273125907176336,61.69694979917678,"{'happy': (['m1', 'm3', 'm12', 'e1', 'e2'], 4.117296873065631, 131)}"
112,53,458,0,15.281933333333171,24.84859300897639,178.84665124415017,15.015800169905893,30.031600339811785,43.19991970282604,47.154247266077256,31.66217340822084,101.19288512538805,71.16529101315086,58.66814484464453,42.83705814053405,68.91178918259834,24.21225025334536,44.69953892925298,11.174884732313217,7.449923154875478,8.329267300725734,10.86003588409334,7.449923154875591,68.9117891825984,35.38713498565863,64.0054198247124,"{'happy': (['m1', 'm3', 'm12', 'e1', 'e2'], 4.117296873065631, 131)}"
113,53,459,0,15.31529999999984,27.972986740538392,177.50480318054034,13.07091831124339,29.806279683916163,42.87579997121201,46.54421684516605,33.273125907176336,103.928185809526,74.14794521066806,60.07647733240174,44.36416787623512,70.24326580403897,24.030590932960763,46.21267487107821,12.93954896390187,9.242534974215689,7.621589589431313,9.242534974215596,7.394027979372481,68.39475880919588,35.121632902019485,65.64152189498506,"{'happy': (['m1', 'm3', 'm12', 'e1', 'e2'], 4.117296873065631, 131)}"
114,53,460,0,15.348666666666505,31.84913371942035,176.56542846196038,13.156755870285494,30.28912664076916,45.00302915198516,47.10780067980639,33.49163265946129,108.49338828730488,78.34624419571226,62.33164967177515,46.516156471474005,70.70455783664056,25.118724494595995,49.30712585976255,13.95484694144227,10.233554423724286,5.883880097865519,9.303231294294802,6.512261906006359,70.70455783664056,35.35227891832028,66.07259398013659,"{'happy': (['m1', 'm3', 'm12', 'e1', 'e2'], 4.117296873065631, 131)}"
115,53,461,0,15.38203333333317,35.49001485945547,178.61292486060157,15.038640383278684,30.36510819321273,45.11592114983588,48.81993329268476,31.710334064882773,112.30676081393705,82.158549054721,64.35332501402695,48.49815798158545,70.88192320385576,27.97970652783784,52.228785518630616,16.787823916702678,11.191882611135156,10.045022060510986,10.876554853047374,9.326568842612572,69.01660943533324,35.44096160192788,66.23833987053898,"{'happy': (['m1', 'm3', 'm12', 'e1', 'e2'], 4.117296873065631, 131)}"
116,53,462,0,15.415399999999837,40.51042610940435,177.90897583420062,12.967071409500695,27.75074466570283,46.42863494481756,49.81786153841787,31.22884335749118,112.10331344696088,84.43545165283001,64.18372888051681,44.01169980378302,69.68519135598979,25.67349155220677,55.01462475472874,22.00584990189145,11.002924950945726,9.875427370229223,9.875427370229223,9.169104125788124,69.68519135598973,36.676416503152495,63.31331133330415,"{'happy': (['m1', 'm3', 'm12', 'e1', 'e2'], 4.117296873065631, 131)}"
117,53,463,0,15.448766666666502,42.8245146507708,177.86114950565508,13.11637568013965,28.375059037795417,44.86490765058992,48.54831161287768,31.588415656674613,115.37938240357516,87.26087269840976,65.8502151349212,46.3733909400853,70.48755422892975,26.8965667452494,56.57553694690421,23.186695470042764,12.05708164442217,12.443286538704443,13.504135279295534,11.12961382562048,70.48755422892981,37.09871275206831,65.86980661107293,"{'happy': (['m1', 'm3', 'm12', 'e1', 'e2'], 4.117296873065631, 131)}"
118,53,464,0,15.482133333333168,42.55582684300132,179.33376138131183,13.07091831124339,26.466592386378696,44.709419525874274,48.626626986754175,33.32443376480387,115.14284635502923,88.90146437710102,67.47050531177433,46.21267487107832,72.09177279888218,25.87909792780385,55.45520984529389,24.03059093296065,11.091041969058892,11.690984748914875,11.690984748914806,11.09104196905878,68.39475880919588,35.121632902019485,67.18502871390945,"{'happy': (['m1', 'm3', 'm12', 'e1', 'e2'], 4.117296873065631, 131)}"
119,53,465,0,15.515499999999834,40.83485420167663,179.33376138131183,14.903139841958122,27.97298674053832,42.87579997121201,48.380057930298285,29.57611191749004,113.1370849898476,85.21196209286562,64.69774481950958,44.36416787623512,70.24326580403897,27.72760492264706,55.45520984529389,22.18208393811756,11.091041969058892,13.45733405356174,14.077809857327596,12.939548963901927,70.24326580403903,36.97013989686264,63.8203565259621,"{'happy': (['m1', 'm3', 'm12', 'e1', 'e2'], 4.117296873065631, 131)}"
120,53,466,0,15.5488666666665,38.64592935355039,179.54463595149056,14.769997726485704,29.822681276222184,44.309993179457,46.12839873170211,31.19771232335756,113.95230515503307,84.35128065432728,65.03574255001911,45.79981869719654,71.44771716762659,27.479891218318016,54.959782436635805,21.98391297465423,10.99195648732723,13.95204109950208,15.106999209814376,12.823949235215023,67.78373167185094,34.80786220986943,68.3998480632036,"{'happy': (['m1', 'm3', 'm12', 'e1', 'e2'], 4.117296873065631, 131)}"
121,53,467,0,15.582233333333166,35.66690717004565,183.46303873063025,15.113597236806848,30.516456513885213,43.48127836433496,47.461360241900216,33.742998395199606,114.73477087485216,84.44077093027876,66.5486912794214,48.73988657084385,73.10982985626572,27.18185981835518,53.42641412573266,19.683415730533056,10.310360620755432,13.647374239492736,14.276612204965025,12.184971642710934,69.36060781235466,37.49222043911061,66.56849056322714,"{'happy': (['m1', 'm3', 'm12', 'e1', 'e2'], 4.117296873065631, 131)}"
122,53,468,0,15.615599999999832,40.22733326941911,176.17701884443355,12.876455599592951,27.556818363918083,44.04425471110851,45.85175481580941,30.95709884520704,111.45388693050197,83.94422031535187,63.73520350483796,47.34615117502256,69.19822094810979,27.315087216359075,52.80916861829439,20.031063958663367,12.747040700967544,13.868367107111672,11.517052011979091,10.926034886543675,63.73520350483796,32.77810465963091,64.38227799796503,"{'happy': (['m1', 'm3', 'm12', 'e1', 'e2'], 4.117296873065631, 131)}"
123,53,469,0,15.648966666666498,40.2124015410708,176.89122101972802,12.911424006127636,27.93168077601004,44.163865064465526,47.78971350787064,29.2152175024246,109.936813967323,82.24891257130837,62.082337192652176,43.82282625363689,67.56019047435689,26.476290861572352,53.86555727009522,20.998437579867527,11.868682110360057,13.906029233558046,15.60093298506133,12.781657657310689,65.73423938045534,34.69307078412919,66.138761594727,"{'happy': (['m1', 'm3', 'm12', 'e1', 'e2'], 4.117296873065631, 131)}"
124,53,470,0,15.682333333333164,38.5916106744286,176.00865323764896,14.799207125257542,28.079521248244003,42.57678926481221,46.21962303777276,31.205467374504792,112.34808047621702,84.51809518193791,65.16435834087758,44.05477746988913,67.9177819327457,24.78081232681257,55.98627970131747,22.94519659890057,10.095886503516226,13.363484213691397,13.363484213691336,11.931502231428226,67.91778193274575,34.876698830328905,65.18374576383076,{}
125,53,471,0,15.71569999999983,38.64592935355039,177.73162407205064,14.769997726485704,29.822681276222184,46.12839873170211,50.00367070619634,31.19771232335756,113.95230515503307,84.35128065432728,65.03574255001911,43.96782594930869,69.61572441973874,25.64789847043005,56.79177518452377,21.983912974654345,10.991956487327116,15.106999209814376,15.106999209814434,12.823949235215082,67.78373167185089,34.80786220986937,63.25019632024845,{}
126,53,472,0,15.749066666666495,41.736707016213664,174.08816874005277,12.81932765639471,27.732445909262765,42.323200032911735,45.89963802934529,30.81975395470237,112.766372654564,85.28466597656565,64.35889796423146,41.69731417400908,67.07828801905816,23.568047141831244,58.01365450296919,25.38097384504897,9.064633516088977,15.489652542278929,14.949776577739415,12.690486922524542,68.89121472227589,36.25853406435573,62.59193439763797,{}
127,53,473,0,15.78243333333316,39.696521772624,174.88936022712275,12.70654697988766,29.252667939969047,43.72234005678058,45.4958265060633,30.548610818809607,111.93306788166907,82.83655163310395,62.894198744607934,37.73651924676483,66.4881529585856,21.56372528386555,59.30024453063049,25.15767949784322,7.187908427955108,14.81825283786329,13.082190807399886,12.578839748921666,68.28513006557438,35.939542139775995,59.97705535843357,{}
128,53,474,0,15.815799999999829,41.66316963470243,175.57203034083687,12.796740829211112,28.094602606141176,42.248629288593264,47.91520837288494,30.76545153923462,112.7275932767125,85.13439990462697,64.24550174369585,41.623846200140974,66.96010040892236,23.526521765297048,57.91143819150045,23.526521765297048,9.048662217421906,14.923436037186503,13.175051058762556,11.763260882648524,66.96010040892241,34.384916426203404,62.48165145275831,{}
129,53,475,0,15.849166666666491,42.155354497046645,175.3388493765422,14.721288354821874,29.72433027487515,42.35261975082855,46.22938926356552,29.2152175024246,115.55544156926346,85.99434881000165,64.82126383350453,43.82282625363689,69.38614156825838,27.389266408522985,58.43043500484919,25.563315314621605,10.955706563409194,15.60093298506141,13.293124616055122,11.868682110359998,67.56019047435689,34.69307078412919,63.04160608364702,{}
130,53,476,0,15.88253333333316,44.17681225412802,176.60194360644047,13.00443445543706,28.13289314249357,44.74735003984251,50.19779079835922,33.10388564016807,118.06135821675424,90.19116739363706,68.04687603812329,45.97761894467783,71.72508555369745,25.747466609019625,58.8513522491877,25.747466609019625,11.034628546722727,16.955708076037244,15.165646345864507,13.793285683403385,66.2077712803362,34.942990397955214,67.12102505976388,{}
131,53,477,0,15.915899999999825,45.76545991988673,177.2016669591212,12.93408369003619,27.980701167340698,44.50527797313669,48.11757276991331,31.09564617124022,117.42267554713968,89.70325554477573,66.7641814853099,45.728891428294446,69.50791497100761,26.52275702841075,59.44755885678285,26.522757028410865,11.889511771356524,16.8639819002352,15.083603960100804,12.804089599922465,65.84960365674402,34.753957485503804,64.67041845018065,{}
132,53,478,0,15.94926666666649,47.08205107478188,177.3412332924382,11.006820950613452,27.68018373078656,41.97127647219732,47.60078194556831,32.57118391918016,117.9656336367875,90.54786236629609,66.95187805609271,47.04726566103807,72.38040870928933,27.14265326598354,57.90432696743153,25.33314304825126,14.476081741857795,14.921603516688776,14.921603516688885,12.666571524125686,66.95187805609265,32.571183919180214,64.25672443103167,"{'happy': (['m1', 'm3', 'm12', 'e1', 'e2'], 2.4448998778657027, 52)}"
133,53,479,0,15.982633333333157,47.06648814504623,175.10489936274308,12.762693526526524,27.313356895818387,43.65512855105214,47.47996450462307,30.736636235961928,117.54156657172057,90.3180392296372,66.78194482721301,45.1229356940629,70.39177968273805,27.07376141643772,59.56227511616282,27.073761416437605,12.634421994337572,16.64051646699918,15.42122126279177,13.536880708218805,64.97702739945044,34.29343112748768,64.09363187893548,"{'happy': (['m1', 'm3', 'm12', 'e1', 'e2'], 2.4448998778657027, 52)}"
134,53,480,0,16.015999999999824,45.30816911638832,175.26377003591028,12.774272972443566,27.63497772535149,43.955380463580624,47.52304253356599,32.56813357922548,117.77297757903872,90.39998375399806,67.74581282657175,45.163875217714576,70.45564533963466,25.29177012192008,59.616315287383145,25.29177012192008,10.839330052251512,15.435212760528266,14.897234238788288,13.54916256531436,68.64909033092607,34.324545165463064,65.9330706953707,"{'happy': (['m1', 'm3', 'm12', 'e1', 'e2'], 2.4448998778657027, 52)}"
135,53,481,0,16.04936666666649,45.71277290623776,176.82888261853662,11.086975948958324,27.88175919849736,44.34790379583333,49.74969009576732,32.85896833444643,117.00745969404116,89.38605774968893,66.52809806749747,43.74450283890246,69.2621294949289,23.69493903773889,60.14869140349083,25.517626656026323,10.93612570972573,15.573049837193189,15.030267145410622,13.670157137156991,67.43944187664124,34.63106474746445,62.92893343605835,"{'happy': (['m1', 'm3', 'm12', 'e1', 'e2'], 2.4448998778657027, 52)}"
136,53,482,0,16.082733333333156,41.93052898427284,176.2007270611698,12.842564010583674,27.78271382915298,44.19036515274285,48.08678544184991,30.87561793900079,113.13125363221734,85.5357184936982,64.47555510791324,41.7728948586481,67.19987433782512,23.61076665923588,58.11881023811896,25.42697947917702,9.081064099706168,15.517729135871544,15.517729135871464,13.621596149559082,69.01608715776632,36.32425639882439,63.04639524841356,"{'happy': (['m1', 'm3', 'm12', 'e1', 'e2'], 2.4448998778657027, 52)}"
137,53,483,0,16.116099999999822,43.276939579460304,172.55659220432233,10.93058501419526,27.48846400204623,43.72234005678058,47.57749292314934,32.39546550041521,113.56554112858834,86.32974271235,64.69117585159677,43.127450567731216,68.28513006557432,23.3607023908545,57.503267423641546,25.157679497843105,10.78186264193289,16.567310326620834,13.082190807399767,12.57883974892161,68.28513006557444,35.93954213977605,62.04126895757269,"{'happy': (['m1', 'm3', 'm12', 'e1', 'e2'], 2.4448998778657027, 52)}"
138,53,484,0,16.149466666666488,41.81559812676276,172.41012787502288,12.807362763899862,29.48476330446765,44.06924012323059,47.64614367366154,30.84421400528051,114.46658836697426,85.20506571302454,64.29882872223459,39.84716146166648,67.01568064007552,22.640432648674164,60.6763594984468,26.262901872462063,8.150555753522667,17.1828802515478,14.935823235226632,13.584259589204407,68.82691525196941,34.41345762598468,61.100651325407895,"{'happy': (['m1', 'm3', 'm12', 'e1', 'e2'], 2.4448998778657027, 52)}"
139,53,485,0,16.182833333333154,41.669754605886105,173.5913996130792,12.762693526526524,27.609927553754265,41.86474750335872,47.787724068526586,30.736636235961928,112.26818542003352,84.90788936408316,64.07456868556926,39.70818341077529,66.78194482721301,22.561467847031395,58.65981640228165,26.17130270255643,9.927045852693825,15.42122126279177,17.122950180785942,14.43933942210009,68.58686225497547,34.293431127487736,62.654297058176304,"{'happy': (['m1', 'm3', 'm12', 'e1', 'e2'], 2.4448998778657027, 52)}"
140,53,486,0,16.21619999999982,43.42795408976946,173.15872695612228,10.96872719706096,29.73992200866024,42.09724010223436,45.65458380331419,32.508509200046554,115.91390306379732,86.63098961075609,64.91691515611979,43.27794343741323,68.52341044257093,23.44221936193219,59.50717222644312,25.245467005157707,10.819485859353335,15.406954617454144,14.869961004330008,14.425981145804371,66.7201627993453,32.45845757805989,62.596333644009626,"{'happy': (['m1', 'm3', 'm12', 'e1', 'e2'], 2.4448998778657027, 52)}"
141,53,487,0,16.249566666666485,43.345227396799935,173.39025097938804,12.726596973431734,27.53183876992384,43.79133068320834,47.65256669633632,30.596814272562256,113.90126544066786,86.5595729798143,64.79325375366113,41.39568989817235,70.19269156646624,25.19737645975704,57.59400333658755,25.19737645975704,10.798875625610208,14.841634947432905,13.706964427181962,11.698781927744392,68.39287896219781,32.39662687683057,56.82963517612792,"{'happy': (['m1', 'm3', 'm12', 'e1', 'e2'], 2.4448998778657027, 52)}"
142,53,488,0,16.28293333333315,43.72373160976037,173.86419461733533,12.78274981412279,27.65331593774853,44.3176295347766,47.55457820753661,30.78493817276003,114.40382552221604,86.94149486529305,65.0791373455969,43.38609156373127,70.50239879106334,26.21243031975428,56.94424517739719,22.59692268944332,9.942645983355078,15.445455367300402,14.907119849998578,14.46203052124372,68.6946449759078,32.53956867279845,62.75275688551075,"{'happy': (['m1', 'm3', 'm12', 'e1', 'e2'], 2.4448998778657027, 52)}"
143,53,489,0,16.316299999999817,44.87539954485731,179.21122063986127,13.175870985770484,26.679105355278523,45.33725115847532,49.0170735058102,31.67694225506329,116.0673835137711,89.61529688936807,67.08058359895756,46.58373861038717,74.5339817766195,28.881917938440097,54.96881156025688,23.291869305193583,12.111772038700678,9.501255687618803,11.784857274780064,10.248422494285135,74.5339817766195,37.26699088830975,68.33693145500277,"{'happy': (['m1', 'm3', 'm12', 'e1', 'e2'], 2.4448998778657027, 52)}"
144,53,490,0,16.349666666666483,42.41914530322241,175.19754763688508,13.376307502331487,26.307237145931342,46.518673697496496,48.333846272014085,31.23541141521241,112.81555501577483,86.66890645386474,65.22688854353203,44.09705140971175,73.49508568285296,27.56065713106989,53.28393712006846,22.048525704855933,12.861639994499228,7.575700030855552,9.186885710356728,6.430819997249614,69.82033139871032,34.91016569935516,65.24629457020532,"{'happy': (['m1', 'm3', 'm12', 'e1', 'e2'], 2.4448998778657027, 52)}"
145,53,491,0,16.38303333333315,42.76202793216078,173.93209802659095,13.484430932190756,28.029311464557484,46.89469365306397,50.31794189235851,29.69349033997216,113.36489102098402,85.38353977574005,63.90190178936405,48.15795497169461,72.23693245754203,30.56177911665236,52.788527565126856,19.44840489241517,13.891717780296515,5.857262506399376,7.858342275821904,5.556687112118652,72.23693245754197,37.04458074745742,67.60001631637226,"{'happy': (['m1', 'm3', 'm12', 'e1', 'e2'], 2.4448998778657027, 52)}"
146,53,492,0,16.416399999999815,41.5840320706405,178.89930382950484,15.17656074099018,30.64358859285152,43.945553337512045,47.9924989894219,32.056469122289705,118.96541292611808,88.55383890231808,67.76714460548612,50.82535845411462,77.17924802291475,32.00115161925726,54.59019982108612,20.70662751834311,15.059365467885756,9.598499797884406,10.97630445126705,8.470893075685808,71.53198597245756,37.6484136697145,63.50206045871039,"{'happy': (['m1', 'm3', 'm12', 'e1', 'e2'], 2.4448998778657027, 52)}"
147,53,493,0,16.44976666666648,41.183296977685146,176.91027565930634,13.182452125931611,28.51800424583761,45.35989640179282,46.94137746791687,31.911337768065096,113.96532925623652,85.77715339868782,65.24980903639312,50.33556697093184,74.57121032730652,30.760624260013856,51.267707100023244,19.57494271091798,13.982101936369872,7.686624420240908,9.321401290913265,6.524980903639289,68.97836955275852,37.28560516365326,62.529860796109446,"{'happy': (['m1', 'm3', 'm12', 'e1', 'e2'], 2.4448998778657027, 52)}"
148,53,494,0,16.483133333333146,35.26149867440302,174.9010846329384,15.219794576405702,27.93007330582856,44.640830684306096,46.47281323606166,31.592801920262524,109.14457410708204,81.29338344748373,63.67565623635153,51.67879346718394,73.82684781026273,31.37641031936176,46.141779881414095,14.765369562052456,14.76536956205257,9.939243566237444,9.939243566237495,8.305520378654478,66.44416302923645,35.06775270987475,63.72244954418943,"{'happy': (['m1', 'm3', 'm12', 'e1', 'e2'], 2.4448998778657027, 52)}"
149,53,495,0,16.516499999999812,35.04770721474874,170.90566402864883,14.8512156770942,28.17820053721021,42.72641600716232,46.38205171657157,31.36926375521946,108.93141448320156,81.07186004532942,63.55129752182347,51.57786465539289,73.68266379341844,31.315132112202832,46.0516648708865,14.736532758683666,14.736532758683666,11.204853661379174,9.919832198906072,8.289299676759583,69.9985306037475,38.683398491544665,65.12688903026827,"{'happy': (['m1', 'm3', 'm12', 'e1', 'e2'], 2.4448998778657027, 52)}"
150,53,496,0,16.549866666666478,33.51826558291991,174.34455721360996,15.331841244509814,29.97964813252021,43.12518738227071,46.81494163039612,31.66203730406371,109.948085994772,80.03456096931929,63.21480088631506,52.05924778873009,74.37035398390015,31.60740044315753,46.481471239937605,14.874070796780074,14.87407079677996,9.480397154917734,9.296294247987545,8.366664823188785,68.7925774351076,37.18517699195007,63.89469569410009,"{'happy': (['m1', 'm3', 'm12', 'e1', 'e2'], 2.4448998778657027, 52)}"
151,53,497,0,16.583233333333144,33.304879778567724,170.963940472778,16.72912075479967,30.073856754135363,42.85064147014305,48.35166966139198,31.4061796923296,111.2295538599213,81.37051314546522,64.65978171950212,57.27009238013045,75.74431572855963,35.10102436201544,44.33813603622991,11.084534009057506,16.62680101358626,9.948673741510335,10.772230763931782,9.237111674214589,66.50720405434492,36.9484466968583,67.1456061347889,"{'happy': (['m1', 'm3', 'm12', 'e1', 'e2'], 2.4448998778657027, 52)}"
152,53,498,0,16.61659999999981,33.12378749051822,170.2426845228308,14.81340810021113,29.626816200422404,40.79639319557132,44.440224300633616,31.235411415212525,108.65410164110251,79.0926303416953,62.47082283042505,55.12131426213966,75.33246282492428,33.99147712831939,43.17836283867621,11.942951423463684,15.617705707606206,11.620593379352304,10.713657728106195,8.26819713932099,66.14557711456769,34.91016569935516,64.96109183778961,"{'happy': (['m1', 'm3', 'm12', 'e1', 'e2'], 2.4448998778657027, 52)}"
153,53,499,0,16.649966666666476,38.51206091003135,169.38224451150293,14.718834857860234,27.62704884214522,40.32985544073815,43.96739661863407,31.089644300154664,111.60362553417175,84.05909012251928,64.81046051452643,54.76940325171256,76.67716455239747,34.68728872608449,45.64116937642712,14.60517420045676,18.256467750570778,13.290909141426145,13.903711610286887,11.866704037871044,65.72328390205496,36.51293550114167,68.43131985372816,"{'happy': (['m1', 'm3', 'm12', 'e1', 'e2'], 2.4448998778657027, 52)}"
154,53,500,0,16.68333333333314,38.45579546392976,167.6648416698635,14.74712436955479,27.680147863151607,42.42694904059504,44.05190168937068,32.97557256296824,113.54033442182664,85.98977278617491,66.7641814853099,56.703825371085145,76.82453759953466,33.83937965693792,46.64346925686039,15.547823085620166,17.37697874275193,11.126319493284244,11.568596143036832,10.9749339427907,65.84960365674402,38.41226879976733,64.67041845018086,"{'happy': (['m1', 'm3', 'm12', 'e1', 'e2'], 2.4448998778657027, 52)}"
155,53,501,0,16.716699999999808,39.85032880187465,163.8581193296027,14.588737773537018,27.20290340286279,39.97338723828321,43.76621332061131,32.57118391918027,114.1283212585366,86.93185401452416,66.9518780560926,57.90432696743153,75.99942914475389,34.38069413691244,47.04726566103807,16.28559195959008,18.09510217732236,14.92160351668883,13.173433230866536,11.761816415259489,65.14236783836043,36.19020435464472,65.7676688676904,"{'happy': (['m1', 'm3', 'm12', 'e1', 'e2'], 2.4448998778657027, 52)}"
156,53,502,0,16.750066666666473,42.14956628667368,165.5992523456573,14.760866542803011,27.70594173170124,40.44502296548108,44.09295164933304,32.95548295097956,117.40368495464055,89.78684592129524,68.65725614787402,60.41838541012919,76.89612688561897,35.701773196894464,48.5177943444977,17.393171557461528,19.224031721404685,16.879696676561913,13.328863185413493,11.900591065631488,65.91096590195917,38.448063442809485,66.5436446974997,"{'happy': (['m1', 'm3', 'm12', 'e1', 'e2'], 2.4448998778657027, 52)}"
157,53,503,0,16.78343333333314,40.28297472553807,165.63708952931094,16.56370895293106,27.680147863151607,40.407369179301696,43.93782665535367,32.97557256296824,117.19450399212651,89.64729011006013,69.50791497100761,60.36213668534867,78.65369325666643,36.583113142635625,47.55804708542621,16.46240091418599,18.29155657131787,16.863981900235252,15.083603960100804,13.718667428488402,64.02044799961226,38.41226879976733,64.25519477702343,"{'happy': (['m1', 'm3', 'm12', 'e1', 'e2'], 2.4448998778657027, 52)}"
158,53,504,0,16.816799999999805,41.73670701621366,167.58543824254764,14.503413625742382,31.295967198818992,39.92556908988848,45.4679704017019,30.873029282200875,117.96567925066452,87.02048175445384,66.1718246674493,59.82658120618703,76.14292153514714,37.16499741596465,49.85548433848919,17.222803680568973,20.84865708700454,16.71435833812981,14.949776577739472,13.596950274133349,63.45243461262254,38.07146076757351,63.86547353593312,"{'happy': (['m1', 'm3', 'm12', 'e1', 'e2'], 2.4448998778657027, 52)}"
159,53,505,0,16.85016666666647,43.547993804830426,165.7812185370521,14.503413625742269,27.43455922653006,40.048859869479166,43.6610567224301,30.87302928220089,116.0839491406304,88.83340845767157,67.07828801905805,58.01365450296919,74.3299948319293,35.35207071274681,49.85548433848919,19.035730383786813,19.0357303837867,16.71435833812976,14.949776577739472,14.503413625742269,65.26536131584032,39.884387470791296,62.0646130013989,"{'happy': (['m1', 'm3', 'm12', 'e1', 'e2'], 2.4448998778657027, 52)}"
160,53,506,0,16.883533333333137,44.334543494851694,168.7755049474905,16.7132635114146,29.760553789537344,40.64669172374175,44.33454349485157,33.42652702282933,123.71505247694049,94.12923095808505,71.98117661500612,62.75282063872328,79.36386139603246,37.83625950275962,52.60162906481219,19.379547550193934,21.225218745450547,18.54876594981405,17.016247638212814,15.68820515968082,64.59849183397989,40.60476629564448,63.18560384052503,"{'happy': (['m1', 'm3', 'm12', 'e1', 'e2'], 2.4448998778657027, 52)}"
161,53,507,0,16.916899999999803,44.01890472438668,163.75281931228292,14.660247850478754,29.54867420612477,40.35730852978547,44.01890472438681,32.98555766357697,121.07192558935606,91.64487254314018,69.63617728977363,64.13858434584415,78.79883219632279,38.48315060750656,49.47833649536551,18.32530981309833,23.822902757027805,16.895100851552534,15.11143759631446,14.66024785047864,62.30605336453437,40.31568158881635,64.3737642993331,"{'happy': (['m1', 'm3', 'm12', 'e1', 'e2'], 2.4448998778657027, 52)}"
162,53,508,0,16.95026666666647,47.63057548666933,167.3965781492365,14.758702306193047,29.517404612386063,40.43909292071401,44.08648674566843,33.001461616330644,124.6013204031274,95.20836983475536,71.39307721376201,62.240118596613,78.71544410748118,37.5271303303108,54.00245584117886,21.051804819442623,21.051804819442623,16.877221777313387,15.64058254113148,14.644733787438328,65.90130204347264,42.1036096388853,64.48777386327654,{}
163,53,509,0,16.983633333333135,49.15657039939532,166.37008042851687,14.55493036361952,29.336400025009446,40.06738639790154,43.81614264031516,30.982691586403963,123.77040729676564,94.60704736352729,70.04560237491921,61.85845404538316,78.23275070445527,39.11637535222758,53.67130571584721,20.922712397703208,22.742078693155577,18.28440497855659,15.002878815678368,13.645247215893336,61.85845404538321,38.206692204501394,65.72421396047274,{}
164,53,510,0,17.0169999999998,47.467810083613976,163.0205379769825,16.419025267382835,29.41653637365929,40.30090258412537,43.93583236639344,32.8886874970487,125.93206192292956,96.68981546347676,72.97344563281263,65.67610106953134,80.27079019609391,40.13539509804696,52.90574808378915,20.06769754902348,21.892033689843743,18.334351306359864,16.819548155339117,15.50685719697276,62.02742878789076,40.13539509804696,64.26740326313654,{}
165,53,511,0,17.050366666666466,47.16706992995307,161.8354741602304,16.31499981996535,31.029756965377643,39.92228890674647,41.73327803458932,32.68031578337268,126.94622612857664,96.0772211620183,72.51111031095718,67.07277703763543,79.76222134205295,40.78749954991349,53.4769438543309,20.8469442144002,24.47249972994814,18.48677832139245,14.948548342144507,13.595833183304537,61.63444376431363,41.69388842880039,61.87390505639717,{}
166,53,512,0,17.083733333333132,49.4598647618395,161.60092137464505,14.644733787438328,29.51740461238615,40.314600805123824,44.08648674566843,32.95065102173635,126.43015896586428,97.0386295382924,72.30837307547688,65.90130204347258,78.71544410748118,39.35772205374053,54.00245584117897,22.88239654287247,22.88239654287236,18.397219133522725,15.09544606616508,13.72943792572346,64.07071032004285,42.1036096388853,64.30564139666004,{}
167,53,513,0,17.117099999999798,49.46587945222189,161.88696195035743,16.5900959124647,29.541234806672435,40.34714786616716,42.17740981071088,33.02810458350121,128.2972068216262,98.93175890444375,74.19881917833288,65.95450593629585,80.6110628110282,40.3055314055141,54.962088280246576,21.984835312098653,23.81690492144014,18.683517376585783,15.107633025598576,14.65655687473236,62.29036671761276,42.1376010148557,66.18311842745203,{}
168,53,514,0,17.150466666666464,42.17740981071077,154.42727633072155,16.48862648407396,29.541234806672463,38.51705780086306,40.30553140551433,34.809322577489525,122.87165166351896,93.45350981710912,72.36674956899128,69.61864515497894,82.4431324203698,41.22156621018485,46.71777503820965,15.572591679403216,22.9008701167694,18.41207170311812,16.89084721217967,15.572591679403216,65.95450593629585,45.8017402335388,62.53237639252102,"{'happy': (['m1', 'm3', 'm12', 'e1', 'e2'], 6.174527046759617, 39)}"
169,53,515,0,17.18383333333313,24.08487161546917,152.0233900132184,18.47225328994864,26.123711130236323,35.09728125090237,38.79173190889219,40.68091796898021,109.23647848604612,83.20719820560426,71.11817516630231,70.19456250180485,83.12513980476899,36.020893915399824,32.32644325741012,4.61806332248716,17.548640625451185,18.564384800582506,15.232610291524358,14.777802631958934,62.80566118582544,42.48618256688189,61.40461517482721,"{'happy': (['m1', 'm3', 'm12', 'e1', 'e2'], 6.174527046759617, 39)}"
170,53,516,0,17.217199999999796,4.175283455915408,153.67085240274733,20.539678792065843,24.559754091369648,33.61038347792578,33.81721855923427,44.969179053213615,93.82782598092548,69.31473564765064,67.22076695585179,70.95525400895463,84.02595869481468,32.67676171465018,15.87156997568718,10.26983939603292,12.13708292258434,16.908609279617135,17.215134705633382,15.871569975687237,65.35352342930025,44.81384463723447,61.873136573299405,"{'happy': (['m1', 'm3', 'm12', 'e1', 'e2'], 6.174527046759617, 39)}"
171,53,517,0,17.25056666666646,1.862561551946328,145.8636631751051,20.572664757980345,22.65903923710716,31.718280298414427,33.577805896252485,44.74026378524395,88.03436138644078,65.42868827914502,65.18965431812342,70.77733897396263,83.81526983758727,32.594827159061765,10.244088535705032,13.969211639597916,12.106650087651587,16.866212196361477,17.171969032614157,15.8317731915443,67.05221587006986,46.56403879865962,63.57313031485145,"{'happy': (['m1', 'm3', 'm12', 'e1', 'e2'], 6.174527046759617, 39)}"
172,53,518,0,17.283933333333128,1.8641587816396168,145.98874777901628,20.59030673656941,22.678470374967684,35.41901685115249,35.46803973530802,46.64123781527143,89.96376974209745,67.34233283699864,67.10971613902586,72.70219248394471,85.75130395542203,32.62277867869318,10.252873299017892,13.981190862297012,13.981190862297012,11.339235187483784,13.571280781403642,12.117032080657452,65.24555735738625,44.739810759350576,63.62764711260466,"{'happy': (['m1', 'm3', 'm12', 'e1', 'e2'], 6.174527046759617, 39)}"
173,53,519,0,17.317299999999793,1.8715921077400708,146.41545324405226,18.80926789625979,22.7689006899269,31.872065122124905,35.60946840978318,44.95718517928688,86.60032837705457,63.88136211513263,63.63413166316411,71.12050009412451,82.35005274056527,31.817065831582,9.357960538700697,14.972736861920907,13.101144754180725,7.4863684309605105,8.37001435811797,7.486368430960454,65.50572377090424,48.66139480124315,62.01723152072415,"{'happy': (['m1', 'm3', 'm12', 'e1', 'e2'], 6.174527046759617, 39)}"
174,53,520,0,17.35066666666646,2.628594120410535,147.41234572381782,18.586967275293205,26.28594120410456,31.65246471017966,35.364117068350595,44.76334487567208,87.85168965187637,61.5899291310776,62.26634037223221,70.63047564611418,83.64135273881936,32.52719273176308,10.222832001411234,15.798922183999252,13.940225456469877,7.434786910117282,10.00938820422701,9.29348363764666,63.195688735996896,44.60872146070369,59.94116837304191,"{'happy': (['m1', 'm3', 'm12', 'e1', 'e2'], 6.174527046759617, 39)}"
175,53,521,0,17.384033333333125,1.8440817822304325,148.26234037271533,20.368549029951733,24.25510890890372,33.24465710990171,36.92770891134487,40.73709805990349,85.54631586035421,61.30011883843954,60.85469881359984,68.231025942521,82.98368020036332,35.0375538623756,9.22040891115148,16.596736040072642,14.752654257842323,9.22040891115148,12.37047666340782,9.22040891115148,64.54286237806036,42.41388099129682,64.96299936014422,"{'happy': (['m1', 'm3', 'm12', 'e1', 'e2'], 6.174527046759617, 39)}"
176,53,522,0,17.41739999999979,1.8438858430295115,144.5775827473409,18.53082338199304,26.40042756160617,33.39419291878444,35.22738956799966,40.73276962148508,85.79519788193579,59.46353169977335,59.00434697694698,68.22377619209487,82.97486293633165,35.03383101756219,9.219429215148011,18.43885843029591,14.75108674423666,11.215919716127704,12.36916226329099,11.063315058177524,66.37989034906525,38.721602703621386,68.84389234320047,"{'happy': (['m1', 'm3', 'm12', 'e1', 'e2'], 6.174527046759617, 39)}"
177,53,523,0,17.450766666666457,3.693702382905713,145.2334467528913,18.560624764820005,26.11842002637516,33.29458334467495,35.524891972350645,39.48116906552344,84.7541723752811,58.69384905255821,57.25238693503809,66.48664289230226,84.9551548068307,36.9370238290569,7.387404765811311,20.315363105981305,18.46851191452845,9.41713026392012,11.825617626923474,9.23425595726428,64.63979170084946,33.24332144615113,67.40374335843588,"{'happy': (['m1', 'm3', 'm12', 'e1', 'e2'], 6.174527046759617, 39)}"
178,53,524,0,17.484133333333123,2.598224395564111,144.72133206651813,20.54076740549178,24.988922063539288,33.27350720305116,35.33967249134158,38.75624242827458,86.1145798088808,61.32029758086032,59.70971789729924,64.30277312016835,84.51221610079267,35.82583073837952,10.104721490312158,17.45360984690285,15.616387757755206,9.368031283367651,11.763961288568527,8.267499401164514,64.30277312016835,25.721109248067364,70.98908234541577,"{'happy': (['m1', 'm3', 'm12', 'e1', 'e2'], 6.174527046759617, 39)}"
179,53,525,0,17.51749999999979,6.496950194675419,145.76709764584442,20.14618732589663,27.9734726008192,34.66081125362685,36.75230031748973,32.88213273319697,86.97928270959096,59.02523465944604,54.958858104742376,64.86947186133523,86.4926291484469,43.24631457422356,9.009648869629814,19.821227513185818,19.821227513185818,9.188075079372396,11.537980209577412,9.009648869629928,64.86947186133523,27.02894660888967,71.39826978962901,"{'happy': (['m1', 'm3', 'm12', 'e1', 'e2'], 6.174527046759617, 39)}"
180,53,526,0,17.550866666666455,25.59426752603936,160.0920922277511,18.45628878461559,24.61577828202645,38.68884880032467,40.46809021298368,34.81196749481097,103.28484130895971,78.84530025020867,65.15236845779424,63.34258044507777,92.29918864854191,43.43491230519624,23.527244165314528,3.619576025433048,23.52724416531464,8.0936180425967,9.04894006358254,8.144046057224273,63.34258044507772,23.527244165314585,70.27945387996648,"{'happy': (['m1', 'm3', 'm12', 'e1', 'e2'], 6.174527046759617, 39)}"
181,53,527,0,17.58423333333312,27.38706222055716,159.477139536676,18.45628878461548,24.615778282026564,38.39140128905922,42.24992656537911,32.77665494706466,102.95133053315324,78.57481814858305,64.24747445143595,65.15236845779424,90.48940063582536,45.24470031791259,23.52724416531464,3.6195760254329343,25.337032178030995,7.46194713640681,11.588297488840372,8.144046057224273,61.53279243236125,23.527244165314585,66.74168416606248,"{'happy': (['m1', 'm3', 'm12', 'e1', 'e2'], 6.174527046759617, 39)}"
182,53,528,0,17.617599999999786,29.27378546568759,163.85677943288573,18.24537940080273,22.964246665579942,38.51221244723224,42.38287984110516,32.8797974610714,102.97166668433358,80.39536450658296,65.35739179184372,63.54190868651472,90.7741552664496,44.479336080560415,24.50902192194133,0.9077415526645608,24.50902192194144,11.043152607484672,13.091634852004438,9.985157079309488,63.54190868651477,21.785797263947927,74.0574702453644,"{'happy': (['m1', 'm3', 'm12', 'e1', 'e2'], 6.174527046759617, 39)}"
183,53,529,0,17.650966666666452,31.555014021360776,167.09346348782512,16.85270847732857,22.610281056176216,40.87382184104003,44.812325457350205,33.10527251967361,103.9835168984584,81.44051306454,64.89161733711444,62.149718013011125,91.396644136781,43.87038918565486,25.591060358298705,0.0,23.76312747556301,8.174764368208077,11.704481345845018,8.225697972310286,67.63351666121793,25.591060358298705,72.77377081545967,"{'happy': (['m1', 'm3', 'm12', 'e1', 'e2'], 6.174527046759617, 39)}"
184,53,530,0,17.684333333333118,31.21235081660274,164.88823463936728,16.811332284062043,23.064957608617707,40.773469832084565,46.48890829856399,33.02399358722432,103.72822012538984,80.97409907761491,64.7322976583855,61.99713015169323,91.1722502230782,43.76268010707759,25.528230062461944,1.8234450044615187,23.70478505800031,11.532478804308854,12.232040949625446,10.02894752453858,67.4674651650779,23.70478505800037,70.80979550823551,"{'happy': (['m1', 'm3', 'm12', 'e1', 'e2'], 6.174527046759617, 39)}"
185,53,531,0,17.717699999999784,31.15188082168013,163.1132894189266,16.778762447082073,24.75348360802568,38.90528154827776,42.486280656827184,33.21028321648332,105.6490054178516,81.08316975379162,64.60688699214865,60.05710621805366,90.9956154818995,42.767939276492825,28.20864079938883,0.9099561548189286,22.74890387047492,9.800527721933326,11.65312461984533,9.099561548189968,67.3367554566056,23.658860025293905,72.84197598407503,"{'happy': (['m1', 'm3', 'm12', 'e1', 'e2'], 6.174527046759617, 39)}"
186,53,532,0,17.75106666666645,25.830391268815056,157.49255732992776,16.63272921205356,20.5695945041089,40.340293755054645,44.22738788232257,32.92123894938601,95.88778361386382,75.36188796634484,61.338474566656544,59.53440178528416,86.59549350586798,40.59163758087561,20.74683698578088,4.5101819534305605,20.74683698578088,9.1990023161587,11.55170215249744,8.1183275161751,68.55476569214545,25.25701893921149,70.45129428012324,"{'happy': (['m1', 'm3', 'm12', 'e1', 'e2'], 6.174527046759617, 39)}"
187,53,533,0,17.784433333333116,14.894196466685091,149.12802590699891,16.65221788487256,24.56679410954715,36.839123378768655,38.99021053397831,33.30443576974501,89.3651788001106,64.84687925417852,55.99178536665181,61.41034524084398,90.30933123653529,43.348478993537015,10.837119748384223,16.255679622576395,21.674239496768564,9.209780844692142,11.565237354140123,8.127839811288197,70.44127836449758,23.4804261214992,70.53384250214955,"{'happy': (['m1', 'm3', 'm12', 'e1', 'e2'], 6.174527046759617, 39)}"
188,53,534,0,17.81779999999978,5.205571641991685,145.84893298933733,20.576828639845697,26.79732014917869,33.936175168927306,37.53791094660492,32.1420338431081,83.93732060994219,57.142857142857125,53.37297761606874,62.5752151360806,88.34148019211386,44.17074009605699,5.521342512007209,22.08537004802849,20.244922544026053,5.820006026619339,10.411143283983533,6.441566264008316,71.77745265609258,27.60671256003565,68.76479355690692,"{'happy': (['m1', 'm3', 'm12', 'e1', 'e2'], 6.174527046759617, 39)}"
189,53,535,0,17.851166666666447,5.869104024758291,162.02341732886262,18.927291759671427,27.023384309386955,35.70036604822267,38.26187707458951,34.22246323420903,83.37433596966862,56.35562461127287,52.89524914668857,57.53518328236294,85.37478809640959,38.04745991253037,8.351881444213973,19.487723369832565,17.63174971556282,6.691808176379893,9.279868271348985,5.567920962809353,72.38297251652119,25.98363115977685,69.3448984039887,"{'happy': (['m1', 'm3', 'm12', 'e1', 'e2'], 6.174527046759617, 39)}"
190,53,536,0,17.884533333333113,4.082397855569076,150.73946585823623,18.61859884158984,24.832256709626385,35.44875608166211,39.41152894531938,33.66431512861388,79.74794675125632,54.9230459594082,52.03255896263733,58.42252234401377,87.63378351602074,40.1654841115095,3.651407646500843,23.73414970225565,18.25703823250433,7.527569704355498,10.327740430868673,6.38996338137656,71.20244910676678,23.7341497022556,69.97472863391243,"{'happy': (['m1', 'm3', 'm12', 'e1', 'e2'], 6.174527046759617, 39)}"
191,53,537,0,17.91789999999978,3.68378164838009,158.97982724658507,18.78367450890497,25.052423725531213,37.56734901780993,39.37512852504218,32.16724034653592,76.91961904197535,51.868116545048224,49.73105225313088,55.25672472570102,82.88508708855159,37.75876189589576,4.6047270604750565,21.181744478185465,15.656072005615329,7.594310418991498,10.73997679140901,7.367563296760125,69.99185131922133,23.94458071447042,70.59513649181419,"{'happy': (['m1', 'm3', 'm12', 'e1', 'e2'], 6.174527046759617, 39)}"
192,53,538,0,17.951266666666445,6.553855364152229,162.58114212573892,18.53710228363175,26.466292449738983,37.07420456726346,40.64528553143472,31.37858162210944,81.14818786901141,54.682639082588615,50.89594799137882,52.7136604196424,81.79705927185893,36.35424856527061,10.906274569581228,16.35941185437173,14.541699426108266,7.494620338728523,11.6390385060971,8.179705927185864,69.07307227401424,21.8125491391624,69.66843815651238,"{'happy': (['m1', 'm3', 'm12', 'e1', 'e2'], 6.174527046759617, 39)}"
193,53,539,0,17.98463333333311,4.077346983208567,150.55296620075168,20.38673491604237,28.30747879828392,35.40489775411776,38.98080193791802,31.84509795416292,83.16188732427456,54.85509342155692,51.96818262715465,56.52679513830856,85.70191520969354,40.115790098154434,9.11722502230782,20.05789504907716,18.23445004461564,8.15469396641698,11.67574490369372,7.2937800178461885,67.4674651650779,21.8813400535388,71.20780377564778,"{'happy': (['m1', 'm3', 'm12', 'e1', 'e2'], 6.174527046759617, 39)}"
194,53,540,0,18.017999999999777,9.209454120950069,151.72977437103663,20.592965450110164,28.59383492616451,35.42947740296376,39.37512852504218,31.79596544931708,89.3459452620991,60.75448335193182,55.25672472570108,62.62428802246114,90.25265038531172,45.12632519265583,10.130399533045193,19.33985365399542,23.02363530237551,11.649140411610556,13.282063620847628,9.209454120950229,66.30806967084123,22.10268989028043,67.92557735639937,"{'happy': (['m1', 'm3', 'm12', 'e1', 'e2'], 6.174527046759617, 39)}"
195,53,541,0,18.051366666666443,14.197935452060596,151.40894178153175,19.012002830558348,28.94141241081629,35.86014676473552,39.85375995611552,34.01992230134456,95.86099357661156,66.9325944191091,58.724828132753885,63.38552877821047,89.48545239276774,42.87844593820125,16.77852232364387,13.049961807278692,20.507082840009275,9.50600141527925,10.870528503972864,8.389261161821992,68.97836955275852,26.09992361455727,74.22083465216232,"{'happy': (['m1', 'm3', 'm12', 'e1', 'e2'], 6.174527046759617, 39)}"
196,53,542,0,18.08473333333311,10.72645272860498,148.8121221324953,20.56703424341606,26.78456485139271,36.97492887005656,39.02320375432341,33.56902916567706,91.01696954968293,64.25346901360052,57.94650119644382,66.22457279593573,88.2994303945809,44.14971519729045,11.037428799322583,16.556143198983932,22.074857598645167,11.63447150593239,12.340220546049515,10.11764306604573,64.38500132938196,20.23528613209146,69.2715300107655,"{'happy': (['m1', 'm3', 'm12', 'e1', 'e2'], 6.174527046759617, 39)}"
197,53,543,0,18.11809999999977,4.082397855569076,146.1703678109288,22.210645614979867,28.3425450957696,33.3159684224697,36.92257480383215,35.11811422308381,88.12685781893505,59.80399355476285,57.50967043238853,65.72533763701557,89.4594873392711,42.9040398463851,8.215667204626925,20.99559396737993,19.169890144129567,11.546764828697704,11.690208401028636,8.215667204626982,63.89963381376509,21.90844587900517,69.11199351184538,"{'happy': (['m1', 'm3', 'm12', 'e1', 'e2'], 6.174527046759617, 39)}"
198,53,544,0,18.15146666666644,4.142109728549652,146.1877222374277,20.71054864274826,25.195469853205555,33.803269990088566,37.781853764451,36.39403846591194,86.27130617332355,61.10138366295812,57.42464132446128,66.6866802477615,88.91557366368204,42.60537904718103,5.557223353980135,22.22889341592054,18.52407784660045,11.267756663362857,13.357902501320895,10.188242815630248,62.98186467844141,22.22889341592048,69.43441159785328,{}
199,53,545,0,18.184833333333103,4.126343496648901,139.88243592983486,20.63171748324402,26.86880219993137,35.496148921719175,39.14593157290077,37.6380436031728,87.72726608561214,60.868811701464,58.12874270923163,71.96891954476297,92.26784557020898,45.21124432940246,2.768035367106222,24.912318303956454,21.22160448114812,9.40951090079318,10.76018737921802,8.304106101318837,62.74213498774208,22.14428293685012,67.67706528417399,{}
200,53,546,0,18.21819999999977,2.60482698398004,145.35774813091433,22.782931256974496,26.81833520832188,33.61135347084972,37.249936638446734,35.76305078855496,87.56249018051119,60.754483351931874,58.019560961986144,68.14996049503134,90.25265038531164,44.20537978056086,5.525672472570136,22.10268989028043,20.260799066090385,9.39183725445246,11.7938557790764,7.367563296760125,62.62428802246114,20.26079906609033,65.74286078116742,{}
201,53,547,0,18.25156666666644,3.68378164838009,147.17848737360814,20.592965450110164,25.052423725531213,37.249936638446734,39.37512852504218,35.76305078855496,82.22758468916163,57.18766985232892,55.25672472570102,66.30806967084129,88.41075956112161,42.363488956370816,1.841890824190045,25.78647153866052,20.260799066090385,9.391837254452504,10.41930793592048,6.446617884665216,60.78239719827116,20.260799066090385,67.92557735639939,{}
202,53,548,0,18.284933333333104,3.68378164838009,152.07594762729897,20.592965450110164,21.000786534570725,33.61135347084972,37.56734901780993,35.76305078855496,78.1882112497803,57.18766985232892,55.25672472570102,58.94050637408111,88.41075956112161,38.679707307990725,1.841890824190045,22.10268989028043,16.577017417710294,8.237186180043958,10.41930793592028,6.446617884665159,62.62428802246114,20.26079906609033,67.92557735639939,{}
203,53,549,0,18.31829999999977,3.723670121782561,151.21035322023116,20.81594879522693,21.228185820162064,35.813112455729275,37.97413322630362,37.65328386384534,80.38299033967981,59.170043872754825,57.716886887630096,59.57872194852138,85.64441280099942,35.37486615693456,5.585505182673842,18.61835060891304,14.894680487130358,8.326379518090778,11.921561204495408,7.447340243565122,65.16422713119522,26.0656908524781,66.45473314603142,{}
204,53,550,0,18.35166666666644,3.672043516911117,152.7322926261979,20.527347300376864,22.71033492313399,35.316583669478405,37.4476430949838,37.44764309498383,81.49124197187689,58.78137711010505,56.91667451212305,64.2607615459454,89.96506616432356,40.392478686022855,1.8360217584555585,22.032261101467043,18.36021758455593,7.57011164104468,9.18010879227795,6.426076154594568,64.26076154594546,23.8682828599226,71.298188290192,{}
205,53,551,0,18.3850333333331,4.077346983208363,148.0924755334157,20.386734916042418,24.801533452484925,33.27474884759491,35.40489775411774,36.87689302092836,84.47097912596288,59.73000215343567,57.43851764053932,63.820575156154746,89.34880521861669,40.115790098154434,5.47033501338467,21.8813400535388,16.411005040154123,5.7662394021544525,9.117225022307863,6.382057515615486,67.4674651650779,27.351675066923463,68.66426645884678,{}
206,53,552,0,18.418399999999767,6.653528965599692,141.70851260021365,22.22103978030141,25.099567608555063,35.25549428983417,38.92784669176929,35.83035002879718,89.07551382949475,64.05807729875244,59.97409962063574,71.96891954476297,92.26784557020898,47.05660124080657,4.613392278510446,21.22160448114812,23.06696139255223,5.835530935970716,10.438915086106835,6.458749189914613,68.27820572195458,29.525710582466843,67.67706528417399,{}
207,53,553,0,18.45176666666644,5.222515140598176,143.61916636645176,22.46288697574055,28.24506918947101,35.51694283313581,35.5169428331356,35.51694283313568,90.53196479879507,62.28820923750267,59.086013932263086,70.1646415445623,90.4754588337778,45.2377294168889,8.308970709224468,21.234036256907075,19.3875983215238,9.415023063157008,11.822971496967773,8.308970709224468,68.31820360917914,27.696569030748265,68.09326653159081,{}
208,53,554,0,18.4851333333331,5.245873443378974,146.3683299119176,22.563354834843413,28.37139852704653,37.50891221968961,39.34405082534213,36.01168897967123,91.33320271543866,62.97779765132775,59.35028296095493,70.47846101613402,92.73481712649208,46.367408563246045,7.418785370119394,24.11105245288786,22.25635611035807,11.730129620756191,10.814645152836992,8.34613354138429,70.47846101613396,27.82044513794761,70.20950493665228,{}
209,53,555,0,18.518499999999765,5.820006026619321,144.37838525984293,22.16192268674679,28.57142857142856,33.58501534897963,37.53791094660514,35.735026579683584,89.2759330741947,60.706875659249306,57.97409637607484,64.41566264008304,92.02237520011874,43.25051634405577,8.282013768010643,21.16514629602728,19.324698792024947,9.384477736651249,13.271655690960577,10.122461272013084,69.9370051520902,27.60671256003559,66.07693547918421,{}
210,53,556,0,18.55186666666643,13.445279622925275,153.33314487088174,18.560624764820027,28.67084053410989,35.52489197235089,39.48116906552342,37.35025385802143,97.7959587239251,69.22613198305926,61.86951491367017,62.79294050939666,86.80200599828356,37.86044942478338,21.238788701707563,10.157681552990653,17.545086318802078,11.680512528773336,14.889790328244986,11.08110714871708,68.33349408375511,27.702767871792616,68.10850666241532,{}
211,53,557,0,18.585233333333097,13.414857652623828,152.9862055352692,18.79164517654236,31.80945775470629,35.44451155343387,39.39183697378066,35.204207009437994,99.05971068359798,67.25123223660196,59.88685340481322,62.65086202349698,86.60560338542234,39.61745686779966,23.033405155697324,11.977370680962736,19.34806033078587,11.654083609835014,12.361022323544011,10.134698268506838,66.33620684840855,25.797413774381084,66.15681558008573,{}
212,53,558,0,18.618599999999763,18.49842252155921,156.4562561379407,18.771141248730167,32.14577700653935,39.0463340026578,42.97068324853529,35.165795017703,104.39976918167936,72.37336286733064,62.58250245517638,62.58250245517627,86.51110633509666,39.57422949371437,28.53025847221272,4.601654592292334,19.32694928762794,11.64136761361395,12.34753497280784,10.123640103043217,68.10448796592709,27.60992755375424,65.69899437055535,{}
213,53,559,0,18.65196666666643,23.972658557930004,152.3726014634447,18.75030811775848,26.77069644296568,36.95578413434853,40.823966480142175,36.955784134348754,106.09962669047448,79.59330386851454,67.10959278286487,66.1902832926886,88.25371105691806,40.4496175677541,27.57928470528691,1.8386189803525208,20.22480878387705,13.385348221482817,12.333831074368458,10.112404391938526,68.02890227304101,29.417903685639374,69.23566286579242,{}
214,53,560,0,18.68533333333309,8.14986857806168,146.9238452324716,20.12869053917897,23.05130934930646,32.85317054554642,34.816253827402605,40.46309208090827,91.13652257932442,68.30834603646441,63.78281051882448,65.60517653364809,83.82883668188367,34.62495428164766,14.578928118588353,9.111830074117847,14.578928118588578,11.525654674653266,12.224802867092622,10.934196088941349,67.42754254847159,29.15785623717693,65.04595909345531,{}
215,53,561,0,18.71869999999976,4.093027506012295,145.7600597420978,18.667077506440467,20.465137530061853,33.15099614223213,36.79174136310876,44.08325536002277,81.86055012024755,61.3954125901857,61.32032783937473,62.23555661309672,80.5401320875369,27.45686321166033,9.152287737220036,12.813202832108232,9.15228773722015,12.94328944471766,13.940349361249856,10.98274528466419,67.72692925542884,29.28732075910437,65.33477127254187,{}
216,53,562,0,18.752066666666423,2.617651937912766,147.39263325749843,20.6943556133952,21.104184618785983,31.683322022328653,35.36253037355627,42.732716910320406,82.77742245358027,61.7788040440132,62.007141108821656,64.78358026294802,83.29317462379038,31.466310413431984,7.403837744336897,14.807675488673908,11.105756616505346,13.475188095293884,14.096487093375336,12.95671605258957,66.6345396990323,31.466310413431927,64.25255835377504,{}
217,53,563,0,18.78543333333309,11.693607207967386,151.13732859453606,18.855375063599087,24.66769142881664,35.56471788432467,39.22155092879503,42.68567078123045,97.57332524220249,72.95630197673006,66.56117911297088,66.56117911297088,86.89931717526747,34.20505037749888,19.41367724128316,6.471225747094422,13.866912315202285,13.460352730625267,12.40294342992852,11.09352985216185,66.56117911297076,29.58274627243145,62.37199523222577,{}
218,53,564,0,18.81879999999976,20.67157238321412,155.05608514133084,20.422007028678586,28.283062595398498,39.22155092879503,42.88541764091109,35.323598372756784,104.59080247678668,76.3674025526259,65.63671829195732,64.71225747094377,86.89931717526736,40.6762761245933,27.733824630404456,3.697843284053988,18.48921642026972,9.427687531799512,12.402943429928468,10.169069031148297,68.41010075499776,31.431667914458444,67.80779907642203,{}
219,53,565,0,18.852166666666424,22.340876119919383,152.46616689023784,18.455679072930263,29.89456784679248,38.95611144613198,42.59518222688919,35.08453904297961,105.70123477422844,75.85057128650162,64.27430466851058,64.27430466851058,88.1476178311002,41.31919585832816,28.4643349246262,2.754613057221832,21.11870010536768,9.889363528682908,12.31900409531332,10.10024787648024,67.94712207813978,33.055356686662606,63.74745721986192,{}
220,53,566,0,18.88553333333309,23.99929414878732,156.18533601063143,18.49842252155932,28.156711873095205,39.0463340026578,42.69383289025212,33.33580368470889,103.87923109676778,75.8254382671578,63.50283337363476,62.58250245517627,84.67044449817968,40.49456041217286,29.45058939067121,1.8406618369168648,20.24728020608643,9.912267346000707,12.34753497280784,11.043971021501704,68.10448796592715,31.29125122758813,63.89509666201603,{}
221,53,567,0,18.91889999999976,22.13990434627684,152.6496730118038,18.75030811775848,28.125462176637832,39.00299847076553,42.44781536626179,34.98211187561811,103.76394084360784,75.74128348586527,64.35166431233608,64.35166431233608,88.25371105691806,41.36892705793037,26.65997521511065,2.757928470528782,21.144118274053312,9.375154058879296,11.772905756498892,9.193094901762263,66.19028329268855,29.417903685639374,62.02444261007281,{}
222,53,568,0,18.95226666666642,22.34252441517423,155.83594241040836,16.63061499852123,26.295311142342552,38.95898560260204,42.59832487162583,35.087127557365385,100.25580200852444,74.03346328479674,62.44250259089779,64.27904678474772,86.3175771109469,40.403972264698496,23.875074520049225,3.6730883876998632,20.201986132349248,11.615325352247222,13.243508521163257,10.100993066174624,67.95213517244764,31.22125129544889,61.95445123190861,{}
223,53,569,0,18.985633333333087,20.240329050699494,153.67667732983318,18.687634135355385,26.23702468020802,36.83225730215027,40.48065810139923,33.18750280620324,98.22125214057178,72.05139572968052,61.38785524016316,64.13656517628999,86.1262446653036,42.14688568727627,21.989679489013724,5.497419872253431,21.98967948901361,11.146499870753356,10.6850636069588,8.246129808380147,67.8015117577923,31.152045942769405,64.00554039148413,{}
224,53,570,0,19.01899999999976,22.39261770509661,156.45625613794047,18.49842252155921,28.156711873095205,39.046334002657815,42.97068324853529,33.58892655764503,102.58284364075207,74.45016381805846,62.58250245517638,64.42316429209325,88.35176817201364,43.25555316754821,24.84893479837888,4.601654592292334,21.16761112454481,9.385570624365103,10.732810625740392,9.203309184584782,66.26382612901017,31.29125122758813,63.54949967919416,{}
225,53,571,0,19.05236666666642,22.367765282366083,154.19207319540877,18.477892067174388,28.12546217663779,38.7857098805214,42.64644918563364,33.29880597876203,102.18818680710676,74.11710060257695,62.51304533198356,66.1902832926886,88.25371105691806,44.12685552845903,23.90204674458198,5.515856941057336,23.90204674458198,9.375154058879252,10.720898827384708,8.273785411586005,64.35166431233608,29.417903685639374,63.82418275755139,{}
226,53,572,0,19.085733333333085,27.76426132786168,150.96808271539916,18.83426052784029,26.44288488972053,38.95936856392818,43.115175185044464,33.44789766286693,106.30229037197368,79.9496739955633,65.563217296576,66.48664289230237,86.80200599828356,43.40100299914173,28.6261934675191,0.9234255957263712,23.08563989316042,7.614762537157868,9.234255957264168,7.387404765811425,66.48664289230231,29.54961906324548,62.30215012337807,{}
227,53,573,0,19.11909999999975,26.08729556015584,151.0474687897122,20.374829169398783,24.610705410089416,38.91294195965527,42.78634597788727,33.66171026189063,104.62599260416344,80.08842224307193,66.40741293625399,66.4074129362541,88.54321724833869,44.2716086241694,25.82510503076537,1.1368683772161605e-13,23.98045467142515,7.605688273894023,11.811525425481676,8.300926617031791,62.71811221757321,29.51440574944621,61.87145397306779,{}
228,53,574,0,19.152466666666417,27.94792988848918,153.05483276561554,18.560624764820027,26.44288488972053,37.35025385802156,43.115175185044464,33.70187167921793,106.57467591705222,80.18397486127716,65.563217296576,66.48664289230237,88.64885718973642,44.32442859486821,27.702767871792616,1.8468511914528565,22.162214297434048,5.840256264386632,7.835526007912496,5.540553574358455,60.9460893179438,27.702767871792616,65.58272338635035,{}
229,53,575,0,19.185833333333083,25.97265706840136,152.20065685705862,18.457040720883658,26.295311142342552,37.14180773157431,41.066376611309984,33.26122999704246,103.89062827360566,77.67952366228455,64.27904678474772,66.11559097859765,88.15412130479683,44.07706065239847,25.71161871389916,1.836544193849932,22.03853032619918,8.213275322261996,10.389062827360544,7.346176775399783,64.27904678474778,29.384707101598963,63.40733659876405,{}
230,53,576,0,19.21919999999975,26.03088933510521,152.54189992738688,18.49842252155921,24.210126551376582,35.405837360759094,39.0463340026578,35.165795017703,103.87923109676778,79.68173856054945,66.26382612901011,66.26382612901011,88.35176817201352,42.33522224908984,25.769265716837253,1.8406618369169792,22.08794204300341,9.91226734600076,12.34753497280784,10.123640103043272,66.26382612901017,29.450589390671155,62.09335685554648,{}
231,53,577,0,19.25256666666641,25.921791734061177,154.88245097901404,18.560624764820005,24.64006817279528,38.959368563928166,41.00675122978902,33.44789766286693,102.39619895309484,77.91873712785645,64.63979170084951,66.48664289230237,88.64885718973642,44.32442859486821,24.009065488886904,1.8468511914528565,24.009065488887018,9.945598040226296,11.825617626923332,9.234255957264168,66.48664289230231,29.54961906324548,60.12911842670762,{}
232,53,578,0,19.28593333333308,22.41636385991868,152.70366232695153,18.51803909390217,26.38221408750885,35.20308643329042,40.91266495654056,33.218191941495974,100.33366085878792,74.07215637560874,62.64886779986352,66.3340953175026,88.44546042333673,44.22273021166836,22.11136510583424,5.527841276458503,23.953978864653664,9.922778767136617,11.798484819324404,9.21306879409758,66.33409531750254,31.32443389993176,62.15920348789338,{}
233,53,579,0,19.319299999999743,22.11328910434238,154.28019166385684,18.455679072930288,28.09165146234364,36.91135814586057,40.77489039889092,31.434253622725148,99.99578441498032,71.99565322385509,60.60148725888144,62.437895963696064,86.31120912628569,43.15560456314279,24.79151751499694,4.591021762036462,22.95510881018231,7.571707061754223,11.75875308763095,9.182043524072924,66.11071337332515,31.21894798184797,61.595020476566496,{}
234,53,580,0,19.35266666666641,22.51668807374817,154.96465824397455,18.600916393957245,26.500287424645645,39.04394203327464,42.930385831743976,33.36685962962755,100.7827031615094,74.4036655758288,62.92925218551193,66.63097290230667,86.99043684467824,43.49521842233912,23.13575447996766,4.627150895993509,23.135754479967545,9.96718806496207,11.851288820958166,9.254301791987018,68.48183326070415,31.464626092755964,60.628038093986845,{}
235,53,581,0,19.38603333333308,24.262587373178697,156.27357013691207,16.704019449030753,26.411373769344145,38.9129419596555,42.78634597788727,35.096866687123146,102.27417675450512,75.98974409168788,63.64043739724343,66.40741293625399,86.69856688899824,41.50463308515873,24.90277985109526,2.76697553901056,23.05812949175481,9.933746196587885,12.374290794613566,10.145576976372183,68.25206329559444,31.359056108786604,62.63667771594735,{}
236,53,582,0,19.419399999999744,24.288169514830493,154.8609939722482,18.558053424757688,30.06039414851674,39.172202473899205,41.00107026249392,35.13387234531264,107.87973671781666,77.90794247126897,65.55413434115883,66.4774320079357,88.63657601058094,42.47169267173672,29.54552533686035,1.8465953335537504,22.159144002645235,8.25822538552022,10.767408559197827,8.309679000991991,68.32402734148951,35.08531133752166,64.10106678295288,{}
237,53,583,0,19.45276666666641,28.070269758235675,155.30586402243412,16.79715660495551,28.375059037795463,39.34912704041909,41.18625506510664,33.440327770322995,106.52564457636304,78.25982028460788,63.99527949731794,64.92274731611951,85.3270393297571,41.73605184607686,30.60643802045638,0.9274678188018016,21.331759832439275,6.688065554064601,9.274678188017129,4.637339094008553,68.63261859132638,35.24377711446488,66.2084710881894,{}
238,53,584,0,19.48613333333308,28.227319376874785,158.02411582040205,18.74617136801554,30.07728076655728,37.49234273603134,43.2656301792931,33.62742218618456,110.62112734633725,80.55477964496588,66.21863878254942,67.15129566681071,87.66974712055844,43.83487356027922,32.642990949144064,0.9326568842611778,23.31642210653149,7.69088569253732,9.32656884261255,7.461255074090047,72.74723697237829,39.17158913897293,68.40896788454256,"{'happy': (['m1', 'm3', 'm12', 'e1', 'e2'], 3.6772991220919424, 110)}"
239,53,585,0,19.51949999999974,29.80715280618862,155.67287327156376,16.836850610535247,30.267522177263444,37.371851534980976,43.12658504729919,35.5222416662694,112.31580237182118,82.14740314140353,66.93548785976247,66.93548785976247,87.38799803913435,41.83467991235148,34.39740348348914,0.9296595536078484,23.241488840195306,9.480704409688364,10.841600271341033,9.296595536078144,76.23208339584068,39.04570125152816,68.56830067707439,"{'happy': (['m1', 'm3', 'm12', 'e1', 'e2'], 3.6772991220919424, 110)}"
240,53,586,0,19.552866666666407,27.95169520074415,151.74823524610375,18.9614088193768,32.09682426116677,39.2223795350742,42.92571490528311,33.467743929881294,112.11555460494353,80.14506531212831,66.00582830615474,68.79480696697817,87.38799803913446,44.62365857317502,33.467743929881294,0.0,24.17114839380315,9.480704409688377,12.472691746795096,10.226255089685992,78.09140250305626,37.18638214431252,70.80076225975841,"{'happy': (['m1', 'm3', 'm12', 'e1', 'e2'], 3.6772991220919424, 110)}"
241,53,587,0,19.58623333333308,28.015021814527724,150.24271524232077,19.004367280553144,30.336095466766647,39.31124071013553,41.16675705149978,35.45610547615483,112.57026205262078,82.33351410299977,68.01890087800791,70.81419817436438,89.44951348340771,44.7247567417038,31.680036025373624,0.0,24.225909901756268,7.683537338587509,9.317657654521737,7.454126123617243,74.54126123617306,37.27063061808656,73.22517080721376,"{'happy': (['m1', 'm3', 'm12', 'e1', 'e2'], 3.6772991220919424, 110)}"
242,53,588,0,19.61959999999974,31.69766884172683,152.15336463489442,17.160810190059497,28.47319835600693,39.26524669606856,42.972629538037175,35.41462195682108,112.43855523994227,84.091060056419,67.93931900200289,68.86999460477,89.34485786564755,43.74175333005667,32.573646096850666,2.7920268083014435,25.12824127471333,9.491066118668943,13.422394426401452,10.237431630438778,76.31539942690728,37.22702411068644,72.6880882488647,"{'happy': (['m1', 'm3', 'm12', 'e1', 'e2'], 3.6772991220919424, 110)}"
243,53,589,0,19.652966666666405,29.706232413783585,153.3090311555172,18.897209704787013,30.16504307652156,39.08958127824387,42.98056801862277,33.40586281939761,111.93552603605904,81.86927029812317,66.70885917957469,68.561883045674,88.94514557276625,45.39908471943284,32.42791765673769,0.9265119330495964,25.01582219234058,11.719551951049304,13.362345127759086,10.191631263546128,75.97397851007116,37.0604773219859,74.16726577291634,"{'happy': (['m1', 'm3', 'm12', 'e1', 'e2'], 3.6772991220919424, 110)}"
244,53,590,0,19.68633333333307,31.31055299614769,150.29515295685388,18.47789206717428,29.93054852574157,38.78570988052141,40.823966480142175,33.298805978762054,112.89180429074312,83.06407659016038,67.10959278286475,69.86752125339342,90.09233003727049,46.8847839989877,32.1758321561681,0.9193094901762606,26.65997521511065,11.18388264118306,12.333831074368357,10.112404391938526,75.38337819445087,34.93376062669671,71.80036647706817,"{'happy': (['m1', 'm3', 'm12', 'e1', 'e2'], 3.6772991220919424, 110)}"
245,53,591,0,19.719699999999737,29.774040345495592,151.57965968615386,18.665167763983533,28.410517176854288,37.33033552796707,39.17880779546261,35.48278037191005,112.19103189758584,83.90594116901389,68.7183835206871,72.43289073802157,91.0054268246938,46.431340216680496,29.71605773867543,1.857253608667179,26.00155052134108,11.746303191910869,14.144422083656456,12.07214845633689,78.00465156402316,35.28781856467714,78.37962306659865,"{'happy': (['m1', 'm3', 'm12', 'e1', 'e2'], 3.6772991220919424, 110)}"
246,53,592,0,19.753066666666403,31.34169163186129,148.62112159696713,18.496268502426243,26.351198038659646,38.82428262917314,40.86456629391009,33.58501534897952,109.58006510371524,83.32980487632594,67.17633389608659,69.93700515209014,90.1819276961163,46.931411352060536,28.52693631203681,0.9202237520012204,26.686488808034483,11.1950051163265,13.271655690960577,10.122461272013028,73.61790016009496,33.12805507204274,77.25496256170123,"{'happy': (['m1', 'm3', 'm12', 'e1', 'e2'], 3.6772991220919424, 110)}"
247,53,593,0,19.78643333333307,31.68162608551026,151.05787488753327,20.443420850899937,26.17511820904345,37.201832787914284,40.886841701799895,31.68162608551037,109.96665291802356,83.80126691099794,67.55640308150544,74.03441433589637,92.54301791987052,51.82409003512737,25.91204501756374,1.8508603583974264,29.61376573435848,13.087559104521713,12.415948734708657,11.105162150384444,75.88527469429374,33.31548645115333,74.08067139404021,"{'happy': (['m1', 'm3', 'm12', 'e1', 'e2'], 3.6772991220919424, 110)}"
248,53,594,0,19.81979999999973,29.91347672006057,153.48535550916702,18.64407773959779,26.56177837707424,39.13453913298596,41.19112731731061,33.598287350466094,108.61770564590564,82.15216536950092,66.78558262103729,70.49589276665051,90.902598567523,47.30645435656811,26.899748555695624,0.9275775364033052,26.89974855569551,13.505732791688152,14.956738360030194,12.986085509646102,76.06135798507029,33.392791310518646,76.49000317082006,"{'happy': (['m1', 'm3', 'm12', 'e1', 'e2'], 3.6772991220919424, 110)}"
249,53,595,0,19.8531666666664,29.808826195352875,152.94839609320528,20.41917147189604,26.144070060763607,38.9976292681519,41.04702260065064,31.644046281033724,108.00064395536376,81.8647608898327,66.55193722001582,70.24926706557233,90.58458121613272,48.98962045362282,26.8056413802841,0.9243324613890992,26.80564138028421,9.955365282329284,13.330912340457036,10.167657075280204,73.94659691112872,31.42730368722971,78.01716424057967,"{'happy': (['m1', 'm3', 'm12', 'e1', 'e2'], 3.6772991220919424, 110)}"
250,53,596,0,19.886533333333063,31.166021765806427,155.85160115501944,16.872981624383964,24.417003859082925,38.60667291591157,42.44959083658938,34.820632528065744,106.91792332355138,82.68064825568761,66.79981122091664,69.54500894232405,95.16685434212768,47.58342717106393,23.79171358553197,1.830131814271681,29.28210902834701,11.574769902869578,12.276897433489545,10.980790885630142,75.0354043851392,31.11224084261869,75.45826779045447,"{'happy': (['m1', 'm3', 'm12', 'e1', 'e2'], 3.6772991220919424, 110)}"
251,53,597,0,19.91989999999973,29.384769046494377,150.7725686941419,20.12869053917897,24.31339517165649,36.62910357026902,40.46309208090816,31.19388148902413,104.89295627516,80.70016162425212,65.60517653364803,71.07227457811865,91.11830074117783,50.11506540764776,22.779575185294448,2.7335490222353656,28.246673229765065,11.085019711457658,11.668835998990636,9.11183007411779,74.71700660776582,30.98022225200043,73.37145223386186,{}
252,53,598,0,19.9532666666664,31.205895673441784,147.97718227532147,18.68763413535523,23.179157400790285,38.656066416356495,40.687510026160886,34.86518215636495,107.28970716053026,84.61186220812296,68.71774840316772,75.1314049207968,95.28861111905934,50.3930154956563,21.07344284363819,2.748709936126602,30.23580929739376,11.589578700395052,13.214152821442918,10.078603099131216,73.29893163004567,29.319572652018223,76.02003906750761,{}
253,53,599,0,19.986633333333064,33.43949961226,151.6087892676748,18.41612865107501,20.89341013264998,38.656066416356495,40.687510026160886,33.187502806203355,105.74498259105886,85.00780195695404,67.80151175779224,73.29893163004567,93.4561378283082,50.3930154956563,21.07344284363819,2.748709936126602,30.23580929739376,11.146499870753264,10.6850636069588,8.246129808380147,69.63398504854342,29.31957265201828,76.02003906750762,{}
254,53,600,0,20.01999999999973,31.95251396276535,153.13823153912367,18.601912112386625,21.104184618785983,39.26477906869143,41.09796906388952,35.36253037355602,106.81174690696427,85.86536784310039,69.41097885315855,74.0383774433692,94.39893124029572,49.05042505623214,21.286033514968608,0.9254797180420836,28.68987125930562,9.967721614634304,12.416613368037083,10.180276898463262,74.0383774433692,35.168229285600376,75.0038363650556,{}
255,53,601,0,20.053366666666395,32.054603873932074,153.62751599643624,18.936466849530905,22.968254815015385,37.32269233995793,42.86925011951863,33.62940659884848,107.45827286375616,84.56422212219829,67.77587712356785,74.27493383404703,94.70054063840996,51.064017010907264,21.354043477288545,2.785310018776727,30.638410206544336,5.871949099347286,9.28436672925586,6.499056710479124,72.41806048819586,33.423720225321176,75.24347744621073,{}
256,53,602,0,20.08673333333306,31.75513975467417,153.48535550916705,18.91894383396288,21.71403341505041,37.5181894653975,41.19112731731059,35.442687900587,107.35883546588964,86.06000197904012,69.56831523024715,74.20620291226368,94.61290871313628,49.16160942937472,21.334283337275792,0.9275775364034188,28.75490362850224,5.866515442884388,7.870756392804904,4.637887682016469,70.49589276665051,29.68248116490548,75.17385027461863,{}
257,53,603,0,20.120099999999727,31.84529559911692,156.53209603896647,18.81281661747832,22.818278050062897,37.62563323495637,39.13302400974157,31.577006946583865,104.94008435000455,82.1897024202995,65.48856972797739,70.10044083558148,92.23742215208084,49.80820796212379,22.136981316499373,1.8447484430416807,27.6712266456243,4.124982920027995,6.651335101718888,1.844748443041567,68.25569239253991,25.82647820258268,72.48711255908385,{}
258,53,604,0,20.1534666666664,31.648440606737925,152.96963563578467,18.855375063599087,21.080950191730945,39.00304476663694,42.88541764091109,33.73965385673725,105.17748032406476,84.20209206634782,67.48563993398437,73.95686568107868,94.29500374337528,50.8453451557416,19.41367724128316,2.7733824630404342,30.50720709344489,4.134314476642789,7.844310185758962,4.622304105067428,68.41010075499776,27.73382463040452,71.36933336629946,{}
259,53,605,0,20.18683333333306,31.917336183177905,152.9696356357849,18.855375063599087,22.869897670702866,37.16286507113932,41.05272269301212,33.48539511758323,106.9981034283002,84.20209206634784,67.48563993398426,73.95686568107868,94.29500374337528,50.8453451557416,21.262598883310147,2.7733824630404342,30.507207093445004,5.846803603983657,7.844310185758962,4.622304105067428,70.2590223970247,29.58274627243145,72.65109326101832,{}
