,frame_seq,video_id,gap,time_seconds,m1,m3,m4,m5,m6,m7,m8,m9,m10,m11,m12,m13,m14,m15,m16,m17,e1,e2,e3,b1,b2,b3,m_0_16,m_1_15,m_2_14,m_3_13,label_measures
0,0,42,0,0.0,6.528625492373687,133.09062609402048,15.36442559194745,23.082176787424142,32.41634884022486,35.15772424049222,51.230754083210826,83.23382036443485,60.17733356846105,63.38098088079539,78.81928718020686,61.69857632578999,19.03732486023512,12.971300084183326,8.903862621733879,7.428343081613093,28.16811358523707,27.009409410820304,27.5430314155874,85.29127500433458,82.83207577079986,65.41168492395042,400.00000000000006,408.20478627887695,401.8420699482918,373.1390985748424,{}
1,1,42,0,0.0333666666666666,25.335217027914528,157.44027724489678,12.796216973765022,30.81737138806793,38.045888247519386,39.85359127788682,48.894276403882536,117.75301073579251,86.93897097182258,74.23029576599265,76.88687792774226,75.21207613011757,27.17221537180967,41.62941249843334,9.249911077686647,14.697829568810905,29.179864255446983,28.954533746188066,29.85767342662212,65.87553737324333,64.48949450624355,59.74613862589723,399.99999999999983,403.5903302049679,390.8903945750705,367.36510416431776,{}
2,2,42,0,0.0667333333333332,21.816153551082763,156.35966993400544,14.657287750440886,27.330725180793223,36.40567786737221,39.99628151031836,47.30328155845024,111.03281525075826,83.70759532695168,72.73873192387873,76.78832279136759,74.14310310357769,28.188422891156502,35.46037228740784,6.4687645092317325,15.549082273862496,29.144962261400305,29.08820473477698,29.9967912595364,68.54485634614628,66.02468340723374,67.36467273276648,400.00000000000006,405.453538188092,390.8769790374362,365.4250943725435,{}
3,3,42,0,0.1000999999999998,4.065536141785408,159.99834713305063,19.99979339163133,30.908771605248376,38.18142374765978,40.040887348506566,51.038268557403626,105.59442621399025,74.74397255040057,72.7265214241138,74.54468445971679,74.54468445971679,23.636119462837087,30.908771605248376,1.8181630356027647,5.454489106808524,27.332983778419685,27.272445534042618,28.181527051844,69.09019535290815,65.45386928170251,65.47911667677133,399.9999999999999,407.26851997503786,392.727424378394,369.12739813372576,{}
4,4,42,0,0.1334666666666664,1.8181630356028369,158.18018409744784,18.181630356028595,29.147370786682828,38.22468883094279,41.81774981886548,51.03826855740359,100.1476152692355,71.00153629781305,70.03351423728327,73.61728836033285,71.96104215207083,21.84531636759312,27.2614318417368,3.4552722620637724,5.673119196115522,29.14737078668272,27.272445534042667,29.079495208277194,68.00128110243281,70.19057206737682,61.924401619052965,400.00000000000006,407.2725783544502,394.5581356329702,369.12739813372576,{}
5,5,42,0,0.166833333333333,1.801728687114292,158.5521244660545,18.017286871142687,30.62938768094228,37.83630242939944,43.2414884907422,50.73714049631257,101.041484519464,70.47500394334722,69.36655445389874,72.0691474845703,72.0691474845703,21.62074424537127,28.82765899382798,3.603457374228583,5.405186061342874,27.0859213468054,27.02593030671392,27.926794650271063,66.66396142322753,66.66396142322753,57.68346312869679,400.0,405.39295842246247,392.77685379090775,367.5703157536127,{}
6,6,42,0,0.2001999999999996,12.79713376301974,155.64176909361956,14.478304101731972,28.95660820346417,38.17751995196518,41.62512429247962,48.99815132392997,105.108025534351,76.20475569263373,69.69980187747956,72.83097857949042,72.00748868232563,23.536490316643267,32.575728257615765,1.9055173201836624,9.163718971939945,29.013108956123663,27.14682019074776,28.046533823209074,68.22518043371952,67.52617156752126,59.83258800614254,400.0,403.5989577920248,390.91840004842135,367.38696658145096,{}
7,7,42,0,0.2335666666666662,23.486665065179416,156.75841810492412,14.410759847821604,30.67579965939193,37.99941400231934,41.47007574699641,45.3567076789416,113.84158247113189,83.17455653463021,71.2158560026985,69.34313392781996,71.28733394448773,25.226948255489106,43.25845037085969,11.026663820023032,11.026663820023032,27.259295966202817,27.08015297873264,27.90975367064607,67.37987312667497,65.988435859844,61.35159931878387,400.0,403.6017847043301,390.9582642635299,367.49203594002495,{}
8,8,42,0,0.2669333333333328,26.955798836750564,159.6237916094734,12.55151146548968,32.32508440956961,36.04032259578423,39.48833809587583,44.97004372594882,116.7702266995498,84.4459368256275,70.90571489051308,68.15950108087509,68.35021037321098,23.361888311156008,48.42108932410247,14.741828297570464,11.194635460121162,27.134119185865767,28.6891690639768,28.6636066380961,67.7780824962033,66.82453603452348,59.27998268243752,400.0000000000001,401.74841431610633,389.13403719650734,362.2007594327046,{}
9,9,42,0,0.3002999999999994,34.25937995200165,162.21695034830108,14.40506427029314,32.46137365805999,36.19227605767431,41.45368549179581,45.15964674094245,126.24993128211824,93.78861232352504,76.61918643715512,68.88583909259705,71.80013008697483,25.24766479116215,55.84772023212895,22.076230473750684,9.52382677901278,28.86634347899728,27.009495506799464,27.90005054911705,67.53345568997725,65.90488131076609,63.25324247654593,400.00000000000006,403.53869574764815,389.0867591165269,363.7679837253774,{}
10,10,42,0,0.333666666666666,39.622725125392186,160.4900644129382,14.50541473826177,32.43509339658051,37.953643839334006,41.537186534208615,43.51624421478509,129.9896348604691,97.57105133735028,77.63771734458555,68.4406485375032,72.45426077802927,27.07761622933185,59.43379832001892,24.167271808476244,11.66039954238181,27.226462238315115,26.98762900750029,26.96348507557275,65.84416478948492,65.68247898832624,57.82606407295748,399.99999999999983,401.7965642967631,385.53181698141736,360.1992021678737,{}
11,11,42,0,0.3670333333333326,39.50997375740127,154.07353466617676,14.3082598009866,32.24322773444833,37.72913389522721,42.96202433786525,47.048943695719146,132.94223365997516,100.73106358526368,80.82080691201031,72.0126764187628,73.55075560467708,25.98971692720147,60.01852475469354,25.063048100905466,12.557795589342504,27.065407570119888,26.827987126849845,27.690201989889147,61.45629442848258,60.53917888905551,59.26496063610179,399.9999999999999,403.43600010630496,387.2534215775137,362.0309601266271,{}
12,12,42,0,0.4003999999999992,37.58859299757098,154.01965660947485,14.41456740458534,30.60403888985661,35.93648679339656,41.16071116499041,47.03249112544703,129.52149486980434,98.91828992776232,80.00040360330581,72.83725110598266,72.7802876666401,25.984822246751264,56.53621354746156,23.56387607469333,12.645883534042014,28.82913480917034,26.818605633689884,26.7728164909895,62.08065497680138,63.48575314725031,61.208077779712895,400.0000000000001,403.4256840862572,385.3344111743186,360.23997666661575,{}
13,13,42,0,0.4337666666666658,30.457136712468703,153.39390834514634,14.234599403262251,32.22494497091064,35.763988379817384,40.96313599804185,48.8585906611502,125.57799171938558,93.3594679963346,77.89590550038088,72.64363775179572,74.2670659649948,24.972145750091386,51.82555831194895,17.14149201583723,11.81282764545449,26.926072059449098,26.749118957081787,26.69584452939989,59.94269937794434,59.58936500213042,55.41675986984589,400.0,403.5460289374184,385.5226816840774,358.6388180999805,{}
14,14,42,0,0.4671333333333324,32.20751006894981,154.0168799378531,14.403636380036316,32.35581865103267,37.898474382879705,41.24573766997121,49.05701779798976,127.86016419628972,95.50950252259678,79.18832995544017,73.32744517550441,74.23787387918401,25.074723880501097,53.82909710503941,19.081068247945723,10.16645385775223,27.328978529866166,26.857753918013337,27.69220640357912,65.05771778375083,63.995550962791526,62.75857163091003,400.0000000000001,403.4046886385133,387.2326577671325,361.7490498568218,{}
15,15,42,0,0.5004999999999991,33.69168797069328,151.02718686049406,16.03523802139345,33.83100636503062,35.592555194890444,38.99773231764463,48.33331925413874,131.8024147393067,97.97158843821676,81.02797552145239,74.33517754334616,77.11757670278371,27.560791673886115,55.94878309787509,19.852794002471683,12.671196172032296,26.797003057365306,26.620898172305264,27.44799170796307,66.2511799855215,65.42398023541841,60.62228339882952,400.0000000000001,403.3762460586522,387.4968982506133,360.5863807350225,{}
16,16,42,0,0.5338666666666656,37.40816432355986,148.20826058439326,17.88199418990845,33.99395496871158,33.99395496871146,39.18556669535463,46.80673087925304,135.97581987484585,101.98186490613428,83.23689924189807,75.41249857611592,76.86600605805847,29.47599913056456,59.77313560482367,23.567585600070288,12.921115212854149,28.690752333219724,28.524748515554183,27.569450355548724,65.48334356959856,64.84153507107851,60.91427342493728,400.00000000000006,403.6989860794508,389.2128383746004,358.9211970172872,{}
17,17,42,0,0.5672333333333321,44.76898306352572,143.7053435964888,16.164371863158372,35.87918663649521,36.10052856713263,39.43318149831296,49.01596752885642,145.68727613234296,109.82086209522885,87.26410946204442,79.21566186626137,84.63179366012969,33.197479142136444,63.59220476856444,25.48990697393924,16.589270809190793,27.012802782194218,26.835279701761603,27.724534777003782,65.56170723906212,67.09564666319966,64.65748745263383,400.0,405.1605845551609,387.221453005095,360.232135938882,{}
18,18,42,0,0.6005999999999987,53.45594430286158,144.89761136268578,16.099734595854095,33.96708067949879,35.95617161131782,39.27549809961677,48.81996497322539,152.16529246613928,118.20148295320746,91.34768456058691,80.6719072611254,85.93434872146076,34.77172341264554,68.72295864061493,32.54603132547845,18.229927137684623,28.66807054827764,26.72797215143068,27.61367131874863,70.61856927417648,70.37336590864129,66.16627372679027,400.00000000000006,403.5404490357094,389.3803354775349,358.9546080119813,{}
19,19,42,0,0.6339666666666652,50.740522022301725,147.28773150433767,15.80641945681534,33.348246938300925,35.08465893675568,42.03785746002048,45.91764686317387,145.72798689272776,112.3799524319417,86.94594642661423,77.65337029900365,80.57309210344943,33.333490600753294,66.53596804361496,29.421812029413104,17.106575187584667,28.145777522341355,26.18290533592881,27.04485902194756,65.76860526167741,67.43434398344436,63.22567782726113,400.0,401.5660695444721,385.76147194935226,359.53195971612746,{}
20,20,42,0,0.6673333333333318,42.08958651030479,148.92200711382452,15.825869807434785,31.65173961487002,35.34453858891829,40.3482094838449,47.70224282649685,137.22309263870002,105.57171924669832,84.3877263970669,76.87975560245627,77.83107612549998,29.81736972716885,59.69069948510469,25.70430746577336,13.383774025175851,28.180411883574585,27.962799268750068,27.96136204005381,68.72824445402148,68.2059508335268,63.13437976545718,400.0,403.3344524251972,389.2570810370012,359.3629400249958,{}
21,21,42,0,0.7006999999999983,31.506658302808106,157.44601813172198,15.82586980743482,33.38928311966205,36.86724354918724,41.98059300880357,47.70224282649684,128.3440892815578,94.95521884460976,79.09640410616112,77.04770480484672,74.05771122995498,28.017347201762504,52.65710906892468,18.7705152201529,13.427285961319058,28.45008704129566,27.962799268750224,27.90660669898876,67.05337442951429,66.49967191564542,63.13437976545714,400.0,403.33445242519736,390.8623362684821,364.338883782389,{}
22,22,42,0,0.7340666666666649,22.79703598502223,154.60730581714125,17.418711256846304,32.97688414354215,35.05233770772229,38.17035530005172,45.36287996676889,118.482231117229,85.56242756005547,74.04390789389186,70.73610444846008,72.05922582663266,26.10620257702135,46.97080892512872,13.282103065502495,7.989617552811524,27.94743837441053,27.73162480974632,27.683770374073674,65.24006180066624,65.24006180066624,57.6151201915678,400.0,399.8610374265012,387.5031002104207,363.0561485452202,{}
23,23,42,0,0.7674333333333314,24.5389232530241,157.59196621482695,17.57045775634494,31.66352859187562,35.14091551268987,38.621781298109816,45.991273618165,119.70607490470016,88.0434422421423,75.58423079758154,71.00959232292553,71.3363522139723,25.4079155281147,48.29044389828209,14.214055260538544,8.789841069160275,28.460683533811416,27.973214266522984,27.93330268606269,64.7918183961483,63.40075485997727,56.19174900654165,400.0,405.2270943484379,390.8789090251353,366.2189829737184,{}
24,24,42,0,0.800799999999998,26.16911432587252,153.43250150378066,17.49425658023073,33.256859614407944,34.98851316046169,40.07492698353777,47.28931093628301,124.19202146178836,90.93615197194433,77.78634621988886,74.34269176027465,74.1780548936797,27.03703209195009,49.83009162278268,14.241088960475963,10.564198939851847,28.068647012560355,27.85189745984881,27.855643178631567,62.14127064706042,65.42486148637363,55.94805146481652,400.0,403.3307033008311,389.1837094464467,364.6307308288454,{}
25,25,42,0,0.8341666666666645,28.210316106737995,150.62219906172652,15.84266375439469,33.28706958546837,35.165108454272875,38.52939129859224,47.52799126318383,124.81884794105198,91.5791398288786,77.33396651324165,75.97512201438371,75.0137626410417,28.04581094922014,49.195717162738674,13.338861305117009,11.406898718305,28.21031610673788,28.047092078421308,28.87313464070177,64.70688089800285,65.22453594518674,57.97255598910585,399.9999999999999,405.2342475668455,389.5326626767319,366.47110829066986,{}
26,26,42,0,0.867533333333331,22.696519613713004,149.95675045343162,17.494256580230847,34.8583632494194,33.25685961440818,38.33590094762158,45.79181443563881,120.7278157039244,85.93351363894413,74.41451870552783,72.65363853492931,72.59817774215458,27.03713647769314,47.9920726810883,12.413974116082729,8.836752982110966,28.0686470125605,27.906242677300348,28.72406892459196,65.55465705976076,65.48995280152349,57.54994142252844,400.0,403.3307033008311,389.3121574145367,366.3676005622144,{}
27,27,42,0,0.9008999999999976,26.11569850682365,143.49890684068862,17.343813384044754,32.83508843675568,32.97086470901946,36.28231919645958,47.10446130013053,123.30530968654654,90.54969895225086,77.27246279956421,75.2963145705919,75.49899644023003,28.476802684167296,47.731580299796406,12.363594047930292,10.438116286367404,27.82726853786941,27.612382939498065,28.476802684167183,59.68981060845033,61.41260650037498,55.33252162219917,400.0,401.5828108317747,385.96423776976906,361.7421414019777,{}
28,28,42,0,0.934266666666664,27.78573534863299,138.92867674316497,19.144112976052064,33.11324675479293,31.39006789482244,36.43900149394207,47.59277260157585,127.48349631122564,94.3773289914407,80.21230688025025,76.90637666175849,78.23424337001688,30.380674514810835,49.602689829532665,13.896811929533214,12.166006358078675,29.66805963980084,27.7316248097463,28.55829192899421,67.65709821113023,66.53070093446945,64.3398348767298,400.0,405.0450696166979,387.63099350256647,363.05614854522014,{}
29,29,42,0,0.9676333333333308,33.25685961440789,136.1791176822781,19.227141403607,33.11990559559489,31.52620729085536,36.721026285332165,47.51305343357309,133.02743845763223,99.96779906533791,83.18096831894286,81.40235984668288,83.22233130666996,34.96551229186775,50.60072165266388,15.000976882315626,16.738222366848277,28.06864701256053,29.592641051089533,29.533173237058804,66.89773881709118,67.86287519738721,64.50153849220246,399.9999999999999,405.2045783926504,389.44834381407577,363.0149539944672,{}
30,30,42,0,1.0009999999999972,20.963897026573427,133.18446625094236,21.036562398795407,36.85282435379551,31.63936026197931,36.72839127703194,49.68954643860405,128.29389245850894,91.44628209142908,80.86429796139305,79.84034894545493,81.88824697733139,31.493350814533187,47.295374817255606,7.970197745681389,11.5678564503296,28.16939020617072,26.20487128321679,27.02395173145124,72.25759136796637,69.96062465653733,64.85080636594883,400.0,403.3242884335616,389.1048381956927,362.57543243580176,{}
31,31,42,0,1.0343666666666638,12.2893809556917,134.23019739947568,20.92806164925324,34.932984197386766,31.476173224174048,36.53895642985989,51.14509043522845,119.21332983435389,84.30551164627347,77.96335801987357,80.3064313568234,80.81998167725055,29.65753100467828,38.4520802419961,1.2196820110150384,9.885843668226016,29.749441370323765,27.861953721319704,27.86010488318243,72.41059518025315,70.86994421897111,66.40815778806265,400.0,404.8600352006847,390.70568781529335,364.3008670961928,{}
32,32,42,0,1.0677333333333303,10.516773373325798,138.70421891792935,19.09684260493893,32.89545809086643,31.312559986228884,36.47217464845087,50.61416357516754,113.0313493732999,80.20524815072952,74.86551079053902,76.98776215256817,76.32770989310347,26.12706860381286,36.33037644803858,2.9610677750988543,8.268988028294643,28.14521627984972,25.934203384420577,26.78253716703125,73.0274485957799,70.84560918254908,62.62511997245745,400.00000000000006,402.91511328075296,388.6747985387655,365.6099303971986,{}
33,33,42,0,1.1010999999999969,19.08775111937701,143.80855988560455,20.80936603545797,34.73485825192184,34.73485825192162,39.89683575623146,50.590067553281074,125.19061172408054,90.45865577026262,80.85914188498441,78.81120509408493,77.73913080086209,27.768556800095663,46.85514443071793,10.05642339155429,8.333774099879975,27.865158797495205,25.979397081516872,26.838509443154862,73.13012764281973,71.08677236599351,69.66289699373756,400.0,404.7832566250239,387.0765832751887,362.5148995717659,{}
34,34,42,0,1.1344666666666634,29.45639079699433,143.94295792608213,20.82881368183555,34.767320136589866,34.767320136590094,41.54975244621408,48.924402169913805,133.90681268239717,99.13984166595276,84.38322820955977,80.74669215335712,79.6736159400516,31.380600545514653,53.65839646106474,16.962858602639017,11.927654832512644,27.891200520901187,27.729822885628103,27.65693436942854,71.47421307940851,69.29137428653041,68.01195813420063,400.0,404.9879741198361,388.85282891111,362.5732288087257,{}
35,35,42,0,1.16783333333333,19.25624506075503,148.4805092011141,19.023766779155466,34.48964975290747,36.33261051548414,41.371808363241065,50.42048382003086,123.05930867520526,88.66241055489539,78.9397103000963,77.2411001525004,75.76166550782023,26.16407566054795,46.49260355596834,11.671095530254888,8.511315363221684,26.06359622298121,27.557294686235405,27.538488710081083,67.73436271353705,67.14076239314079,62.38547918725218,400.0,401.53957749758496,387.1874986509199,361.0204455329532,{}
36,36,42,0,1.2011999999999965,12.173190497470824,149.93299235613833,19.01513142752417,32.89014956305744,37.91318634473762,39.59562952741116,52.10353064220186,116.163112823284,83.27743590159889,77.11932094483518,78.92213397514888,73.87425749027057,24.36764245277141,39.67557891776346,6.585972665170857,6.859817682434141,27.75914530053312,25.823236648311656,26.66794059777897,70.86196230037933,68.96330351402366,69.20541772008065,400.0,401.35730889190967,385.446349353943,360.99205936011066,{}
37,37,42,0,1.234566666666663,13.83263475488824,147.7120538256765,18.95082611553492,32.77892175813378,36.0710983057425,39.49900595807313,53.43601936093923,118.99282346174591,86.21422381860546,79.28867849470885,80.29547507326447,75.27528391444116,24.356202160664,41.1821175830928,6.509698425726583,8.633625454459661,27.66526950977614,25.79303520876645,26.6456299968304,72.37901978435082,68.82075242452572,67.46103131201765,400.0,401.5424788217422,387.1389256489896,362.70488827642606,{}
38,38,42,0,1.2679333333333296,17.412337391441792,149.16402445418808,20.863174375634618,36.549075184065934,36.549075184065934,39.88727079510685,52.23701217432493,127.0593957812062,90.51033131663436,81.77490316732224,80.15156868069244,76.84088088260819,26.28430036379632,48.51712367082064,9.831462383813689,6.61223004976523,29.909180855335112,26.04657395914836,26.91077029243933,69.0397298003819,69.71650023424445,64.47944245309444,400.0000000000001,404.8968552787663,388.8579516566482,362.61298944269817,{}
39,39,42,0,1.301299999999996,22.370345523469894,151.1398865989432,18.95082611553504,34.357410014573524,37.78497164973575,41.213181147494616,50.0216132706373,125.67042810868888,91.33729683885552,80.12467010573732,77.83643986511197,74.2118831639616,26.03090721735384,49.63629037964552,14.882649485027514,10.104824742601297,27.665269509776223,27.50519910444056,27.50452749231681,71.59414776868607,69.3516821328733,64.05892086574207,400.0,399.52504320910055,383.471741833854,359.0832951205307,{}
40,40,42,0,1.334666666666663,22.49317607210774,152.05786306651453,19.054880850248864,36.39203383788484,36.26915661423843,41.43947347928404,48.58060464230233,126.51345642547842,90.12143326102898,78.84277042570488,78.2339989617501,76.3664895084155,28.754152906489253,49.168594479705234,12.376827357393722,10.893805144451562,28.083372409338377,25.93465897860908,26.73559489442914,75.70736852488562,73.01595784213885,69.35008542402383,399.9999999999999,401.574253768105,385.5772991390364,360.9683802454,{}
41,41,42,0,1.3680333333333292,20.953591770406465,153.28700470612296,19.22004467070485,36.58353026570316,36.58353026570305,40.060135338388406,49.21749103615819,125.87800309843163,89.35719805092182,78.75516458610491,78.47805281768092,75.66998689765069,28.00676272872033,48.73472300683693,11.527849566439045,10.012971899054264,28.32679335302512,27.841617331724457,28.653356855043057,71.9382150828742,67.65221973124937,61.299984982184654,400.0,405.055017487924,389.0400618402908,362.4468070897702,{}
42,42,42,0,1.4013999999999958,22.58155659021671,152.56688363137732,19.129751568223824,34.68179772741448,36.411665917623246,41.56623191609225,48.77148826827762,125.1309282254101,90.4755397215313,79.13906424379047,77.99904984250884,75.2041758264645,27.8751908442348,48.50577404161686,13.202102260000174,9.965932346685577,26.208801154271875,26.036561821949995,26.84550041727084,69.76152642679858,67.44472296612992,62.73303979022592,400.00000000000017,403.2971847917876,387.21240562123546,362.5687564933956,{}
43,43,42,0,1.4347666666666623,22.562952499767263,150.7124955096854,19.03549407358232,34.782608695652115,36.50492612612082,41.56802350771097,47.233443099923264,123.4611618337892,88.67860023639633,77.37208047877061,78.74630578260644,74.52775368710991,29.52986466847756,46.78757778641875,11.696894446604574,11.824729358589591,28.17049027108796,26.01511128335684,26.87729024479393,72.09889035939955,70.30920159161303,62.68135641128031,400.00000000000006,401.3938170771063,385.4316086410655,358.9191049251764,{}
44,44,42,0,1.4681333333333288,26.10393831729825,147.849826175547,19.17925486387275,33.03741815546981,34.90137182257207,39.97511757645719,47.39471885260813,125.61085806735764,92.61747789170384,79.51722565334558,79.35987577136348,76.21287813172466,30.49810947826495,47.80659649627842,12.70831693889454,12.70831693889454,27.99874008504357,26.10393831729837,26.10156865818112,71.70526680671253,71.19619365912376,64.6214504513822,400.0,401.3657759595784,387.2034434433722,362.3771896841217,{}
45,45,42,0,1.5014999999999954,29.75019185008476,148.6586023974462,19.296150915469862,35.114092941841385,35.11409294184149,38.47349507852732,44.23028996411812,128.2938924585089,93.18197414306,78.22655168671122,77.38858010443118,73.83672328408511,31.552486794146944,52.587477990245134,17.106999404160433,13.498008157749837,19.918766836673232,19.296150915470086,19.29239120112936,69.74208941612585,66.92345773027478,63.27872052395871,400.0,401.58389319212,387.0956132911866,362.1374578639629,{}
46,46,42,0,1.534866666666662,31.467935909770475,145.14138536956295,17.542329468377673,33.21091658024743,34.95415138364442,40.18504983863272,44.19321440639556,126.27051270220524,93.10386537045508,77.27667059077953,76.95197869754111,75.85983323846585,32.395395711757146,49.81068816728043,16.042731270469403,16.042731270469403,14.39398457141118,14.39398457141107,14.10933863345781,65.0269309822337,64.79079142351463,54.364130162587,400.0,401.4029061083161,383.5594563177446,362.4018459883164,{}
47,47,42,0,1.5682333333333285,26.20487128321673,139.93390360168456,21.036562398795333,35.11409294184145,33.238778623577865,38.47349507852738,44.23028996411813,126.3764463787946,91.26253743541838,78.12916768752325,78.03229333205218,76.48230364451297,33.23759136216904,49.03779873952158,11.634610092090952,13.271786699554696,14.40606029418893,15.819680130989685,14.928338178111972,65.7389376227568,65.68081300947415,52.67113941276217,399.9999999999999,401.4356686813617,385.4838600902521,362.4533581228031,{}
48,48,42,0,1.601599999999995,14.057550585814246,142.3760805722539,21.15941561565537,33.57114085522058,33.386682641309235,36.901070287762906,47.7362004950246,116.45304092826966,82.88666686844036,75.84412186187251,76.8450812378776,71.85935025072831,26.677950607145704,42.04506026543345,7.802716659620728,8.327028713718619,19.64602419188942,19.32913205549488,19.29468359080306,66.25397774509963,64.07093301076486,52.832831077629386,400.0,403.3783766965796,387.3646002327149,364.1633170101909,{}
49,49,42,0,1.6349666666666616,14.242182297397044,141.36618033249894,17.753359558912564,31.84648776492413,33.61043608222111,37.09703132580424,55.018117840262086,118.83083636187806,87.00921697356168,79.80471188992533,78.42746745305408,74.40893231533437,21.45105376332026,42.33611666217325,7.810673929652466,6.42399631170656,23.235012668373685,22.96482891597414,23.8140656224723,70.38096399654023,67.49441058775574,63.98626783556301,400.0,403.3252329866537,388.9606315722595,362.2927630867781,{}
50,50,42,0,1.668333333333328,28.22147421123072,146.2833765028209,15.843664746623038,33.49403115471334,35.20814388138419,38.76894687931779,53.27958967428761,130.69763804669802,97.22166497874024,83.00112321715051,75.70390994963759,76.52718529263893,23.05170960404212,54.4858590640988,19.98313787103621,9.729617690017903,24.70849241292028,24.64570071696906,25.5028248297964,69.45450166412616,67.80795097812324,61.84017565741875,400.0,401.6198389420796,387.3895929183774,359.1403260694811,{}
51,51,42,0,1.7016999999999949,40.50937833183601,156.79325564111832,15.94904445657788,31.751878415783658,40.54764889146418,44.031932969386965,49.598019621260384,137.66159748202702,105.91121575063096,85.64500741340885,75.98565454741265,72.80507854282746,24.89882872228509,63.23512056453433,28.869843733927382,11.64956536590671,24.72070519515355,24.65788246285678,25.515182948025995,67.70486494967611,67.78955484328935,63.625762240549854,400.0,401.7102528250751,385.7840663442799,361.0790331334664,{}
52,52,42,0,1.7350666666666612,50.65309005838219,160.7020539921865,15.719924500877127,31.488329907964275,38.42648211325552,45.5472753847658,43.97973167893213,141.65172492282062,110.16416216541457,84.80561239487497,71.83006888084333,66.64732210121929,25.47016548004399,72.35768184129188,39.58964859858793,11.910979310649282,24.51551717820813,24.45321589025345,25.302076395299764,71.02697658706381,72.05418766050275,66.39599292746009,400.00000000000006,398.2419177280962,380.8355967342313,354.72647270212934,{}
53,53,42,0,1.7684333333333278,56.414644115145016,174.4832407987074,12.33468207589643,29.955656470034832,44.05243598534568,49.3701843018756,40.681178408841774,139.3060341924555,109.37786064014328,81.11698409870041,65.04704032297286,58.70999794987392,21.29871416429341,77.39432691988463,46.05012181886309,11.068511230143258,24.732216136848383,26.490133054279944,26.39960701618236,61.665389908628754,61.55172098713808,65.2214130390057,400.0,401.77367288410375,386.04414199065593,359.74417889385074,{}
54,54,42,0,1.8017999999999943,56.66481626046752,178.79610626442147,14.159292035398254,30.08849557522123,44.2477876106196,49.68378353139191,39.298412940131946,140.0021256677174,109.962651801834,81.44789132499386,62.50443022604827,58.00872999022545,21.29068985364848,79.60228807028761,47.86737672141726,9.024526683909244,26.60760420950952,26.60760420950948,26.53882833946693,63.11963131095035,64.2459225279249,65.48672566371685,400.0,401.8049963239319,384.2175813467683,357.80239605749034,{}
55,55,42,0,1.8351666666666608,58.69301683152521,183.11793233372828,12.444321538171971,30.22192373556041,44.44400549347142,49.90410746944713,39.4726827014681,140.62296847538596,110.45028383711744,80.95031533789438,59.80957182816337,56.06311095302112,18.770533568314704,82.57505602354263,50.82571156634253,8.35307858386318,25.141326134020574,24.95205373472364,25.75691851660281,64.58822090359979,65.06608581114335,64.02405426365212,400.0,401.8367342987459,385.9746303588952,359.46381979755915,{}
56,56,42,0,1.868533333333328,54.89096027416458,182.31918658819063,12.388289121202265,28.31608941989037,44.24388971857893,49.67940676964098,37.542185335292174,132.92030903654322,104.6552714824967,76.94995414376126,56.05096505235201,53.49151680942509,17.635454714740263,77.92045124702736,47.711350238502746,6.893383836433486,26.78126171878896,26.605260282857834,26.555464855052605,60.77975976140317,61.40772847528103,70.79022354972626,399.9999999999999,400.1056922124265,389.6718892433948,361.554613135192,{}
57,57,42,0,1.901899999999994,53.57502891502152,178.56459917254205,14.278743944101327,30.34233088121484,41.09017145430715,46.54301093182841,36.09621565302765,134.0534725370938,103.76678680005168,76.71336068674168,56.53528184924926,52.14559699576671,18.673044030583924,79.48223882509251,49.024579303235896,7.858018270684852,25.051465194917164,26.832073702821088,26.78672526526293,66.66532381882485,69.09653389152288,66.03919074146759,400.00000000000006,402.1604176112815,390.14234616838,363.9066826378595,{}
58,58,42,0,1.9352666666666605,51.80358945325533,176.7777517068703,14.282156713829956,28.56431342765991,44.66743085176081,51.895794075821975,37.87128698369316,132.30281094590384,103.79158815164372,77.58714257719134,55.98664277505918,54.32692154835968,17.726208682830475,76.86825169702206,44.48438869235156,6.7836280370329405,25.05745275813814,27.016031146812065,27.70865989806657,65.5203902865652,66.79412983263705,62.509934271536586,400.0,400.2986873110714,388.09806385652064,361.61736157560864,{}
59,59,42,0,1.968633333333327,53.58196381406907,175.0192032344921,12.495518195979557,28.561184447953565,44.62685069992735,50.01393894768101,37.867138503502034,132.28831828842743,103.78021865824238,76.68615869832001,57.78477660345243,54.32097049214167,18.62640027266048,75.95769808159594,45.36235217918375,9.469988017413243,25.054707925451176,27.013071768375784,26.813139786440843,63.70894638714231,64.98254640578602,62.477590979898245,400.0,400.2548379648488,386.1705563065542,359.93484810131747,{}
60,60,42,0,2.0019999999999936,57.15025387140024,169.66656772791924,10.710444167982695,26.77611041995652,42.87894958709898,46.44624038860361,36.4085092078594,130.6157097526596,103.91829573430024,74.83300840780385,57.24992869102152,54.645027992238965,20.36646435233365,74.20107879383954,45.29632881771886,11.09494742074071,28.616913641332104,26.835546920216373,27.70842521075383,62.53691233151346,64.47611618505164,64.28745292203149,400.0,398.5555053925041,384.60371698533504,356.376070253566,{}
61,61,42,0,2.0353666666666603,55.58526506145471,170.37968604224665,12.678941244840647,30.48224213047527,41.24068052946637,46.65436916045769,38.33152406262695,136.56814796092178,106.17051964853286,77.94935094599691,60.40448095815191,57.734190306155824,21.453905581290428,77.1540477734709,44.76351856514157,10.589582242663482,27.13411918586572,28.745147983672545,27.806690923043107,61.58056564964477,64.04841549408877,60.9908472824035,400.00000000000017,398.4658613993089,386.214785767588,357.83377643020964,{}
62,62,42,0,2.068733333333327,57.41788702247462,166.79895577431446,10.760600899193603,28.750925902923484,39.4555366303772,44.87169141363673,38.04446932730988,134.80608543913817,106.05547413656254,77.11763977755527,60.97673842876452,59.18330494556562,22.41791853998689,74.42748955275692,43.93912033837455,13.450751123992177,26.96121708782771,26.9612170878277,26.901502247984467,59.18330494556574,60.97673842876464,62.77017191196365,400.0,400.19293768833006,384.30145302178175,353.96125736547816,{}
63,63,42,0,2.102099999999994,59.190444639770334,165.02553286536178,14.46086730067351,28.69839740110101,41.25394626408242,44.877104598240585,36.27432306167176,138.29726516881658,109.64762052900258,79.77724720796732,62.2406797926285,61.343868118247656,25.949050839150686,76.27773208728559,43.87553637378551,13.286459915012074,28.92173460134693,28.754394327325404,28.70772153317,61.58756694280783,60.47630030281414,59.21761491645485,399.99999999999983,400.1286664957585,382.38830941124655,355.69030527700835,{}
64,64,42,0,2.1354666666666606,59.21999648150377,163.22869955156943,12.68352970738223,28.699551569506504,41.29458092635458,46.63677130044845,40.10884264573609,140.3236392151242,111.73030674365889,81.71570624671176,62.06304996505014,60.308004114578125,21.648779858846865,78.8324166352213,46.7787220914322,9.305600251130045,28.92289775174354,28.75555074776923,28.67860636980413,59.76799000674055,60.21157302389281,57.39910313901347,399.9999999999999,398.2709114112022,378.5815845595615,353.5862354282091,{}
65,65,42,0,2.1688333333333274,36.035670445908735,160.36885554417435,12.612484656068078,30.63031987902267,39.68016598616316,45.04458805738614,45.93664669727215,124.64904572349042,94.12486768785786,75.81035283245228,61.0202150050402,56.63257097372548,13.642376640412522,65.62578837565866,31.745040425241086,3.1527111085938486,27.265932300552667,27.086745700336017,27.8949554308756,59.48018100729405,60.99115775979976,57.65707271345423,400.0,400.0121739042247,382.04609250749246,353.31500153751443,{}
66,66,42,0,2.202199999999994,14.412075171553305,158.53282688708782,14.524233090114826,30.67859955389491,39.67412899051718,41.47386087528683,51.240197202300266,110.6132637509944,79.99999999999987,72.3248146805854,62.09090181346642,57.83080563415479,9.294755300316185,50.230406768792136,18.299049497497663,1.026295897743239,27.261784023687,27.082624685168984,27.864901827406243,58.227769141772455,60.19322260631839,57.64830068621367,400.0,401.73659540705216,385.5608911849839,358.6135121765752,{}
67,67,42,0,2.235566666666661,16.210296808749078,156.6995358179068,14.521287894283958,28.87453633112375,39.66608394754878,41.465450886175496,49.161666206188414,108.60764447292004,79.76038730859571,71.39972748489458,62.617682639222494,57.5382062852716,11.239071242937143,48.28421775537299,18.32309190515275,1.021733749357736,25.47202399669559,27.01716134791498,26.973770983049803,57.7036298446917,57.15870517836743,61.34475721389551,400.0,399.8702141432415,383.64791915486416,356.6992958674628,{}
68,68,42,0,2.268933333333328,18.09613802883728,156.74818246114216,14.405064270292918,30.663675635602697,37.81329370951902,43.25268973143543,51.56228315676262,114.35083081067889,83.78266367762035,74.262675906803,62.00063134500124,60.62953833690153,10.477678838494056,52.641219853539496,19.23906040089173,0.4618930346434808,27.248522250229914,27.06945006560317,27.80596068554462,61.815874131144255,63.5662056308463,64.92274731611955,400.0000000000001,399.8054159119491,385.3354692303376,356.54352843830014,{}
69,69,42,0,2.3022999999999945,28.7266820243767,157.7297850852921,14.446930511361234,30.5153183091405,39.46297068276117,44.79802979013608,45.68520561408302,119.13244092860307,88.69557381552619,73.95007352706239,60.38567003696198,56.26139102670573,13.141275808623504,60.50239491461116,27.459527466872487,1.488242190021765,27.116688155741755,28.67073906568713,28.592731487379183,59.17951296792501,58.42080126320798,61.03063661828078,400.0000000000001,399.7952475212741,381.7170694246306,354.8003959378783,{}
70,70,42,0,2.335666666666661,35.73007249177415,160.67390957829295,14.385282311290018,32.16646912357005,39.29457358898812,44.60686683679278,44.14051766303012,125.92732612846774,93.87387684317024,75.50382661191816,60.21516131695148,57.71628539290873,15.67124513605063,66.56889234862592,31.884881945537245,2.2857934809071594,28.7705646225804,28.60409901344379,28.42713502738502,60.621955072028186,61.73579511569062,55.42750983517875,400.0,397.9932550137911,381.90147615491753,353.29089106279145,{}
71,71,42,0,2.369033333333328,39.46297068276096,164.94437465952825,16.22653652717767,32.30431868961999,39.462970682761295,46.58995098174167,40.86209012765769,128.24448344692337,96.04764449503467,75.87637609333933,57.59640785670308,54.066149440633126,15.886162872315026,72.08013930345578,37.35787159471283,2.5388844773108303,27.41112336844988,28.67073906568709,28.5805852588677,58.41852283030835,58.805400464946274,64.60863737923964,400.00000000000006,397.95176892121657,381.6960389922112,356.596819415613,{}
72,72,42,0,2.4023999999999948,46.61457665010834,170.28149447924824,16.223118341000816,32.29751365298077,41.24443368419301,48.37168033441807,36.93361987174416,131.56568164136598,99.32974981138742,75.80336309830159,56.45496913780289,51.71816522041877,17.78718205711607,77.31624026783334,42.82457419186085,4.543464981980833,27.4053491033856,26.93280765878584,26.71944087275472,63.26049966400376,64.86521282785225,62.72961832376424,400.00000000000006,399.71102901991657,383.4280260406904,358.31322204920923,{}
73,73,42,0,2.435766666666661,48.1782593509338,171.3316403983509,14.37627439571175,32.14632681200101,42.832910099587615,48.14524923445082,38.49307744424667,132.7225011862896,100.6339207699816,76.34080248208443,56.224132804394,53.12851640773101,16.7646975481789,77.89344758103562,43.57080078303329,5.47537150159792,27.27706281480573,26.747360685806065,27.589681135260093,61.148097635336285,62.918403262178,62.51231993042846,400.0,399.6819084983983,383.4451807980712,354.8527986983308,{}
74,74,42,0,2.4691333333333283,48.06319908603467,172.42833027872172,14.312561475228552,30.231499271922544,42.6430827687979,47.9318786245357,38.32248342838037,130.57478496506053,100.42357454939156,76.13651681759711,57.21547117692012,53.933641795704034,17.761337604206346,74.82282265180243,42.67821815543357,6.741705224462976,25.417780050843785,26.62882145807551,27.4480275519893,61.43084146716262,63.548150745366456,65.7803159876817,399.9999999999999,399.684722802696,381.7829727672812,355.0908937599714,{}
75,75,42,0,2.502499999999995,35.54944894279399,165.13686614879467,14.202038110973303,30.2314992719224,40.83085956904893,46.19075075912345,43.917377422943495,123.31313687045692,93.14591053403824,75.07483987814794,60.60604495587586,55.24013425622502,14.804164341000387,65.1574870671866,34.30350054419546,5.222180948767118,28.8990538134386,26.6288214580754,27.47633737722913,61.51633337813792,61.8996127138272,58.6908997884468,400.0,397.8511882157735,381.74582450857616,353.27569801046656,{}
76,76,42,0,2.535866666666662,18.004791516500806,159.45745526666465,14.332349728716656,30.45624317352226,37.665049686728274,41.24443368419284,49.55165081301399,111.78141730970884,81.5890330309951,72.22659279333811,63.28950050431422,55.613944768797865,10.527305032717097,52.17251171861676,21.15127953313595,0.8603582625451054,25.336254208781508,26.87315574134344,27.66680165623154,59.7900657735122,61.18210610841675,61.01778026547333,400.00000000000017,397.9203712623882,383.4573229913168,358.31322204920906,{}
77,77,42,0,2.5692333333333286,12.540806012626993,163.0403215137837,14.443887206458667,28.72063063150953,41.205505470059855,43.03435682803688,51.302004708014806,106.66833833527924,78.0504684603536,71.29175712666597,60.60839158207568,54.47597532560644,6.915895305008689,48.730462302983824,19.267781045562515,2.863083930465109,28.88777441291721,26.873155741343314,27.69259896257301,59.10914155091996,61.87549967292341,55.566743551938494,400.00000000000006,397.9203712623881,381.63665916530687,356.5217008395261,{}
78,78,42,0,2.602599999999996,17.922629227488432,161.3136197563361,14.4496856359199,28.67620676398122,37.63752137772544,43.051632764833975,49.57154308632156,110.04552725422724,81.62178655821998,72.21308647847286,60.5192440059493,54.51351750154231,8.662105535202727,52.29024374750679,22.81021124270024,3.002863252203724,28.89937127184003,28.67620676398122,28.642695636403573,62.74251775998482,63.66647568373969,57.46432078272119,400.00000000000006,399.77508231814727,385.33652839099904,358.4705067309507,{}
79,79,42,0,2.635966666666662,24.83314171059833,161.01493715153657,14.264456602995596,31.847185598612995,40.73207066725279,44.26757383907961,46.84438727520349,117.4279583533516,85.82415127964035,72.87547927313494,58.14553258374622,54.694844228866486,10.15611184781028,60.692924402514336,27.782342668856927,0.1194836687980114,28.52891320599108,26.59823221783337,27.35220146118513,63.527077026397365,66.81526759171197,61.95035349637037,400.0,394.5671115405709,376.8583629169222,350.3592503701378,{}
80,80,42,0,2.669333333333329,33.92012219534618,164.25450447459406,12.623762327897596,30.40204560231518,41.09999243672961,44.63173973071855,45.5156223625058,122.03985913048793,91.67667889880858,74.39697434861614,56.88641404137388,53.346686345004855,10.218914153413834,66.62307646503768,33.415222354415164,0.091627828652463,25.2475246557953,25.057452758138147,25.814935093546524,57.13718494084424,60.281466218817854,55.37214444997079,400.00000000000017,396.33386966583856,382.05186326281046,353.5239506477602,{}
81,81,42,0,2.702699999999996,41.10367712105778,164.269230170697,14.394593962743398,30.35230390870101,39.32000912548606,44.67143536301936,39.92342047858115,125.43834521687984,95.2322128820789,74.29028837050487,50.3952433481586,48.62952833136501,10.087732513976562,75.67005474974803,44.002969038728224,0.2363935404998756,27.0184531800211,26.84089296623217,27.629098090647403,60.005364423166384,60.98953344892016,58.94622393255497,400.00000000000006,399.936239738178,382.09862921528384,351.8021366981731,{}
82,82,42,0,2.7360666666666624,46.46104751112488,173.21658596004607,12.499501783614487,26.78464667917368,42.85543468667813,46.56387548089951,39.92819381863126,125.3134769964468,98.6153640964271,75.07949254780647,49.32912796141386,45.671186365370886,8.141091652406885,77.58407261158777,47.46155091963488,0.5549647540171918,28.79263002994776,28.62603675103736,29.44208664572352,59.49222163063109,59.98445123854174,62.523012901553095,400.0000000000001,396.4288574002569,376.8764663187215,350.2091842003665,{}
83,83,42,0,2.769433333333329,50.25573049530888,177.58574878102868,12.555927568778284,28.699263014350265,43.08624714852832,48.56269153423101,40.46780539735104,131.3819262185603,102.80599687843365,77.07481702427845,47.83786995380706,47.0040521962012,8.008528695144832,83.45934020315553,52.84077649944197,1.076206640630744,28.922606950988023,28.755261629578047,28.713387083137263,57.99881193021338,58.66780524736237,57.42654581363976,400.0,398.2386315279606,382.21048943542365,353.65091891756305,{}
84,84,42,0,2.802799999999996,48.21236402251299,176.92290363378973,12.49950178361458,28.57028979111869,44.78370141374727,50.28416658677378,38.54673704255816,127.09464592780972,98.615364096427,73.95056733407455,46.478277132864605,42.1875315982943,6.983260349888496,82.28728432909588,51.56093878958745,0.5327435730841898,27.02168357118253,28.792630029947688,28.62416819706789,57.21953944423933,59.12013813740464,67.94835447636855,400.00000000000006,396.6700773427048,380.8488348334829,352.5367840908327,{}
85,85,42,0,2.8361666666666627,48.66966129490077,183.9578086671181,10.808069885866011,28.82151969564337,45.06963702481978,50.56616326664473,36.74037283487152,124.61870703069611,95.89518841192684,70.96239555026364,44.42290500540457,39.368686083691045,6.0321425061827085,82.17462833061609,51.01662739177755,1.6363275819339833,25.28308163332244,27.08015297873262,27.97248748051743,60.10841200382527,62.78075764059338,61.35159931878387,400.00000000000006,400.3040885133915,384.1977898883007,359.231729611168,{}
86,86,42,0,2.869533333333329,46.66374692319783,188.52389882501305,10.760600899193566,28.69493573118322,46.663746923197856,50.34407694082214,36.26994756532745,122.16428682793692,93.534047017933,69.74758791656359,41.75014517321711,37.90153202422766,4.116554570754715,81.88777015362962,52.52139032817445,3.639131673791553,28.918245991957804,28.750925902923523,28.75742204871653,56.85229803634127,58.372256647081485,61.08214341396864,400.0,398.4692793801167,386.1883235525987,359.4436236250127,{}
87,87,42,0,2.9028999999999963,46.81645887845244,189.3748969231772,10.80379820271962,27.00949550679916,48.75028967393458,54.28841408651139,38.493137704273614,122.65470254241036,95.70495852189288,71.75565746352322,43.134671112781234,38.43223724988047,3.222038017172736,81.36371677599323,53.49744203287764,2.989819060980153,27.24852225022985,28.86634347899729,28.88223267645856,59.564162263410026,59.91249069769901,61.32735127120512,400.00000000000006,400.3240966339513,386.2809038698345,363.2194180202592,{}
88,88,42,0,2.936266666666663,50.21613752957086,192.19884500095336,12.5540343823926,28.69493573118368,50.34407694082218,54.07135032270947,34.822179416494265,125.74514060578446,97.11073847514837,71.46710077788953,41.09164511917447,36.557127336629264,4.999596529472683,86.41744466350292,56.865565952472025,2.9842552927859742,26.96121708782761,28.91824599195783,28.767058325590256,62.872833100288176,63.06661591150805,71.75975374479286,400.0,398.4006623331747,384.39769000190665,357.9057028181582,{}
89,89,42,0,2.96963333333333,46.45132874002972,194.7990103904908,12.49688712460108,26.77904383843125,50.1149055162762,55.60190537237223,36.1048430275776,121.60818240926012,94.88838024271224,71.17220022077822,37.29849231141475,34.65075983251813,0.4604752137211108,85.13035513670138,57.5018423134311,7.48272222296896,27.01603114681213,26.838486850171734,27.74363162670045,66.1933119724182,64.69676752782448,64.36881044490785,400.0,398.5152020283346,384.4303545197049,361.6173615756087,{}
90,90,42,0,3.002999999999997,46.24908970149416,192.17528513937503,12.442478380969373,26.66245367350621,49.89671605683926,55.21696239524994,34.19083576242752,119.30434272980348,92.702897129027,69.03937228019709,36.57525359058786,34.913610215976405,2.196425150348432,82.99622165947767,55.4167615107524,5.844400834840826,28.495443224348023,26.89840919040354,26.7772874851197,61.11791722709222,60.334843912620045,64.08856256633986,400.0,400.1895248166677,384.3505702787502,361.5710100494086,{}
91,91,42,0,3.036366666666664,44.86763281043633,195.76248085021408,10.759627612743556,26.958778470549955,50.24360802255204,55.85111626606734,36.266666981943445,118.4781091457236,91.73770088878764,68.8026895999933,37.4656662695761,33.01372753075316,0.4336303966388186,82.88122314419365,55.12887775932245,6.62009072201613,27.13711853079832,27.13711853079847,27.000719364031056,64.6398377922626,63.13658575058207,68.16789980492247,400.0,400.3013697681539,388.0474942844972,363.2381511016229,{}
92,92,42,0,3.06973333333333,46.46243640503287,193.25988508619764,12.499875440318323,28.571143863584844,50.12688923336732,55.615201167243086,34.34855783108269,121.63726194236408,93.1305348974373,69.4502313262833,41.57181739068983,34.23112219587006,4.128544436618313,83.29159417737424,54.06245414286423,3.679893364893587,27.02249135003608,27.02249135003622,26.87133546608311,63.74663525488586,61.58929180361224,67.85646667601449,400.0,401.9761060609852,386.3052157455536,361.8404524977193,{}
93,93,42,0,3.103099999999997,48.212364022512986,184.1378172763416,12.499501783614496,28.57028979111875,46.563875480899554,51.90665196422058,34.670917767779095,123.41623216214327,94.908233247399,70.31679413617917,45.28376724116379,41.27466474510811,9.555027615599784,79.69523033230962,50.46696403963597,1.794550641091746,28.79263002994775,28.792630029947777,29.54803994414476,63.6970022766202,61.587450725124086,67.85443825390699,400.00000000000006,398.3425205157702,382.5446047864947,357.88226141160004,{}
94,94,42,0,3.136466666666664,51.81184681479372,176.99516668707886,10.713324940199042,26.783312350496928,46.45873296470612,51.90406613454463,34.3458199670342,123.41008394522844,96.68408913343096,70.42006934887468,51.8985218249029,45.80741495877192,15.017728997530185,74.2198507481221,45.28231953927752,7.504090904042641,28.79119566971926,28.624610689973245,28.608153172980337,62.476807730346536,62.66775151925344,67.874548022097,400.00000000000006,396.5900282321471,378.9583684962015,354.1884203115534,{}
95,95,42,0,3.1698333333333304,51.8118468147936,169.7122026919471,9.104575487589056,28.568866507197026,44.63885391749483,46.45873296470613,38.17078812985302,126.97537493699556,98.46485306458628,72.28049039709003,56.60221229510557,52.15271315044993,16.919554687403206,72.35687664850047,41.87876233575139,9.653312521988935,27.020337434057204,26.842764837303847,27.690016136269605,64.87102401028108,65.5298554286959,66.08962850338808,400.00000000000006,396.5377710203288,380.5911931085562,352.20706364577165,{}
96,96,42,0,3.203199999999997,53.33333333333327,167.14893189039154,10.81380005386357,30.274464650535982,44.47998578914406,48.03291052837798,35.95333051761169,130.08183559058995,99.80920069417368,72.76544364413553,55.31314390140096,54.43862779228789,19.410455378357256,74.74261049952179,42.40452568210208,10.180508183261736,26.90265946741613,28.66580532728368,28.497818425227702,62.20471106560717,60.61727421536932,64.02468659686787,400.0,398.2857092249728,380.64792066445455,354.22417398040284,{}
97,97,42,0,3.236566666666664,60.465208137490144,165.35686295953747,8.888098870766308,28.441916386452096,42.66287457967826,48.02864150552553,39.74878653154514,137.16499368985112,108.79846277513172,78.07689251312763,60.64040102669105,59.73744834682657,21.200378446713785,76.52761580978108,44.19240510558007,13.748642646568667,28.663257595391684,28.66325759539163,29.38398115580173,60.42179143051328,64.16666886068833,64.01899627231364,400.0000000000001,396.50883948017423,378.8999780263163,349.0658681250915,{}
98,98,42,0,3.2699333333333307,65.2214130390057,167.40853068447376,8.810487197069246,29.95565647003485,44.05243598534544,49.46443227369674,37.66934078792534,141.24285452715012,111.36121236606162,78.32404972572135,57.090576515866815,57.11884384208384,20.178159697760066,83.76079880141947,50.0378786247752,12.885189533825269,28.24857090542996,28.24857090543006,28.2202140064403,61.076269512436056,62.35772163426429,61.69857806483223,400.00000000000006,396.56980608756623,375.52938246805246,347.4952653506266,{}
99,99,42,0,3.303299999999997,61.6991767401292,169.30977479421043,10.572687224669574,31.766971589990952,44.05286343612334,51.13169384509938,37.38009415964124,141.24422503860262,109.47823483354424,78.30571169192945,60.091702874591874,55.74320784436577,21.00210638520912,82.8931865136874,49.05177368147452,11.855272011284796,26.66563163069869,28.41324316580979,28.232416548613173,66.93308514197338,65.32114301870001,63.43612334801768,400.00000000000006,398.2534790912184,378.95706022214216,349.11664975136046,{}
100,100,42,0,3.336666666666664,56.91609775676927,172.58929843562157,10.666561318432835,30.221923735560416,44.47954648715074,49.90410746944715,37.50189291894834,135.2149978462271,105.02335731689398,76.41896795383582,59.92291034132995,53.72920570608108,19.51253361043609,78.25343925038237,47.9090145564694,12.2881208755814,26.90239376607375,26.725596273015675,28.45794519050537,61.02926674182447,61.69118937459916,58.69301683152492,400.0000000000001,398.2540015531437,380.5445139906145,353.9930860424083,{}
101,101,42,0,3.370033333333331,46.051723296487474,166.45638965736606,10.61946902654872,30.088495575221145,42.51473327244013,46.051723296487374,39.29841294013194,125.86298546945868,95.83707165083828,72.49636850761726,57.38707472048259,53.84745200150246,16.737896793474192,69.96403204111289,37.88149420525247,7.662906630983343,28.37383989713512,28.53896548070286,28.34522342246919,59.55226946879452,60.87021409820204,61.97218194694375,400.0,398.2654851525489,378.9099037628223,354.2653735418566,{}
102,102,42,0,3.4033999999999978,37.00117413468489,162.18654188442142,10.57176403848104,26.488077005452304,42.287056153925406,45.844848837430334,42.8703534482859,116.62263166496304,90.1359565716181,71.32069849833829,57.6350766516066,53.216104778204,13.1768276438238,60.81504041977996,30.749071873879075,4.254084863200887,26.66330324035687,26.663303240356782,27.32884417655453,56.9566843810627,55.85429694142931,56.41026545601744,400.00000000000006,396.44115144305033,380.5998194863448,352.43177650145844,{}
103,103,42,0,3.4367666666666645,28.24199484320736,163.87479430847273,12.331810651458907,28.18699577476332,40.51880642622245,45.83773421487162,44.35815117329688,112.96797937282898,84.85409387845829,70.46748943690864,58.1356787854495,54.61230431360423,12.331810651458907,56.37399154952686,26.42530853884068,1.7616872359226363,21.43185021755064,21.21352346961452,21.140246831072545,65.1824277291405,63.42074049321775,58.16236489141573,400.0,398.1763916166139,378.7668526482869,352.34185137510696,{}
104,104,42,0,3.470133333333332,19.29156686470424,159.63241127096174,14.03023044705742,31.56801850587931,42.12721255528087,45.63196300482775,47.64342760309785,112.36508848544632,80.8452083454444,71.02804163822861,59.628479399994376,56.120921788230135,10.52267283529318,54.36714298234779,21.04534567058613,0.0,12.40108886340551,12.276451641175411,12.276451641175411,71.90493104116968,68.39737342940532,64.91351120488962,400.0,398.14255395752224,380.57000087643473,352.5269900857899,{}
105,105,42,0,3.503499999999998,10.567663912652948,158.51495868979316,14.090218550203929,29.941714419183235,40.509378331835954,44.03193296938716,51.56062266054803,105.91121575063116,76.06189837971074,70.52425346612449,57.36385490493785,55.62203744831004,5.341573533658448,49.25472696797101,16.024720600974433,5.012563569628355,10.71343168011152,8.980787417284454,9.6961171752273,67.52445673526563,66.26647746103458,56.38838744346007,400.0,398.1110152611887,380.45220862930114,354.0167410738714,{}
106,106,42,0,3.536866666666665,10.47545644135814,155.3957453837403,14.075971643550508,29.68045991718166,38.410006951646366,43.68263940435071,50.9015688217553,104.98709425444824,75.39822518103179,69.90889863171515,56.86333028112085,56.9016995997988,6.196644966532404,47.942463688435055,14.983218943844577,4.086332439230318,10.619952321543952,10.619952321544064,10.484416328823386,65.2086570936334,63.923284917913065,55.86910102057667,400.0,394.6720799300596,377.13259737025896,349.1862461248419,{}
107,107,42,0,3.570233333333332,8.806386593877143,156.7932556411183,14.09021855020393,29.9934719589706,40.50937833183604,42.27065565061156,51.56062266054815,104.28784619732572,74.30837148442032,69.6760595644107,57.84644285814534,58.81310247572856,7.14466737154271,45.71534320184196,12.571360472232756,3.1057529297600013,16.23817454207226,15.851495868979448,15.849389373442932,63.46455370489116,59.72233676949497,54.627997194432105,400.00000000000006,398.146077906636,380.45220862930097,354.0167410738715,{}
108,108,42,0,3.6035999999999984,3.507119417758826,157.8593369829975,14.137650350016576,31.612747224761296,40.33187330422536,42.08543301310477,49.38068975334212,98.5899862759126,67.00342239619852,65.10052725173318,57.769258796496615,55.30655879861365,7.274436916824015,41.92273150242568,9.358259991955949,4.3286688424329895,19.605393558294864,17.535597088793672,18.3660588303668,67.9326322492991,63.42399686855913,59.7240915964562,400.0,399.87313730164976,382.28003844048186,355.9898969336251,{}
109,109,42,0,3.636966666666665,0.0,162.34361285590347,17.835650368880945,33.934639163737465,41.02199584842595,46.37269095909024,50.22564746184968,101.913224589566,67.98635496845198,67.89327015987988,57.676733883216,56.95035041756205,7.249684329285628,44.5027792106755,9.362799865732995,6.495000209125465,19.94086332386841,19.700119730061704,20.52740806834765,80.87383702662908,72.41194132933686,78.49712679103718,400.00000000000006,403.4800994196264,385.5141892727478,358.6562590916509,{}
110,110,42,0,3.670333333333332,5.276318414172358,163.71709321842314,17.67544793328677,33.4629347766539,40.45177450865391,44.00448151525902,47.77909535177636,104.13955020020674,70.70179173314799,67.9736334313668,58.96337272641699,58.085013978450206,10.837813583784056,45.54715120505261,9.591110844734205,4.122619284811663,21.39639463176623,21.178429070692896,21.16561241068393,77.29556982107897,77.29556982107897,80.92266385490879,400.0,399.8955881126682,383.8156477083882,357.3080167722044,{}
111,111,42,0,3.703699999999999,15.854262568237653,162.4100873171797,15.951828181838527,31.903656363677285,40.55472602481773,44.180320259315295,48.371461557933074,111.87103291829555,79.97284255880626,71.93834178630527,63.38815676966578,61.69805912062452,14.451284392365324,49.18374057322785,15.381787592399633,1.861006400067936,23.17002959705309,21.13901675765016,21.95702704161954,66.33158525956947,58.916044451134894,60.3069469551173,400.0,399.67403320222905,385.05840690230906,360.20854230403467,{}
112,112,42,0,3.7370666666666654,30.23656205228165,169.2744698820415,17.844077367564335,32.15661548256956,39.223227027636746,44.530619132829166,44.95338765644569,125.09769196383476,92.94128914668208,77.79070973063199,63.25186465099023,62.86938927895108,18.224951477669947,61.9896959232608,27.987635348971708,0.296418413330457,21.60052308927112,19.61161351381832,19.611424701312217,81.18995959963081,80.24333305383368,85.30044816115748,400.00000000000006,403.3474372141069,386.9277901031384,363.32498418935023,{}
113,113,42,0,3.770433333333332,33.71316816922236,167.50079078517143,19.810721293758423,30.5881642597044,39.143097777394495,42.67359964603864,43.11279062941242,127.04836592473126,96.48451775494858,79.65112742706265,67.7017657688591,66.21232692194417,23.89872331640754,60.05146623697806,26.471390415623773,6.5670712795795225,23.30603172141676,19.571548888697304,20.445933262195467,75.82597766112224,77.72162710265025,87.11312769765797,399.99999999999983,403.0963361293947,384.8994241603841,364.6421440941892,{}
114,114,42,0,3.803799999999999,40.88199578809534,167.8056784286093,17.79627759744502,32.31399112672362,39.31804761431911,44.58749909944676,43.80706888921441,134.49890670175958,102.18581225091718,81.74721361052184,73.55475550576693,72.07829143539607,29.27042082365824,61.64716865251353,26.72016470210815,12.367783446616158,23.625362765491563,23.2911823846297,23.28786510994644,65.2903916832995,60.47750231105044,66.68169028823607,400.0,402.1929110235646,387.225713327801,363.3369218305664,{}
115,115,42,0,3.8371666666666657,39.69171570435022,171.32457949551534,18.323423977680125,32.787784936225854,41.94577395909596,47.26536415404861,44.91898866251131,135.3187795206514,102.54130501842796,82.73707707528138,76.88775813786606,76.27204035498039,31.94035998720188,58.724083542734434,24.01299353254649,15.546874017866912,23.971762273421064,23.632682077024366,23.62816991824297,59.185871879898855,55.95335351974825,64.50842220032456,400.0,403.8074676560696,390.0458330782383,369.2810793510485,{}
116,116,42,0,3.870533333333333,39.82869300296948,169.58708318533047,20.05522791987288,31.32726747228436,40.46983992667005,47.18735589178857,42.22089913515342,133.33333333333348,102.04150418910176,82.14736516120956,79.97266144625178,78.24068264865696,36.89698651955064,54.22650471346424,21.72757671364912,17.066802308884917,22.188007849009225,21.82244728784953,22.695733401068537,61.94256755892923,59.12080434936445,78.80454211030407,400.00000000000006,403.71527482521583,391.6884079842301,369.36481562082,{}
117,117,42,0,3.9038999999999993,36.59957363758483,168.99451715437348,20.233423823589607,31.24082572637897,38.68766086582375,44.032690788367546,45.24331108710975,133.0984086135251,101.87684612988848,83.57731155018621,83.20663719923994,79.30480192612197,36.18952215816898,51.83588160337149,18.787336840062608,16.27065308890201,22.38515405577996,23.80331389619942,23.78168598965385,59.50298791504849,55.15244158552196,73.33325269558131,400.0,404.3486619987209,393.6490474970529,373.15612225551246,{}
118,118,42,0,3.937266666666666,30.93925504128281,167.67958278046072,23.573538225667512,30.939255041282586,38.31420516736458,43.93786563933615,44.33813603623011,129.70090529510816,98.76978682268287,83.29603511560015,82.99141735207297,81.77294629796404,38.111066859067705,47.31729260122256,14.486266976625984,16.51705206680731,22.169068018115105,23.91176982990412,23.895571227799223,65.8651297582112,62.14202375954562,80.4923616068804,400.00000000000017,400.4454456085784,388.64013739486353,368.3220224565192,{}
119,119,42,0,3.970633333333333,28.94823104400228,164.10982103106846,23.613393684664416,29.60873194469472,38.37898247056072,41.91153888821739,44.41309791704232,126.39934273532631,96.82939466279171,82.38769996575354,84.92892590230679,81.92565888638035,39.0713487745054,42.96982038171814,11.926435361323913,15.420621024084085,22.2065489585211,22.206548958521104,23.05873761747432,71.84738784254989,71.84738784254989,85.59237437168203,400.0000000000001,404.3516562041327,392.8411396387956,368.9447394675664,{}
120,120,42,0,4.004,23.971762273420985,165.4287745391706,18.323423977679905,27.89320908704597,37.04114697029129,41.9457739590961,48.37923138348605,118.53167030493218,90.64291306499712,78.56745744044849,83.92084045293643,77.05702097531514,32.224295339741275,37.88967014666696,8.235592923004333,13.841540721465664,22.22468818217473,22.22468818217473,23.07748828695173,51.45388482863268,51.46378933004337,74.53845663632727,400.00000000000006,402.3176936749535,389.0513451119159,368.9705992095462,{}
121,121,42,0,4.037366666666666,19.72382751185905,160.68323292164416,18.41829558177725,29.095152738169567,38.08282418312862,39.44765502371799,48.79405450371485,115.9653712171559,86.87444855261394,76.96159563732272,83.49644212110547,77.63082690373403,31.78848515454638,35.311790939477305,6.475796666158431,13.67987441635296,23.9950717886402,21.82136455362724,22.655446695283445,54.680131120327815,52.25908859772153,69.79002603455547,400.0,402.5555400782544,387.7686430351213,364.28793457963377,{}
122,122,42,0,4.070733333333333,18.004562310893768,155.57386045804623,18.004562310893768,27.407815355375465,36.009124621787656,39.47761439720634,48.83111220212569,112.21646434920144,84.83554711185407,75.80165465213099,82.1284383605896,78.65569272881726,31.594001925835528,31.733710083435653,4.450702734972538,13.312191588459882,23.55460901191178,23.22142944177,23.37117893566233,51.89160139429725,50.41468658538258,71.08163453944478,399.99999999999983,401.233196049885,388.039045240534,366.5768068047272,{}
123,123,42,0,4.1041,16.34837401117538,155.9837886477943,18.083470063980496,25.81862040228428,36.166940127961006,37.61589147346136,52.90053999504843,113.11206911216247,87.32145697246497,79.02259319033601,83.19218973466036,79.84652544160986,28.737758218665704,31.33439319237641,3.4205672249843246,11.909566177500892,23.65784069507482,21.57227557763268,22.59571780008025,53.73036984063299,51.18367015487797,69.67688872110476,400.00000000000006,401.23617571692137,388.2118754668806,370.1678948986229,{}
124,124,42,0,4.137466666666667,21.12365804139657,154.78658348250977,19.740874383900103,28.4706939254582,35.34112758838011,38.10039897911105,50.11616677966059,119.36293210155397,90.89381153053044,80.30144818847214,87.05761606096007,82.19499299578376,34.62157325688611,34.68216669072001,4.95351321592716,14.762075317801646,24.09680810702884,22.50805984249192,22.60513790968628,56.306448390218975,53.19346072699864,70.10095399757445,400.0,406.472705008222,397.3877730390031,377.27543167517575,{}
125,125,42,0,4.170833333333333,22.872825410662365,157.0283608191479,19.870640943915006,30.036890966405977,35.57344235139446,38.35085180174519,51.52974818961768,124.29081939466812,94.25472592525452,82.78586251666184,89.59535075211943,84.19003636565867,35.406319095672416,37.33894546848535,5.903569623201747,16.684001109048154,24.53843142034641,24.255208380217464,24.94295912411553,57.22385900750476,54.20413029998474,70.26737404999952,400.0,406.5913827573618,397.8745430588807,379.23262702880805,{}
126,126,42,0,4.2042,25.33377530515216,153.39299776947402,21.168044197443464,31.278649579711463,35.41538824914901,39.56470992246274,51.30079963837546,129.01068513518936,97.73764714936986,85.04669923130939,90.36680112155,86.58278498835068,37.25944598481817,40.481479523977896,7.699161538341059,16.953141586857896,25.793035208766494,23.94400544697579,24.633570372064355,56.01093187260244,53.23848440867425,69.95517354342715,400.0000000000001,404.7848824094986,396.10677194782687,378.7739856109637,{}
127,127,42,0,4.237566666666667,21.356931220134182,154.35581916305702,21.356931220134072,34.13493190995044,38.3397510671166,41.14627939110182,53.14460986848015,129.93980163061215,95.82339870602723,85.09053376162638,89.14174343749664,81.94715818679151,32.489112890802744,44.3590437618401,8.3861175083141,12.09310675420852,24.64739513400097,21.356931220134182,22.05658601307141,61.649500744476086,57.36754990125928,70.5793986408987,400.00000000000006,408.0455643940828,399.1401189525433,380.2886335275357,{}
128,128,42,0,4.270933333333334,18.30481223415276,156.34596636577157,19.85435649119652,32.56356581853269,39.534605666546,42.32751373259961,52.623409130810096,123.2969925234215,90.73462638941513,81.5876862412506,85.78842523536537,78.46046943452075,29.52963929936948,41.16724214232431,8.323686525375479,10.789675897846564,11.995055112963184,11.995055112963197,10.89080479955669,60.599549563247706,58.11800189820588,54.8246338023004,400.0,405.1188882987429,396.3170267484157,377.6322613497703,{}
129,129,42,0,4.3043000000000005,18.00688308807489,149.9095374734088,19.5889063686326,30.755206842947185,37.62906034613819,41.64658620211412,51.91984110483536,120.09293744198952,89.33915858433134,80.3809715064441,84.23112558875835,77.4433279550733,28.98421607496857,39.23795283057041,7.868402209802298,10.005597927012218,10.084006741893251,11.16739482304144,10.169689733015048,62.47495345626328,64.49208199834891,58.97855047301706,400.00000000000006,400.9390246600215,389.7749376967785,372.70436204087713,{}
130,130,42,0,4.337666666666667,19.42095141221412,149.5980966390117,19.42095141221401,30.56661167687194,37.46186340345454,41.60270831401644,51.86513955097957,121.1732503432122,90.61819592543269,80.8257402103576,81.54296520881132,76.52239021963555,27.337306671830905,42.068004716995006,10.289420170124004,9.351510556761582,8.751195465897931,10.073382463657218,9.185997095579864,64.10888063101402,64.38473639964991,54.59862365074344,400.0,402.5288321166353,391.2797383846756,371.7584673889256,{}
131,131,42,0,4.371033333333334,21.91870797819171,152.0672072809269,20.594402079197582,32.90658957522905,38.455465843693176,42.48958643444576,46.89848070465958,122.19956135818995,89.30780860647612,78.35850452683451,83.31606637494474,75.35646784531309,32.51060589454141,42.86113949113553,8.402647200186948,13.092852091927623,12.630031415709826,13.767518059781048,13.073755166472663,65.21981981381487,63.4781802123216,53.86413782914671,400.0,400.8623426803587,389.5993503584008,367.4474826549658,{}
132,132,42,0,4.404400000000001,32.87267676852218,160.1212186980523,19.15910416029453,32.87267676852206,41.05522320063126,45.160745520694405,45.3469761892176,130.1881490428611,97.31810410159136,80.87408672973254,80.38846865699043,74.76277006045575,32.278659742799846,52.60737937250917,19.26409539331325,15.341795575012044,19.594044649983804,19.15910416029453,19.140823113309352,64.17629607467904,61.66602419096637,49.56944773518818,400.0,402.62270350472505,390.2190440567032,370.9892167681535,{}
133,133,42,0,4.437766666666668,48.101205314927846,164.85686966568147,17.85887412475142,32.998836732871986,41.21278644173407,48.16002074995895,42.78549797540725,141.66385373971593,108.6660301396945,84.59731028454848,82.60417993753026,75.91612032864714,36.56286892141077,62.3849798616684,28.723222889806152,20.70640971624414,22.15120712125644,22.02304091267028,22.633102385028337,65.37467538219562,65.02034109828139,64.69809522900795,400.0,404.0348043097496,390.20817173259206,366.8169518515336,{}
134,134,42,0,4.471133333333334,51.88421554563861,163.79387464189355,16.43559127071492,31.42239373018492,42.333957293791066,47.79104934756259,41.15127285247743,140.82318554570034,109.40518310818524,83.3476382507182,79.271914027722,75.25151637788872,36.253659174505856,63.43744878851646,31.01607691509014,20.208952957281213,23.24343608066589,23.243436080665926,23.860506786028964,65.16732630940794,67.10006793189655,64.20842814508316,400.0,402.6829738866904,387.6320441068351,364.4312735094494,{}
135,135,42,0,4.504500000000001,53.88858080045346,168.4353868326588,16.161524552603737,32.323049105207474,44.44419251966042,49.90411393096775,40.60532790033992,142.86174219684085,110.56840087971928,83.50121018845289,78.11403533758494,72.72686048671699,35.01663653064145,67.33968563584904,35.01663653064156,20.201905690754643,25.730457753100783,25.6244979710874,26.262477397981115,63.29930449769813,65.9928919231321,59.25892335954711,400.0,400.0544118983201,386.6447486513632,362.49022206515673,{}
136,136,42,0,4.537866666666668,49.98973106797469,166.3193265294775,14.861811939127678,32.453906668500544,43.23436200473489,48.71365908438862,41.97036372930656,139.1671611589358,106.7690301206689,81.68644662738086,75.5786458151648,71.47564079895835,31.69230056738786,65.59418789919494,31.45517418291353,17.81681425163538,27.055232014094155,28.500933300758422,28.412052248826967,66.5894001491854,67.27922235856511,63.55793569417395,400.0,401.4531174188691,388.04288795368274,363.9307355104363,{}
137,137,42,0,4.571233333333335,30.7843568667865,160.60167152139172,13.371870134244578,29.448489227844306,37.441236375885225,42.8734771615208,41.47435934085017,115.00585723483483,85.62174575638682,70.1230675419149,67.17297589692839,64.801404050776,24.585294805112994,48.93343242561093,18.98694793192305,12.051896927265377,28.112747039750747,26.77714907635407,27.43836760184785,67.10829666476059,68.07848514727743,60.188271403760766,399.9999999999999,400.1407856665687,385.5646064040886,361.5972256339864,{}
138,138,42,0,4.604600000000001,28.19304657531876,166.47935105304512,13.410064728317709,29.50214240229866,40.23019418495289,44.43570185643515,41.65762736367136,112.65252561645856,83.15321518064927,68.93825354684077,64.98254502731322,63.16234581724064,22.63066576932681,48.44309708696903,16.86909031697121,9.767446942239644,28.193046575318768,28.28856253468221,28.241752310613265,67.0965559209011,69.99167592432366,59.14127417078232,400.00000000000017,401.5346013463359,389.559495221141,365.551575770108,{}
139,139,42,0,4.637966666666668,30.42091193225958,165.59007926033013,13.226483448808484,29.128308266097147,39.70148836553435,43.82738540398252,41.02342618231484,113.747757659753,84.6598266319578,69.29396705040426,61.772204944379496,60.515026575383786,20.25335660559949,52.47121582460648,22.38416740050718,8.66174588130059,30.449651581496127,29.218256935988347,29.884621398582908,66.20429139778776,69.05957786296437,60.97107608496925,400.00000000000006,398.7516053545074,383.0705640924799,357.9077623132474,{}
140,140,42,0,4.671333333333335,39.577489094748834,171.81753077244394,14.503690632482208,30.35454848216099,42.27488158124576,47.63115340706694,38.237002576544114,122.6504636447087,92.30563061626604,72.44926515721454,59.70074277830452,57.05335390006326,20.195188421449075,64.20979816718068,31.3368731657049,8.529688765455944,29.03733210543136,29.126999839520508,29.8008213299338,63.94789071131174,67.03415154263041,62.09642721875197,400.0000000000001,397.5061883607341,383.02644767880486,358.10552025837933,{}
141,141,42,0,4.704700000000002,42.1698798165672,179.61399619997567,13.243813972316088,31.654852305646777,43.56748255189916,50.232546173160365,39.53426232803167,126.53709082019915,94.89138059560013,73.74826496875698,55.12751033531333,53.75597034728071,14.974977420356822,72.0058493717155,39.04690374093025,4.380530778104458,27.70534226135942,29.2601025977176,29.830994739710604,64.5813395385386,66.35174574758082,62.06305590435485,400.0,398.7650936384551,384.3869880219987,360.7259229293014,{}
142,142,42,0,4.738066666666668,46.36821037889565,188.04412991513203,13.2264834488085,30.449651581496063,46.462435654651244,51.73567362710727,38.35680200154468,128.35823476203922,97.91171824814415,74.67929761261871,47.17585272867109,48.90359722342362,9.74841202730306,80.26988548994825,47.11264256422896,0.4354477994903618,27.90129740130624,30.67859955389472,30.600742941613817,64.74125509198905,66.67267678327744,65.02535292537978,400.0,401.3927208296257,388.18771286000566,365.6638308265136,{}
143,143,42,0,4.771433333333335,47.203785968082144,187.5079761700344,13.157271706368702,30.13998911683576,47.203785968082144,51.20953965268863,36.65752907469641,127.1000834794128,96.96019322904156,73.3315302863167,44.79966476687048,46.40115795703139,9.01893533406428,81.46542991002877,47.1176154368402,1.727926863068319,28.832083407664083,29.068901212228862,28.995455653440104,64.73404052861065,64.0597276064376,61.75472100687551,400.0,400.1627966822608,387.0998266645238,367.4182862446029,{}
144,144,42,0,4.804800000000002,48.34351936673247,189.5422194803051,11.81435240424019,28.73252969193185,48.34351936673252,53.55536055275368,37.83563200200207,126.66122218030524,97.92902174968364,73.73004200269429,41.99120669703461,42.38807268637834,4.43167021433635,84.43846115375379,51.435920987289705,3.749339215114105,28.73252969193173,29.173463837290804,29.587403889744564,59.18177034070561,61.270538705671584,62.84156430351568,400.0,398.7810826817742,387.1550580993143,366.1496350997489,{}
145,145,42,0,4.838166666666669,51.14442691072562,188.9611249717012,13.162066527831776,28.842590501796764,48.52870065603364,53.840210232732446,36.670887946589865,129.76357151380637,100.92145225204632,75.33125733901204,44.12857253001118,43.319191281224334,7.114945422027972,86.01924049606907,53.11823862230631,2.251740140855759,28.93165687077908,29.07949460837917,29.64618240748757,60.15017058292017,62.0525624069918,64.38752328244433,400.00000000000006,400.0707477019229,387.0725409535094,367.3070998953273,{}
146,146,42,0,4.871533333333336,48.37853038699795,185.6922914039849,13.121336999844644,30.05767177265372,45.86432251705033,52.37154968181517,37.88553710388835,129.3158940002264,99.26161160372196,75.0213401301703,46.56855573924349,46.97066623989497,9.047486264658689,82.49504909055509,49.68837858912593,0.2218540693249906,28.84212892881478,28.98950918800464,29.55512179788525,63.755313172261936,64.51100359589998,62.88707500091967,400.00000000000006,398.7622147965593,385.6560250691993,363.3595047054861,{}
147,147,42,0,4.904900000000002,40.64543821980973,177.3969978764719,13.16997532094816,30.254353622670784,46.0343329089644,51.17515845965357,41.93476876317174,125.91346405954366,95.69958756166383,75.36015141083351,54.62637843730852,49.90711128766088,10.378943008677766,73.6446805783338,40.98872979099088,1.3468857339505576,30.16908989195973,30.395928348268207,30.947369395937585,66.7931314099767,69.77625940384155,65.64091177285535,400.00000000000006,397.4351324405816,384.3429724105133,360.71985853913327,{}
148,148,42,0,4.938266666666669,29.13324598294904,172.2987546177853,11.979120474680345,29.133245982949266,43.73489492414952,47.78848496209162,47.62341198192154,117.80252522558112,88.67194112870276,74.10423772757758,57.66426591114623,53.28935942155101,7.884371975797308,62.325381236509656,29.786162408132896,0.9063279799316888,30.540884528036667,30.54088452803673,31.186541354568817,67.41580981552488,70.31197065365257,74.09267350364333,400.0,402.6425090050219,385.4669940588085,360.36806359214233,{}
149,149,42,0,4.971633333333336,15.738545620846589,162.40681304560113,13.070150732831795,30.089746641479,39.297489935333616,43.309360017954496,50.9903417082443,109.79704573178658,79.72791947027397,71.82938566886912,58.7588714392798,53.42340639868985,5.1842018564494765,53.68467917129601,21.71314252343143,4.620402715562364,30.17478613269302,28.87290667863641,30.149502838900275,66.0882602708117,68.50847121705874,70.59091491133803,400.00000000000006,397.4099637933561,380.422224027981,354.2878870329638,{}
150,150,42,0,5.005000000000003,10.608176485881366,156.71625171886146,14.473605903919449,31.57877651764248,39.5610922213436,43.50048900391401,51.33237807394709,107.8941531019453,76.31537658430284,71.04146364827386,60.97042516734916,56.03134541986424,7.201963564847233,49.38735320724322,16.287941510360156,3.544151366919209,31.688235343311604,31.68823534331157,32.26934320375642,68.21716421107897,69.95996361988466,68.42068245489227,400.0,401.3136182450407,384.21070067668927,359.2109927378934,{}
151,151,42,0,5.038366666666669,10.570669153379855,157.38477684473034,14.422431571567806,30.15599328600541,40.6661761908247,45.90828161007804,52.59250101231861,107.54464574479351,77.40111075832908,72.12825156951897,62.06614707837696,57.31336477377249,7.224775399815485,47.83511500539453,15.166565371446268,3.1548641159874933,31.712007460139542,30.269789891437643,30.797483037020697,66.32043353781455,67.43351330168025,72.15981956684797,400.00000000000006,401.2401001662112,382.8589819561048,359.2592293118677,{}
152,152,42,0,5.071733333333336,20.95827592524532,159.81222225066847,11.86157877090302,30.127521642539875,40.60665960516265,45.84622858647392,51.152927422721525,114.02835826203788,83.9251549619586,73.41990259358874,59.42346631320561,57.404487200635685,7.284694906164304,55.60377610023545,23.272826797596053,1.4733090821456472,31.68206671299134,31.46469147554888,32.0444725366666,68.56343932281254,69.08182585171551,70.74630883994736,400.0,403.8633803983837,386.7377827424367,360.56315796919466,{}
153,153,42,0,5.105100000000003,31.529686597550462,168.24041704286424,13.202892861596087,30.244495670529943,43.37321960932061,47.31277272435091,47.458462900510455,122.35398569581535,92.11160490959077,76.32370139017746,56.66829656980372,56.66829656980383,9.27374006138723,65.65479689477627,32.12981623038104,0.5334452247699346,31.96459937127104,32.94835487207557,33.40187792021743,70.33270117352913,70.49683816576612,74.9290875231864,399.9999999999999,402.5526660453096,385.36408025934907,358.99649791966004,{}
154,154,42,0,5.13846666666667,40.35007275904326,173.1470538632537,11.708447032690662,32.54947235168935,45.60712833150982,50.75327976730045,43.10800814222801,127.65780699516098,95.11097657688433,74.93512137602386,53.645465567119686,52.04138086621026,9.77679472769421,74.81329215823325,39.4625141293327,0.4771644363464702,30.37071646267296,31.24961655395293,31.777120973710225,64.18369290600481,67.55430126487761,67.6988226853988,400.00000000000006,401.2989550171925,382.97342098548273,355.5586701037248,{}
155,155,42,0,5.171833333333336,51.51097387004548,177.7739221489919,11.65765023419011,32.21003979658042,47.702304839399694,54.130897164395606,38.70689283173546,134.04134191986373,101.83267970625364,76.08307845061609,49.39325770872188,47.41698595605715,9.705389360688969,85.63618659748659,49.44063408635418,0.5143721000086998,30.05400441960089,29.637531570142347,30.15844838997873,64.62814714450337,64.45217774186892,64.42007959316066,400.00000000000006,399.91505297438925,383.1311093747376,356.0695308773799,{}
156,156,42,0,5.205200000000003,46.16499227791434,180.9765180267418,12.823608966087413,35.99758577586991,50.02851279068829,55.20113102407492,36.11161072337904,130.95786923196863,94.9726557399238,71.91515165667306,44.61839774762666,42.79861415369021,7.649831033769942,87.24851342039665,47.48287192326711,1.2468887588081543,29.937016562900524,29.49430062200093,29.386135072454977,58.77227014490995,60.99645009305448,66.87976193207591,400.00000000000006,398.72145274571966,381.8120551269302,353.4038663237304,{}
157,157,42,0,5.23856666666667,52.563562589449816,183.4927544717893,11.60934886536727,34.70986489599083,50.01592005093672,56.467921315508114,35.91995337638839,134.7116454342768,100.03184010187356,73.74266732973433,42.42490134622631,39.56351564494082,5.082812773829119,93.69195358904813,54.06142656936993,2.4760702965457995,29.929481078883843,30.7689146865072,30.644301667397485,59.45249166699102,61.596855658586605,66.77683526201882,400.0,397.4442213275069,381.90536030575873,352.2129937601922,{}
158,158,42,0,5.271933333333337,53.87442169575268,184.82019471152984,10.338724074798966,32.16144766791563,50.02851279068826,56.482138505488976,34.64748349419249,130.85737396979582,98.75011570659736,71.82315680089607,38.87081720136269,37.86484367130674,3.722102061207238,92.4690868827446,55.18770785887045,2.756367472353304,28.47303265006235,28.24106925274437,28.760783224299985,59.2183084692947,61.91431752984465,70.57646521368753,400.0000000000001,398.6245197608986,382.00151438644224,353.6759722124926,{}
159,159,42,0,5.305300000000004,53.8846392203971,184.90763587490224,11.546708404370865,33.45570186753227,50.101486429458674,56.5088610392921,35.94599564844843,134.7665711600146,101.36256016122609,74.40062437218671,38.36806508531413,38.32779774396158,2.4026180340288192,96.40672642129368,57.63598792245523,5.4964920946076745,28.48650366227264,29.53613224281117,29.401870410838114,63.74991258446698,65.07873484909749,77.07421853512547,400.00000000000006,398.631474053885,382.085328279585,352.46835117979924,{}
160,160,42,0,5.33866666666667,53.94794539132232,185.0758501686317,11.560274012426342,33.42103945880916,48.82694389058423,55.24735401723908,35.965296927548096,134.8759798867115,101.47351633129676,74.44956139345106,37.9035499421434,37.54736410048838,1.7842894520637174,97.1009647764289,58.20278267268316,4.976521051800887,28.5199709267102,27.004538113621056,28.16892368483923,63.03145299775929,64.61076757868204,75.88192370801062,400.0,398.7854975581295,383.4711531359814,352.7047363978432,{}
161,161,42,0,5.372033333333337,54.31158022402151,186.2301802050873,11.706498406154934,33.636780290194764,50.43446408138723,56.94045708720813,36.197461551564366,135.74663670965634,102.12855223477098,74.94236278263895,39.87956252921754,37.296271029349214,2.4218357811265605,97.08870553671852,59.3618859240579,4.251667260199952,27.42371841948266,27.148096163673383,27.74347433712785,61.622265986442926,64.31319463213902,73.73303586192021,400.0,402.5820960075358,388.3144300128319,357.26228047244524,{}
162,162,42,0,5.405400000000004,55.03668909237333,183.1408365141401,11.519307019333928,33.302602863692684,48.65391225907335,55.096188233091766,37.11776706229819,136.95774204787324,103.67376317400546,76.10378675802247,38.9707935906406,38.62746823684506,1.7065289644546056,98.1069028145106,58.02535072629598,5.0253407178119005,28.41890260854666,28.1583060472608,29.39470896761657,56.29862615279456,61.93993294653387,71.6871150933692,400.00000000000006,398.7222085595938,383.4688617611207,351.5410523973862,{}
163,163,42,0,5.438766666666671,54.47200498573272,184.24030820927763,10.375619997282344,33.745697168319786,50.59777235079537,55.904520309944,37.61162249014882,136.18618828857765,102.45924747316388,75.1559480382183,41.30766164297256,38.70236514100918,2.427039372881609,96.10801674874516,56.98057691531051,4.250746924256191,27.725677708099788,24.676204219202454,25.83357162999505,63.103023694924445,67.07952888213174,70.0834537977068,400.00000000000006,401.4377022199918,385.9016726125287,356.0483047146269,{}
164,164,42,0,5.472133333333337,47.62216348228739,180.35737643722385,12.870854995212756,33.48896548482451,50.26229552750113,55.47920796441514,37.347664022688505,131.30795549651668,97.82696526490668,73.97935402915073,41.585266773988224,40.29978712100569,3.599343028351427,90.30494562203025,51.676282049902056,5.399014542527084,10.996863328453689,10.613578927454244,11.022988024326082,62.15294122171042,63.30987290939481,57.976023057511874,400.00000000000006,398.71615387086433,382.02813799400536,352.4123771355844,{}
165,165,42,0,5.505500000000004,46.301293394098565,170.0099582019427,7.82332701561018,29.6930101435134,45.18020550243988,50.30791720980023,43.804589691679006,127.4908457125508,97.82329874423276,74.69540296794241,44.45014898840168,43.86251032868893,0.3518577160009499,83.33224030606743,48.538227812453215,4.835323045661767,8.134308096503277,8.134308096503291,7.777143743359943,61.62225648889887,62.52185147413843,47.7436074757084,400.00000000000006,397.6524547889649,380.8841450783767,352.587305811168,{}
166,166,42,0,5.538866666666671,29.557098360607224,160.76486189447502,6.552705274170455,27.1090292597194,41.20315937738084,45.1431168064893,51.54801935086092,114.63273119393143,87.53726049364725,72.78551667062345,52.34608621213522,49.068729259308725,0.8351974170105905,63.922556739054926,32.93919939577415,4.725737283591911,9.355605394499737,9.355605394499722,9.736921785655682,59.91572356124436,61.74822422303987,51.548019350860976,400.00000000000006,397.5587117348177,379.4067281164032,351.01814788248663,{}
167,167,42,0,5.572233333333338,7.941576024240414,154.25830139238116,10.525979358263031,30.141817793470068,39.189365423046816,41.86030545134518,56.276708751718566,104.84603811998888,74.70422648008335,70.72612055507352,55.555175725614845,54.23075611663501,1.3807778902130394,49.91230281714195,17.034290502730983,8.115592497579087,16.14922000590291,15.72135001559426,15.67816936055749,63.57214123103586,64.00891791059303,57.68272149126553,400.0,402.47884251650805,385.4578573401062,356.6165097862065,{}
168,168,42,0,5.605600000000004,0.0,151.23222806690234,10.587974613895229,28.92191745847856,38.10765798455756,40.73275162670038,59.62044440792174,99.05449311044966,70.20811699305631,70.04629463164633,57.58483621633411,55.87892705096601,2.746097680836669,42.23165372801952,11.858149076340396,9.361696639216008,20.089269352770568,19.699149316076568,20.31488170709906,66.09357827286624,67.69546858668753,68.49212885430022,400.00000000000006,401.0485340958648,384.99393481977256,358.4860311903182,{}
169,169,42,0,5.638966666666671,4.150083255395902,149.89213686632448,11.88402988969161,30.298450153828647,38.14917616092941,40.76809946610509,58.11598541141064,104.34798209400492,74.06474425804434,71.96150151407971,59.63374222236541,57.62518876410718,0.5563763063817078,45.640353233558926,12.789656602672494,8.541601030676816,23.94853359163546,23.62268801947925,23.556762858876027,65.0225441835463,64.99455040712462,63.212184887080575,400.0,400.00000000000006,382.8977556683114,356.520896690748,{}
170,170,42,0,5.672333333333338,1.3331185704182411,153.5923852277985,13.331185704181602,32.105746700869325,36.01888032184578,40.08233315321804,57.87945798352175,103.34893704335109,71.26887287550292,71.10102251754597,59.35231502744057,57.39303087185431,0.615775020327078,44.88160204975293,11.391837876052024,8.648840058231144,24.32713106575285,23.996134267526948,23.93125647180466,67.69326757550812,66.92354880009918,62.88307720059617,400.0,404.8556212590156,389.9935789392094,364.3903488558536,{}
171,171,42,0,5.705700000000005,8.038108415736863,149.69837796589755,13.28047731682178,33.273434130349926,35.777087639996594,39.731705958719886,54.58112852188983,109.16225704377966,75.88891141565195,71.79950637967943,58.79666694452317,58.24991682272139,4.002491276266369,50.51830933108954,14.601032098884389,6.582030312459096,25.4187306730956,25.142431916462296,25.08741905036345,69.46530393660282,70.47468877685219,63.64979217292226,400.0,402.6282006267976,387.7637288522092,359.75920399171594,{}
172,172,42,0,5.739066666666671,14.500691529359615,149.94460357550471,13.388301016823274,31.75314390983224,36.85292025328147,39.47235280277632,54.22484409876885,113.82327408125762,82.07031043383988,74.65498004873302,60.26493153098977,59.80005478004944,5.895482432379595,53.56648016516772,19.12333907277184,4.796682839247524,25.252807064706086,24.943787589116944,25.54709054031082,67.11129822665612,66.30832929321377,59.20852920416441,400.00000000000006,397.11996253936906,382.4914371071871,357.28784695545784,{}
173,173,42,0,5.772433333333338,16.36156137815375,156.38036915155055,13.516198930892502,32.389771556985785,37.75348062494323,40.43692322124308,53.06866889256878,115.27081139736396,82.92776187904505,74.53003893517337,60.85905620656104,60.99955962617685,8.050845943982267,54.12894240696687,20.24654276662932,2.746841853488036,25.869900015804543,25.553329152377515,26.119585706567364,67.49784278340519,66.6196964108068,58.080895834188986,400.0,403.7649106575903,390.1311484465597,364.3297018907451,{}
174,174,42,0,5.805800000000005,17.434980432770885,155.32278530603855,13.438713351359576,32.20408767996785,36.20336934210762,40.13833923149853,52.57771989554505,115.62738235895776,83.43325852216424,74.61632279265291,64.14144085625344,62.319722258618754,10.76084939067914,52.30026997162816,18.534927592213307,0.1482794207378219,25.721593217019365,25.40683718903109,25.98067279068528,63.03993658791637,63.2517643318273,57.561846003520735,400.0,402.5510959995989,387.569481275644,360.6034776967018,{}
175,175,42,0,5.839166666666672,17.434980432770768,152.65201427064468,12.108878730980589,30.87170446849905,36.129207360487406,38.801905118928,53.90433420711198,114.2975279672262,83.43325852216415,74.59704255658585,66.43062947670694,65.4883510444132,12.17109641712716,48.21324645236177,15.70464053822866,2.512742486116508,27.043235966379942,26.744039146348552,26.697888914988653,66.1950598686334,65.33130463903092,57.56184600352078,400.0,401.1093245115388,384.70768123342685,359.0903921027291,{}
176,176,42,0,5.8725333333333385,17.451531444726854,151.78909023955433,13.690107596729288,30.99229921773112,36.270339597161694,38.95347776767233,51.29400617018404,113.27398742359227,82.28312729297625,73.48673733508224,67.42582847278652,64.7305066493185,14.852791953131828,47.09682710054517,14.439224054292822,3.714980608536507,27.14887549344634,26.8485099149643,27.480873829750408,64.43102644671092,63.56110776294622,56.44575964738542,400.0,399.6957788886809,384.693335137813,356.3121982330596,{}
177,177,42,0,5.905900000000005,14.935286093223857,154.24306908923202,13.589213369231986,31.12945846187553,36.60881051720944,40.58784809546296,51.66662089562461,111.28180686810488,80.18992641981248,72.61434953111427,67.488419440543,65.51994733848755,14.921593269960454,44.700121967112864,13.12554208195354,3.606470785517672,26.00964908499269,27.04354537616929,26.980280946237823,66.73407794158015,63.44371216515174,59.63393033684035,400.0,402.4175875277144,385.97733750577913,357.3433842974537,{}
178,178,42,0,5.939266666666672,20.273542257835384,152.53819051194665,13.55302077220371,33.82211328019505,36.51130907317918,40.457279124093695,48.7170152973374,116.36108659904473,82.539019137965,72.35646771838856,68.6557086376788,68.10399818421388,19.69319716036944,47.91641113697312,13.667372597200142,7.061177297269069,25.940376734739345,25.6584077438172,26.20266400417336,69.12143824125303,70.00990702345632,64.78781289683788,400.00000000000006,398.4899375269027,382.1827184305979,353.63817505026526,{}
179,179,42,0,5.972633333333339,31.17009094458881,158.43438365670522,13.60695102046632,31.170090944588704,40.64082637126969,44.68009362540848,46.21288665861045,122.12528903349386,90.96637992568564,75.34854348942201,71.74211747625304,66.91208263718761,23.15196699525393,52.77618067485582,19.80314284016856,11.94628616862201,27.213902040932982,27.07884462145984,27.01599486650639,73.4809300183166,73.03012676667049,67.8188568820869,400.0000000000001,401.15322810716833,382.10207217578267,353.54488391882734,{}
180,180,42,0,6.006000000000006,33.79152163186383,158.04104256209737,13.573169382382863,31.092705736856782,39.19012309947677,43.23968431433408,44.65094582852453,123.0882352901116,91.99825125675812,75.07027385132619,68.91638102395427,66.54866624697127,23.099656360809945,55.32367698414009,23.53277491757524,11.5570468230178,27.14633876476596,27.01161664898113,26.976067443858483,69.55884021648933,69.652682570455,62.1854114737134,400.0,399.9566760248982,382.3002685997304,353.8934148082499,{}
181,181,42,0,6.039366666666672,35.38720581312007,161.8505697747653,12.315693264206908,31.310490587169795,40.823885108790456,44.881346460591125,44.90194841093509,123.88321929592156,92.57273347297767,74.86639899782801,67.54879466752323,64.5824930611999,21.163980333350423,57.79925924085774,25.67886586650434,10.83281714073928,24.63138652841404,23.12069363121351,23.79221080071784,67.93412306246216,68.20312590421202,66.6974880583579,399.9999999999999,398.5754981752702,380.8502808403651,353.62107017494907,{}
182,182,42,0,6.072733333333339,36.62180699658189,161.31941144311668,10.92785736434955,28.59290918718505,42.0403066748861,46.1046807281558,46.08475218573875,122.1094734765832,93.56421794950012,75.25327100256322,66.96284994825965,66.04930492850167,20.43295694192,55.57398870194356,26.188290566395267,11.404086996645448,10.92785736434977,9.5843649352462,10.178414095136644,61.435902578723926,61.96880384024939,52.86192162481787,400.00000000000006,397.1999505986235,379.5432717222116,352.4154174261098,{}
183,183,42,0,6.106100000000006,27.096235305257512,158.51876622389074,12.26834232413513,31.27825845510074,40.64435295788626,44.70878825367486,54.20940311229055,124.76043649979388,93.5212734645934,79.96859521531837,73.23423476257153,69.16265591412923,16.990714015838194,53.51881398884052,21.33321541122996,7.856753861537982,9.579965864486876,8.240998241348146,8.150898341083234,63.326210188415416,62.74566187352343,51.48284707998916,400.0,399.9472254646308,380.85635940241815,352.37870079697973,{}
184,184,42,0,6.139466666666673,13.587768632509585,153.56583281227438,12.304247813527711,27.17553726501917,38.07000831131111,40.78594589144182,58.490569900528726,111.49424487446193,84.3427287648489,77.50823931159607,74.76804903290338,69.44885613897031,13.643384370802435,39.36433009601103,11.13346218275592,4.455687554008932,9.60800334124146,10.954809293953886,10.200876415637936,63.55399301842112,62.8862155555463,47.55719021378354,400.0,399.8130209989507,382.0120863219847,354.80731552995843,{}
185,185,42,0,6.172833333333339,5.495038192231153,156.60858847858933,15.173670159106566,31.6263198430734,41.23567607773454,43.98176529286844,60.461029003147935,112.7236469741812,81.09836808556449,78.31806978182624,73.26360522107348,72.41248415766745,12.386051264828438,39.830972572549285,6.958287992055489,0.1343875363272673,14.009653485062255,13.737595480577996,13.737392602341288,66.7607416576825,65.13315927327483,53.59423178224794,400.0,401.3282813693502,383.3404573339344,355.846153144387,{}
186,186,42,0,6.206200000000006,11.025047991094054,157.11297819102467,15.221954411681104,33.103842585165566,39.96579896771575,42.72206096548932,59.32369743889495,118.6473948777901,85.54408908864914,79.98812577202625,73.01644444949932,71.84704918493014,13.135213688329372,46.16131944055621,10.625110477120415,1.046497036127107,20.717851754487583,20.67196498330121,20.669247510696778,65.84365693497648,65.15095782921264,60.63776395101685,400.00000000000006,401.2728430779981,383.2418524363043,355.60052788932205,{}
187,187,42,0,6.239566666666673,28.977500976867688,159.89096390402418,15.161510800161489,33.07965992762505,39.97125574588031,45.50541123215579,53.91324964086477,131.05633813128543,98.01584114979154,83.43513242390986,72.58241103402361,72.250748920241,18.62098512159423,58.575214428605136,22.9620736775488,6.437930141980019,23.471929573374045,23.47192957337413,24.10446540279986,67.79173605716369,64.57829868807005,60.66170389637522,400.0,402.705140181253,384.6720628124479,355.6731169822031,{}
188,188,42,0,6.27293333333334,37.244776770368574,157.2023825316722,12.406419302320364,30.326802739005394,40.00000000000006,44.11171307491696,49.93106887454818,129.76133765723068,99.49038793854174,80.73170391852295,68.92294139444971,70.5098602699245,20.00784338069343,59.95647723184868,27.18995509880472,9.316629360475645,24.96553443727404,24.85110052190134,25.476380726226463,68.59512716665188,67.92459806433862,64.80374171772473,400.0,399.954866812414,383.3419738087788,355.7174677530021,{}
189,189,42,0,6.306300000000007,34.61648639861695,155.01352147680944,13.835530558831229,30.46959539188359,38.76418399603111,42.912454302016464,47.365227081644846,126.1767011340628,95.7154763541958,78.28498403762819,68.21072792321729,69.08165889133568,21.498821166786684,57.404597045681726,24.58733266717252,9.459481313386163,27.705628353023176,26.28750806177913,26.95860689969652,69.70375243999149,68.73767775266697,65.0858415965828,400.00000000000006,401.34725556425855,384.74966204872914,356.9995867100806,{}
190,190,42,0,6.339666666666673,29.27587858022444,151.80930626437768,13.92511538936929,32.05802309279874,36.2320691842334,40.38283462917093,49.05515963806426,124.21483924225332,92.16911749270255,77.34667652879523,70.49561114632502,71.66584717922274,22.286330525246058,52.93466409569078,18.301602767658096,9.94700627962959,27.98913553458357,27.885021836374325,27.83384184575425,60.18568356535389,61.0448441971015,57.1099524196435,400.0,402.7826086374082,386.0297170810448,359.4865025140743,{}
191,191,42,0,6.37303333333334,9.841714079836487,148.9321588868521,16.701942634443604,33.43286912272947,37.6051366973592,40.38701794800645,54.5660699477174,114.43505682768192,81.02546387440599,75.97125066969966,72.69338829446065,70.90005155795075,17.4087605604351,42.48570994648617,8.055132851750841,2.518856785512753,27.9754076845423,27.87134505104837,27.800440031538983,66.04092753744897,66.33113555705017,58.45679922055256,400.0,402.7101447532916,387.28864352244784,363.48316153205815,{}
192,192,42,0,6.406400000000007,7.075831994963608,148.48227614011344,18.039902708612,33.333333333333265,36.1064818019531,38.85517506470254,53.02336266452188,111.32657714290627,78.01948632544087,74.30305822707032,70.24669345552184,68.67554040373659,16.67331112431964,41.63555587231019,7.121581589867901,0.2129132640269517,27.89211975979569,29.141381298526863,29.13240798824313,65.53323430016587,66.39222919296446,59.68658110972429,400.00000000000017,402.6677838082912,388.673154102776,360.8647636216707,{}
193,193,42,0,6.4397666666666735,5.590272305629898,146.7446480227805,16.77081691688901,32.174433327447694,34.93920191018584,39.1568547591816,57.57234152215639,112.02360328806208,79.85728936390656,76.92109387207961,73.5124017375964,71.95963525551076,15.37978229875273,39.13710947466291,4.377322654260524,1.5971312387166563,28.09077067988779,27.95136152814858,28.641147468374584,63.20498994698994,65.4380160307511,55.92018992847989,400.00000000000006,405.53563058486617,390.0817549295135,362.1023100417996,{}
194,194,42,0,6.47313333333334,9.785365919413788,149.58283976968912,18.17282242176859,34.975682440481584,36.34564484353724,40.53937309471453,54.804467744619686,117.63222933329337,82.66598533764717,77.63906494042271,72.1518374048901,71.95852044564367,17.480314276473223,45.4369206905692,9.271778776164297,2.2974977079668406,28.09763154207568,27.95818834118249,28.648086306785103,64.62734652960694,65.44522597257253,57.331331240648296,400.0,402.7944451548101,388.74199547405874,363.5532138983687,{}
195,195,42,0,6.506500000000007,16.893829312308743,148.7398216671314,18.23843010350209,36.503830162782656,35.073904045196414,40.6857286924278,56.39813971221648,127.94621758804227,91.46155184451652,82.80649455934463,74.7765277455511,76.79971018875062,19.64111422960059,51.92342679043304,14.132741592276602,4.304800599946361,28.19906985610817,29.495464201194604,30.85722419755689,65.40638716007618,67.90952164272073,54.73327397255673,400.00000000000006,404.1707056805215,390.1126412947062,364.8657168765564,{}
196,196,42,0,6.539866666666674,31.96768674619145,149.9931708897759,15.274463366679583,33.35501825376631,37.49186462730421,40.29297383738759,50.16242598277337,130.7117545831802,97.35969690206956,81.23237335915906,73.59514167581938,76.37231683339746,24.99457641820288,55.54350315156171,19.4402261030466,11.108700630312342,29.29228706443748,29.19338204239977,29.85463294396436,68.0407913606632,69.42937893945225,58.3867640847996,400.0,401.36186579271,387.4557485676214,361.0434517700604,{}
197,197,42,0,6.573233333333341,36.010826151917975,157.78303664051612,15.224093263081045,33.24502448936104,37.39384992176849,42.90426283231915,44.37468753209616,128.83178798013242,95.5868038200238,77.50447479386685,70.58443240155736,71.96844088001933,26.98816533000729,57.43635185616915,21.452131416159546,13.148080545388211,29.195690837214745,27.71474818305649,29.064178047700125,67.81641544463355,69.2004239230954,62.2803815307858,400.0,400.0,384.77675937515977,359.85285046167763,{}
198,198,42,0,6.606600000000007,37.36465052877488,160.5296096791811,16.60651134612222,33.24184093861384,37.39026907859905,42.92246908699873,40.22772892563832,127.3842585867473,94.1442577298029,75.40545021709931,70.13501851508408,70.98888733831564,30.444840111081817,56.73075017797589,20.65479239644492,13.735510553017091,26.438912815867067,27.71209421276651,28.376416496184905,65.57123687367437,65.83623064640142,60.90626543527373,400.0000000000001,399.9784544026177,386.1633854303765,359.8503241116953,{}
199,199,42,0,6.639966666666674,41.23321819339107,163.5815303782439,15.118846670910154,31.641998984637425,38.48433698049835,42.60765879983745,39.882467798597546,127.85253084531767,96.22065938331072,75.5626807594349,70.14602733554591,70.00713878621536,30.24480909762633,57.68626247587122,23.02260453244071,16.19513584430001,27.62591428680794,27.52315169525668,28.881508337092782,63.46475712038455,64.16650979068595,61.86509696746781,400.0,399.9834701473743,382.11673608372246,360.1139306491344,{}
200,200,42,0,6.673333333333341,44.13688141839207,168.32272771060914,15.17205298757223,31.7233835194693,40.022822367775454,44.158427371063375,38.61977124109305,129.65208916652665,97.92870564705736,75.85060824900461,70.39288556648432,68.9404271106522,31.051801229984108,59.96892866882138,25.16127527022116,16.952684300140163,27.72313553493765,27.620011300788512,28.293597293656603,59.55079668911208,61.67813483149223,60.68821195028892,400.0000000000001,400.00000000000006,387.5990774004424,362.7735931956721,{}
201,201,42,0,6.706700000000008,40.023774147715606,171.08453105338037,17.93103448275865,33.10344827586209,41.4022924684238,46.9776175611763,38.64531234792249,129.65517241379317,96.55172413793106,76.55293751250201,67.62913651152621,66.23525354525827,28.294349206812512,62.70629587669055,27.896096930735894,12.792010608423311,27.62066813034596,27.62066813034587,28.30541177003693,59.56084039990026,61.67010245467634,57.94745251751723,400.0,400.0,386.20689655172407,362.7586206896552,{}
202,202,42,0,6.740066666666674,41.3790643344749,175.2582359868471,16.551625733789873,33.10325146757986,42.78060750333727,48.2952753535885,39.99976218999248,131.0337037258371,97.93045225825723,77.2234427924385,65.78075939994199,63.99100635650018,24.89517143213675,66.11817185895143,31.17397719109647,10.63582751225647,26.243013068056584,26.243013068056698,27.62381131803977,64.19638785328857,65.22329533723064,62.08392018951557,400.00000000000006,399.9976218999236,387.5863568660891,362.7669528369496,{}
203,203,42,0,6.773433333333341,44.13766862343981,182.1984519867024,16.551625733789958,31.72394932309731,44.15921496039484,49.73144606289069,41.402046321436735,133.79941763077088,102.0776778753527,80.00791680427608,63.87285245654425,61.81929881228734,21.44496734216728,70.93561016875572,37.22065980215416,8.448906422085088,27.62050391856346,27.6205039185633,28.30236968995314,60.58716662573329,60.41848186209802,63.44789864619473,400.0000000000001,401.37692404440605,387.5839025995813,362.7669528369496,{}
204,204,42,0,6.806800000000008,46.89655172413792,183.5778645219773,15.234980713361807,31.724137931034587,45.53813522543223,51.05311868502553,42.75862068965508,136.55869017411152,104.83666022433026,81.38189524694315,63.445319668098136,62.40403032541781,20.187813805625865,73.60155727100107,38.38837823191102,7.032369574861946,26.243169090262647,24.865870865268885,26.259557296747403,63.914633174658434,65.19057927061863,71.73739930452872,400.00000000000017,402.7680679099858,389.0046446448824,362.8241713424629,{}
205,205,42,0,6.840166666666675,46.75532902397335,189.93347947192493,15.182537182536995,31.614933604703133,45.38137883411624,50.93305270563993,41.25977293117381,134.77021128057234,103.17461557465263,79.79727118817232,60.066233249825245,57.50897967514573,17.528146644730555,75.97965692311539,40.76992841917331,5.618651425509711,26.15283195935205,26.260976453600275,26.88769472805712,65.44377219543651,67.13155955472507,67.35355420132407,400.0,404.15872653381865,391.8370690779786,365.760162463773,{}
206,206,42,0,6.8735333333333415,42.483856331322926,191.88508912795567,15.067079529672412,31.50389356204216,46.59111189183049,53.41964560520194,42.66013865007378,131.60860730190663,100.1406140839879,78.88431184291801,57.28946011447511,57.6574078351847,14.887164779907948,74.1341067685579,38.98774048638279,3.009812355403937,24.806946917841746,24.693239916239715,26.742440341169186,59.5192233019751,63.9566728137321,68.54149261674516,400.0,406.9587013633995,397.56293234937846,370.39859874359615,{}
207,207,42,0,6.906900000000008,40.07076255451813,187.9579863050404,13.32733738029825,29.32014223665601,47.97841456907363,51.993699305656605,42.97937162339935,125.53191629476802,96.28943612900098,76.09635703080573,54.37378885223018,54.59835020486889,11.729587986157073,70.93893129853859,38.39250592278188,0.5015203542263862,22.812726939791776,22.695637747815177,24.02806473233204,60.54174067137092,63.89519020410751,75.96582306769989,400.00000000000006,402.858316964781,392.4782064643632,363.68738484177845,{}
208,208,42,0,6.940266666666675,36.39418506173105,181.51311282474043,12.964891611811778,28.52276154598612,46.691613124234784,51.87577003034791,42.96057252034953,120.7476255429193,92.27870327911792,73.92894529835769,50.19071047842556,52.54861243594678,8.563505662444413,69.23967725743523,36.691532229658606,1.9598638457208608,24.76939064545208,23.48041736383277,23.999802721972287,60.12270907763059,62.81420488123194,68.71392554260295,400.0,403.21646659202514,390.8866444200689,360.8621017592616,{}
209,209,42,0,6.973633333333342,34.45099785088158,177.3106917085579,11.546418690431254,28.051950007035828,44.70090510928921,49.79380305704567,39.712409904931086,113.6618330641312,85.6684980359537,68.05814570094185,46.03649358441589,46.839949757059,7.014790430382618,66.85682421203819,34.23959381878353,2.5648793203602054,24.526819639279097,24.26021585572829,24.8260231806546,60.57596009320446,62.87817104943122,67.59172581190609,400.0,399.7865501010545,388.11318755883246,359.9500919463781,{}
210,210,42,0,7.0070000000000086,30.9936444701875,174.42211591963363,11.61254071718622,28.38621064201093,45.23355089405798,49.30161753114008,40.18561391919344,111.08423938083943,82.73919541166686,66.79263870116267,43.959170357299286,44.44145621913299,4.43940182655092,66.37755660696166,32.65707790662327,4.668685269062166,24.81907562520838,25.8056460381918,26.387361702785256,62.183250874129385,65.29043683643488,64.52701662847419,399.99999999999983,404.2621447946133,392.8840751281389,362.38331316553865,{}
211,211,42,0,7.040366666666675,33.48723998931612,168.76493505619217,11.131914875699316,24.768491296309936,42.21728787713701,46.18051311903738,37.29145330856125,106.48662742591746,81.86796473756732,64.36054392084532,38.34820714487592,38.92899949375055,1.929344446604205,67.03377993758352,36.30747786424104,6.026715127021475,24.015854423135245,25.974468043298447,25.849237554709816,60.29897550850933,65.89208538876824,64.36528509842294,400.0,399.1960098687261,390.83041432202,359.2511994547073,{}
212,212,42,0,7.073733333333342,35.153771601437136,171.34575111039845,11.27071135148012,27.55062774806268,41.49635859920297,46.94042096993071,38.90204883136185,112.81837426599569,85.30368809919479,66.88805408352107,36.38275721161915,37.69240870036049,1.3256228483601262,74.57027806016231,40.35962575669953,8.86410458843227,25.54203427256397,26.328126299731817,26.033316178638643,63.37435496738578,70.30592504194351,60.16261713285452,400.00000000000006,401.8560404773007,396.1074618140776,366.6762899445025,{}
213,213,42,0,7.107100000000009,29.86218927573772,169.65715058191245,9.91967935154739,29.7848593506536,41.21817758765801,46.47782636724289,36.044250685724016,105.46221761673884,75.79999831392178,59.99031199393755,32.52390986945977,32.62728660009623,2.898524485921257,71.78718737079407,36.70271540403212,10.190560023890612,25.29031929106176,26.03915829781182,26.432634818113456,67.05968995822843,70.63811524948915,64.58513086918911,400.0,403.147182784853,395.8735893150084,365.4938298821604,{}
214,214,42,0,7.140466666666676,27.24713054501526,165.46051641472272,9.897827718353932,28.483138262338,42.35587998426913,45.154601682412654,37.30197655827724,102.75701933552688,74.39848879604445,59.93140746211725,31.593952797654424,33.08602103322585,4.251210290238987,69.52327469079046,35.46622512330384,11.853653204817078,25.234608339033016,25.981797760678983,25.803307026270204,65.3904825144856,67.90094652989148,66.856144671702,399.99999999999983,403.15047284491976,396.425067635965,364.93416298696445,{}
215,215,42,0,7.173833333333342,28.643768194228045,168.26920272605815,9.925594599637824,28.56304346388596,42.474703096234826,46.72019657053362,36.17229039888986,103.09756009325363,74.69999132642994,59.36069605857165,32.06051500256342,31.12495804196874,3.824776985960512,70.3515248897595,36.4434814356016,11.183443499545549,27.742880302368505,27.295385149003707,27.70899586231837,62.70590182943749,66.38523508622995,67.00925051952899,400.00000000000006,404.4470473497461,396.5213705881468,364.0347980872857,{}
216,216,42,0,7.207200000000009,31.06164294133764,166.6243191430335,9.908070483314876,28.48570263953042,43.62997771236235,46.42343398792226,34.766599055667136,104.15262650364686,75.711290588474,59.38769465811242,31.974989901281788,30.040892951155456,3.2442916582764383,71.99831872405707,38.136024540797166,9.374131185692931,29.151035259568403,27.27532723240706,27.59987542942349,65.1041989502196,69.8926486573871,63.17609040752173,399.9999999999999,402.9438499061916,395.67400629700745,362.9063291656376,{}
217,217,42,0,7.240566666666676,35.32139249455375,162.26380920205423,9.720742729572114,27.947135347519627,41.59807829835469,45.54572549517068,32.8300007202363,105.77590814190744,77.85133117194827,59.63332678059953,30.08000977941913,29.026624222941564,2.984592410020128,75.31706728815641,41.99887227956515,10.319277025494555,28.36662799728268,29.187531645267324,29.51430272131074,65.03680454253151,70.26471804505047,65.61501342461142,400.00000000000006,401.6520586273848,390.9597801341759,357.2393617902206,{}
218,218,42,0,7.273933333333343,36.066088908303485,165.97978893539752,9.94335603535946,27.34422909723861,41.31655876747964,45.36230513797465,36.13028253176341,109.44045631669584,82.1173880755513,63.303870108898536,32.67118796742977,29.703942035432533,4.380032788213612,77.15232957136368,43.32415181082081,11.723376168992218,30.24153675864973,29.830068106078503,30.14076471242413,59.502332217241474,65.84609938220137,62.15840317337026,400.0000000000001,399.00813590344006,387.9362637758184,355.9700629544612,{}
219,219,42,0,7.3073000000000095,39.96580265958615,165.10820980401357,7.478994824163469,26.206143629934605,42.67325669016174,46.72293804668219,37.58148387692465,111.05041156727157,84.99076833574085,64.07592559568911,31.81440627206553,30.203257517313546,5.87799485884409,78.98868763429095,45.971701430448775,11.127718791792176,30.328632987143685,29.94193676730421,29.613530819999937,56.70626909069881,60.861336931901405,63.62031954527481,400.0,399.0608147538044,388.1799253487407,357.43892549190207,{}
220,220,42,0,7.340666666666676,40.022262474322574,160.49851040993116,7.500512747889809,27.5302764487522,44.037797883762494,48.09174778837401,37.585810376263744,112.53546746644768,85.08849717151747,64.3708687444771,33.46041293191183,29.977544671341093,5.348690543019302,79.98158184096394,45.774839996072615,10.324216629549028,30.41589193392541,31.252136449540806,30.97264988864697,53.86006988668328,59.333148581866,63.803362482943385,400.00000000000006,400.3553595054159,388.0604348548815,355.78275470640926,{}
221,221,42,0,7.374033333333343,36.90454910157233,151.29252014965255,6.137135225156569,24.579207422140083,38.36568618445624,42.1813657339652,40.57941381914713,108.07632789250542,83.60931754330194,64.4850476634623,37.08004873940729,33.702187745421725,4.7458182743552015,71.89035830412297,41.489609358252665,8.933754529341968,29.864588952764244,30.783713679475333,29.74351807373728,50.25523505983972,55.51308203690337,60.156448668451446,400.0,396.3392148312583,382.929698632261,351.32084066473453,{}
222,222,42,0,7.40740000000001,30.12679612382949,149.12003284209052,5.003788481118332,25.018942405591982,37.611717625670735,40.51601243860118,45.051467245400325,105.1465517718182,80.14852465395478,64.59228617407871,40.23554748575884,36.14275374533372,6.570011004366847,66.17708976529605,36.41970971273099,9.72423174416815,30.43685708248485,31.298686949816734,30.99598868453586,54.82189510201101,58.94546172770265,63.8105661431446,399.9999999999999,398.8246215836712,384.8060557258071,351.2578432903408,{}
223,223,42,0,7.440766666666676,20.496173639368624,146.31779541642783,7.658623442161991,26.47042957959321,36.59975760862103,40.77909644931857,46.65359590109133,100.7963928464656,74.45565196665108,63.77080900749411,41.29393347838095,38.67761760518556,6.261010239900884,60.13745705064321,27.52424791454064,12.219556217004763,31.87710474300928,31.476748451112147,31.90997972509922,54.54942979546581,58.39072593298954,64.22490947696912,400.00000000000006,397.5252883772745,382.65163381642566,351.2647175751329,{}
224,224,42,0,7.474133333333343,13.722136526396836,139.4970169768936,9.938750941717148,26.089221222007108,36.113549415318914,40.23736797611021,45.98350847138504,95.692741045235,69.61561187646895,62.42928764730436,40.74767176097487,40.38057561898404,5.185233005619352,54.65143813887494,22.392864661436533,13.628444271407034,30.456434290220702,31.08343363941205,30.216601187614742,56.7163539375731,58.27651254103375,59.68424753044896,400.0,397.18687444445226,382.1595939911168,349.29089401802923,{}
225,225,42,0,7.50750000000001,10.14878471066186,141.18796610739682,10.07041454391968,27.69363999577923,39.10398504475869,43.09443263223806,47.83446908361858,95.67721939972768,67.98695274474059,62.76074150886575,43.439558382349446,41.65385279478039,5.183086133410484,52.829645815287336,20.08162131105314,12.560471505783084,30.6279701261625,28.9797941503501,29.39225997844221,54.20675775146356,56.89288268191706,62.95267765912793,400.00000000000006,397.0636880412613,380.5018716234833,347.3221046381546,{}
226,226,42,0,7.540866666666677,6.804375799429295,141.87712927040872,12.63540865158731,29.088895209354817,35.46928231760218,38.24168582084618,46.76808377043851,94.7992533219856,65.81337903597955,62.28238927210964,42.04523871676884,43.67659700001343,3.730976814457336,51.584153122962334,17.250103328381556,13.949623838669368,29.4976585048666,30.35129311649433,30.78811130391728,64.7634133278774,67.56542223104259,69.54067934524483,400.0,398.4403371849011,384.2909515044095,351.1302541391771,{}
227,227,42,0,7.574233333333344,5.274099659456223,143.63059889521742,11.51241351669103,30.699769377842937,38.5661079805521,41.4296834844378,48.60796818158449,95.94530664049924,65.24954947823423,62.478087755551314,43.15821775521636,43.27831018723077,5.269055454636828,52.39032346633224,17.923795478166312,15.311785081850644,31.123234476723106,30.726406926783017,31.171491884767647,58.48501439106872,63.42381565766573,65.24954947823426,400.00000000000006,398.391201483724,382.69035760274505,350.40732621912605,{}
228,228,42,0,7.60760000000001,5.2205589671508985,138.38391783854627,12.661715321369732,29.14945771126592,36.806193021433415,39.57672258754936,46.84834668906823,93.69669337813646,64.58716039246694,61.866641893076576,42.49525252380454,43.53172209755587,3.733560106907248,50.48060752449464,16.186325934605634,13.856160761500403,32.28116674961064,31.679601612790385,31.502622664967475,58.01203424470941,63.49700096711604,68.42014190630393,400.0,397.1179021779024,380.21636382698,348.2892443666695,{}
229,229,42,0,7.640966666666677,4.100612664486173,145.51687189279764,11.670548239717256,29.852910810834626,38.98818013017079,43.28040779116653,50.58899768640181,95.96660235500596,66.18393921783134,63.93300879616902,44.72113024824103,44.51046543549705,5.770711120525107,51.06364586050006,15.987954538612485,14.799203095270856,31.363655990850965,31.148465415379864,31.62229314154717,51.97401880128689,58.166059547300165,64.84934508889415,400.0,399.4131455324755,383.48950685040353,350.4740653100475,{}
230,230,42,0,7.674333333333344,3.991387893202514,141.82070144703638,12.621876767740796,30.318788416063114,37.94968286014937,39.45219922359392,46.700944040641005,93.401888081282,63.122004453536505,61.01344092263855,41.47722888198655,42.675861995806144,4.504297393127331,51.08514022515101,17.01079007128351,14.3873666523574,30.71035162594201,29.057742473258067,29.44943559205376,54.82050316790355,60.12012001705591,63.12200445353644,399.99999999999983,397.124040552212,379.1776483700203,347.5786197758468,{}
231,231,42,0,7.707700000000011,67.20319133152279,194.28447523051213,12.857060860842768,34.285495628913786,49.99968112549952,55.73224228914668,44.30846719073617,158.62832140005645,124.35879085696908,90.73886102908295,59.04393672560048,61.09974199817634,15.773770602448508,98.53504903886994,58.265451640764695,5.487186131948988,28.606938121947053,28.606938121946914,29.30656229563692,66.79855514347867,64.47065799659129,72.87068237845489,400.0,405.7217584487665,392.87801319347386,365.7370639600016,{}
232,232,42,0,7.741066666666677,67.39703122234856,194.9770692934433,12.982297467334124,34.40771811060769,50.17792224463611,58.797332769484136,43.03353525334092,157.76067995794332,123.36931724932178,89.63634140746137,57.82084455672339,59.883978456687714,15.83000165156534,98.88631122733852,58.45798884935925,5.506747100640382,28.708917425637345,28.70891742563733,29.41103565114713,62.75112777355002,61.83333659011009,73.13045507474041,400.0,405.76486804459927,392.8633047373266,365.6522753737021,{}
233,233,42,0,7.774433333333344,62.915624781646784,192.8427569613825,14.284256782850209,35.71064195712529,50.01530065828649,55.72691159377544,42.94789315227391,155.80320224249076,120.1237204835568,88.56239205367092,59.99387848797062,58.56545280968555,16.426895300277693,96.41873328423844,56.42281429225807,6.42791555228257,27.1776520408774,28.60420191636162,28.5685135657003,64.27915552282559,65.70758120111066,72.86371242007344,400.0,405.735758610379,391.4824627868524,365.77739603244464,{}
234,234,42,0,7.807800000000011,65.77259308556134,194.27456364224275,12.85640494691316,35.712235963647586,48.568640910560745,55.72939906125497,42.87848470398068,157.1922655817846,121.49720465118943,88.58035660533824,58.0859806508272,59.12486720639163,15.743714639841528,98.54908421571815,58.4144521353071,5.606931851355512,28.60547871459084,28.712282366942148,29.295073092572693,63.39499650463097,65.08318715742337,72.85296136584107,400.0,404.3256020086328,392.8995215728996,364.36562742533147,{}
235,235,42,0,7.841166666666678,67.42890261369948,192.07563431024823,14.33360343471793,34.40064824332308,50.16761202151287,55.91942679060295,43.0246930109682,159.16109672074188,124.77646718421056,91.01838181045888,60.201134425815326,58.76777408234352,16.483643949925636,99.61854387128972,59.484454254079424,5.016761202151315,28.70301850971905,28.70301850971905,29.383887041171874,64.50121545623074,65.93457579970243,77.45452777451891,400.0,404.29909759278695,392.8688786377691,365.6445766644656,{}
236,236,42,0,7.874533333333344,68.82506393375292,193.5284984977368,12.98129695631449,34.40506639959767,50.17405516607994,55.92660865428761,44.462993105343166,160.61456397133807,126.22519509470769,91.74684373226046,60.208866199295926,60.208866199295926,15.768988766482266,100.34811033215976,60.20886619929581,5.734177733266279,28.8138865043634,28.706704905987667,29.38766088298962,61.64241063261238,63.07595506592895,74.55809333937097,399.99999999999983,404.3510226780992,391.45213829735513,364.22186165755153,{}
237,237,42,0,7.907900000000011,65.70928088762327,194.2302788343689,14.281252091544616,35.7031302288616,49.98438232040621,55.71518944614839,42.93885906928964,158.57978461508614,122.8934727494972,89.97188817673111,58.553133575332936,59.98125878448741,16.423439905276382,99.25470203623502,59.26719617991012,4.998438232040712,28.704961446779187,28.7049614467792,29.27656678766641,65.6937596211053,67.12188483025977,74.27624157983345,400.00000000000006,402.9363598692156,391.517341901901,362.9714445743807,{}
238,238,42,0,7.941266666666678,59.998257866247,194.2250284450068,14.281252091544616,35.70313022886148,48.55625711125174,55.770072259763765,42.86755175343292,152.83608897752646,117.14109429408286,87.11563775842217,57.12500836617846,57.12500836617846,14.281252091544616,95.68438901334888,55.69688315702399,2.856250418308946,28.7049614467792,30.02461311917154,30.704691996820884,62.83750920279624,62.83750920279624,75.70410776564995,400.00000000000006,402.85536458267165,388.61803530084416,361.4539481690491,{}
