,video_id,frame_seq,gap,time_seconds,m1,m3,m4,m5,m6,m7,m8,m9,m10,m11,m12,m13,m14,m15,m16,m17,e1,e2,e3,b1,b2,b3,m_0_16,m_1_15,m_2_14,m_3_13
0,42,0,0,0.0,6.528625492373687,133.09062609402048,15.36442559194745,23.082176787424146,32.41634884022486,35.15772424049222,51.230754083210826,83.23382036443485,60.17733356846105,63.38098088079539,78.81928718020686,61.698576325789986,19.037324860235117,12.971300084183326,8.903862621733879,7.428343081613093,28.16811358523707,27.009409410820304,27.543031415587393,85.29127500433458,82.83207577079986,65.41168492395042,400.00000000000006,408.20478627887695,401.8420699482918,373.13909857484236
1,42,1,0,0.0333666666666666,25.335217027914528,157.44027724489678,12.796216973765022,30.81737138806793,38.045888247519386,39.85359127788682,48.894276403882536,117.75301073579251,86.93897097182258,74.23029576599265,76.88687792774226,75.21207613011757,27.17221537180967,41.62941249843334,9.249911077686647,14.697829568810903,29.179864255446986,28.954533746188062,29.857673426622114,65.87553737324333,64.48949450624355,59.74613862589723,399.99999999999983,403.5903302049679,390.89039457507045,367.36510416431776
2,42,2,0,0.0667333333333332,21.816153551082763,156.35966993400544,14.657287750440886,27.330725180793223,36.40567786737221,39.99628151031836,47.30328155845024,111.03281525075826,83.70759532695168,72.73873192387873,76.78832279136759,74.14310310357769,28.188422891156506,35.460372287407836,6.4687645092317325,15.549082273862496,29.144962261400305,29.08820473477698,29.996791259536394,68.54485634614628,66.02468340723374,67.36467273276648,400.00000000000006,405.45353818809195,390.87697903743623,365.4250943725435
3,42,3,0,0.1000999999999998,4.065536141785408,159.99834713305063,19.99979339163133,30.908771605248376,38.18142374765978,40.040887348506566,51.038268557403626,105.59442621399025,74.74397255040057,72.7265214241138,74.54468445971679,74.54468445971679,23.636119462837087,30.908771605248376,1.8181630356027654,5.4544891068085235,27.332983778419685,27.272445534042618,28.181527051844,69.09019535290815,65.45386928170251,65.47911667677133,399.9999999999999,407.26851997503786,392.727424378394,369.12739813372576
4,42,4,0,0.1334666666666664,1.8181630356028369,158.18018409744784,18.181630356028595,29.147370786682828,38.22468883094279,41.81774981886548,51.03826855740359,100.1476152692355,71.00153629781305,70.03351423728327,73.61728836033285,71.96104215207083,21.845316367593114,27.261431841736794,3.4552722620637724,5.673119196115522,29.147370786682714,27.272445534042667,29.079495208277194,68.00128110243281,70.19057206737682,61.924401619052965,400.00000000000006,407.2725783544502,394.5581356329702,369.12739813372576
5,42,5,0,0.166833333333333,1.8017286871142915,158.55212446605447,18.017286871142687,30.629387680942273,37.83630242939944,43.2414884907422,50.73714049631257,101.041484519464,70.47500394334722,69.36655445389874,72.0691474845703,72.0691474845703,21.62074424537127,28.82765899382798,3.603457374228583,5.405186061342874,27.0859213468054,27.025930306713917,27.926794650271063,66.66396142322753,66.66396142322753,57.683463128696786,400.0,405.39295842246247,392.77685379090775,367.5703157536127
6,42,6,0,0.2001999999999996,12.79713376301974,155.64176909361956,14.478304101731972,28.95660820346417,38.17751995196518,41.62512429247962,48.99815132392997,105.10802553435101,76.20475569263373,69.69980187747956,72.83097857949042,72.00748868232563,23.536490316643267,32.575728257615765,1.9055173201836624,9.163718971939943,29.013108956123663,27.14682019074776,28.046533823209074,68.22518043371952,67.52617156752126,59.83258800614254,399.99999999999994,403.5989577920248,390.91840004842135,367.38696658145096
7,42,7,0,0.2335666666666662,23.486665065179416,156.75841810492412,14.410759847821605,30.675799659391934,37.99941400231934,41.47007574699641,45.3567076789416,113.84158247113187,83.17455653463021,71.2158560026985,69.34313392781996,71.28733394448773,25.226948255489106,43.25845037085969,11.026663820023032,11.026663820023032,27.259295966202817,27.080152978732638,27.90975367064607,67.37987312667497,65.988435859844,61.35159931878387,399.99999999999994,403.60178470433004,390.9582642635299,367.49203594002495
8,42,8,0,0.2669333333333328,26.955798836750564,159.62379160947341,12.55151146548968,32.32508440956961,36.040322595784225,39.48833809587583,44.97004372594882,116.77022669954981,84.4459368256275,70.90571489051308,68.15950108087509,68.35021037321098,23.361888311156008,48.42108932410247,14.741828297570464,11.194635460121162,27.134119185865767,28.689169063976802,28.6636066380961,67.7780824962033,66.82453603452348,59.27998268243752,400.0000000000001,401.74841431610633,389.13403719650734,362.2007594327046
9,42,9,0,0.3002999999999994,34.25937995200165,162.21695034830108,14.40506427029314,32.46137365805999,36.192276057674306,41.45368549179581,45.15964674094245,126.24993128211824,93.78861232352504,76.61918643715512,68.88583909259705,71.80013008697483,25.24766479116215,55.84772023212895,22.076230473750684,9.52382677901278,28.866343478997273,27.009495506799464,27.900050549117054,67.53345568997725,65.90488131076609,63.25324247654593,400.00000000000006,403.53869574764815,389.08675911652693,363.7679837253774
10,42,10,0,0.333666666666666,39.622725125392186,160.4900644129382,14.50541473826177,32.43509339658051,37.953643839334006,41.537186534208615,43.51624421478509,129.9896348604691,97.57105133735028,77.63771734458555,68.4406485375032,72.45426077802927,27.077616229331852,59.43379832001892,24.167271808476244,11.66039954238181,27.226462238315115,26.987629007500292,26.96348507557275,65.84416478948492,65.68247898832624,57.82606407295748,399.99999999999983,401.7965642967631,385.53181698141736,360.1992021678737
11,42,11,0,0.3670333333333326,39.50997375740127,154.07353466617676,14.3082598009866,32.24322773444833,37.72913389522721,42.96202433786525,47.048943695719146,132.94223365997516,100.73106358526368,80.82080691201031,72.0126764187628,73.55075560467708,25.98971692720147,60.018524754693544,25.063048100905462,12.557795589342504,27.065407570119888,26.827987126849845,27.690201989889147,61.45629442848258,60.539178889055506,59.26496063610179,399.9999999999999,403.43600010630496,387.25342157751373,362.03096012662706
12,42,12,0,0.4003999999999992,37.58859299757098,154.01965660947485,14.414567404585341,30.604038889856618,35.93648679339656,41.16071116499041,47.03249112544703,129.52149486980434,98.91828992776233,80.00040360330581,72.83725110598266,72.7802876666401,25.984822246751264,56.53621354746156,23.563876074693326,12.645883534042014,28.82913480917034,26.818605633689884,26.7728164909895,62.080654976801384,63.48575314725031,61.208077779712895,400.0000000000001,403.4256840862572,385.3344111743186,360.23997666661575
13,42,13,0,0.4337666666666658,30.457136712468703,153.39390834514634,14.234599403262251,32.22494497091064,35.763988379817384,40.96313599804185,48.8585906611502,125.57799171938558,93.35946799633459,77.89590550038088,72.64363775179572,74.2670659649948,24.972145750091386,51.82555831194895,17.14149201583723,11.81282764545449,26.926072059449098,26.749118957081787,26.695844529399892,59.94269937794434,59.58936500213042,55.41675986984589,399.99999999999994,403.5460289374184,385.5226816840774,358.6388180999805
14,42,14,0,0.4671333333333324,32.20751006894981,154.0168799378531,14.403636380036316,32.35581865103267,37.898474382879705,41.24573766997121,49.05701779798976,127.86016419628973,95.50950252259678,79.18832995544017,73.32744517550441,74.23787387918401,25.074723880501097,53.82909710503941,19.081068247945723,10.16645385775223,27.328978529866166,26.857753918013337,27.69220640357912,65.05771778375083,63.995550962791526,62.75857163091003,400.0000000000001,403.40468863851333,387.23265776713254,361.74904985682184
15,42,15,0,0.5004999999999991,33.69168797069328,151.02718686049406,16.03523802139345,33.83100636503062,35.592555194890444,38.997732317644626,48.33331925413874,131.8024147393067,97.97158843821677,81.02797552145239,74.33517754334616,77.11757670278371,27.560791673886115,55.94878309787509,19.852794002471683,12.671196172032296,26.797003057365302,26.620898172305264,27.44799170796307,66.2511799855215,65.42398023541841,60.62228339882952,400.0000000000001,403.37624605865227,387.49689825061324,360.5863807350225
16,42,16,0,0.5338666666666656,37.40816432355986,148.20826058439326,17.88199418990845,33.99395496871158,33.99395496871146,39.18556669535463,46.80673087925304,135.97581987484585,101.98186490613429,83.23689924189807,75.41249857611592,76.86600605805847,29.47599913056456,59.773135604823665,23.567585600070288,12.921115212854147,28.690752333219724,28.524748515554183,27.569450355548724,65.48334356959856,64.84153507107851,60.91427342493728,400.00000000000006,403.6989860794508,389.2128383746004,358.92119701728717
17,42,17,0,0.5672333333333321,44.76898306352572,143.7053435964888,16.164371863158372,35.87918663649521,36.10052856713263,39.43318149831296,49.01596752885642,145.68727613234296,109.82086209522883,87.26410946204442,79.21566186626137,84.63179366012969,33.197479142136444,63.59220476856444,25.48990697393924,16.589270809190793,27.012802782194218,26.835279701761603,27.724534777003782,65.56170723906212,67.09564666319966,64.65748745263383,399.99999999999994,405.1605845551609,387.221453005095,360.232135938882
18,42,18,0,0.6005999999999987,53.45594430286158,144.89761136268578,16.099734595854095,33.96708067949879,35.95617161131782,39.27549809961677,48.81996497322539,152.16529246613928,118.20148295320746,91.34768456058691,80.6719072611254,85.93434872146076,34.77172341264554,68.72295864061493,32.54603132547845,18.229927137684626,28.668070548277637,26.727972151430674,27.61367131874863,70.61856927417648,70.37336590864129,66.16627372679027,400.00000000000006,403.5404490357094,389.3803354775349,358.9546080119813
19,42,19,0,0.6339666666666652,50.740522022301725,147.28773150433767,15.80641945681534,33.348246938300925,35.08465893675568,42.037857460020476,45.91764686317387,145.72798689272776,112.3799524319417,86.94594642661423,77.65337029900365,80.57309210344943,33.333490600753294,66.53596804361496,29.421812029413104,17.106575187584667,28.145777522341355,26.182905335928815,27.04485902194756,65.76860526167741,67.43434398344436,63.22567782726113,399.99999999999994,401.5660695444721,385.76147194935226,359.53195971612746
20,42,20,0,0.6673333333333318,42.08958651030479,148.92200711382452,15.825869807434783,31.65173961487002,35.34453858891829,40.348209483844904,47.70224282649685,137.22309263870002,105.57171924669832,84.3877263970669,76.87975560245627,77.83107612549998,29.817369727168852,59.69069948510469,25.704307465773354,13.383774025175853,28.180411883574585,27.962799268750068,27.961362040053814,68.72824445402148,68.2059508335268,63.13437976545718,400.0,403.3344524251972,389.2570810370012,359.3629400249958
21,42,21,0,0.7006999999999983,31.506658302808102,157.44601813172198,15.825869807434819,33.38928311966205,36.86724354918724,41.98059300880357,47.702242826496835,128.3440892815578,94.95521884460977,79.09640410616112,77.04770480484672,74.05771122995498,28.017347201762504,52.65710906892468,18.7705152201529,13.427285961319058,28.45008704129566,27.962799268750224,27.906606698988753,67.05337442951429,66.49967191564542,63.13437976545714,400.0,403.33445242519736,390.8623362684821,364.338883782389
22,42,22,0,0.7340666666666649,22.79703598502223,154.60730581714125,17.418711256846304,32.97688414354215,35.05233770772229,38.17035530005172,45.36287996676889,118.482231117229,85.56242756005547,74.04390789389186,70.73610444846008,72.05922582663266,26.10620257702135,46.97080892512872,13.282103065502497,7.989617552811524,27.947438374410535,27.73162480974632,27.683770374073674,65.24006180066624,65.24006180066624,57.6151201915678,399.99999999999994,399.8610374265012,387.5031002104207,363.0561485452202
23,42,23,0,0.7674333333333314,24.5389232530241,157.59196621482695,17.57045775634494,31.66352859187562,35.14091551268987,38.621781298109816,45.991273618164996,119.70607490470015,88.0434422421423,75.58423079758154,71.00959232292553,71.3363522139723,25.4079155281147,48.29044389828209,14.214055260538544,8.789841069160275,28.460683533811416,27.973214266522984,27.93330268606269,64.7918183961483,63.40075485997727,56.19174900654165,399.99999999999994,405.2270943484379,390.87890902513533,366.2189829737184
24,42,24,0,0.800799999999998,26.169114325872513,153.43250150378066,17.49425658023073,33.256859614407944,34.98851316046169,40.07492698353777,47.28931093628301,124.19202146178837,90.93615197194433,77.78634621988886,74.34269176027465,74.1780548936797,27.037032091950095,49.830091622782675,14.241088960475963,10.564198939851849,28.068647012560355,27.851897459848818,27.855643178631567,62.14127064706042,65.42486148637363,55.948051464816515,399.99999999999994,403.3307033008311,389.1837094464467,364.6307308288454
25,42,25,0,0.8341666666666645,28.210316106737995,150.62219906172652,15.84266375439469,33.28706958546837,35.165108454272875,38.52939129859224,47.52799126318383,124.81884794105198,91.5791398288786,77.33396651324165,75.97512201438371,75.0137626410417,28.04581094922014,49.195717162738674,13.338861305117007,11.406898718305001,28.21031610673788,28.047092078421308,28.873134640701778,64.70688089800285,65.22453594518674,57.97255598910585,399.9999999999999,405.23424756684545,389.5326626767319,366.47110829066986
26,42,26,0,0.867533333333331,22.696519613713004,149.95675045343162,17.494256580230847,34.8583632494194,33.25685961440818,38.33590094762158,45.79181443563881,120.7278157039244,85.93351363894413,74.41451870552783,72.65363853492931,72.59817774215458,27.03713647769314,47.9920726810883,12.413974116082727,8.836752982110966,28.0686470125605,27.906242677300348,28.72406892459196,65.55465705976076,65.48995280152349,57.54994142252844,399.99999999999994,403.3307033008311,389.31215741453667,366.3676005622144
27,42,27,0,0.9008999999999976,26.11569850682365,143.49890684068862,17.343813384044754,32.83508843675568,32.97086470901946,36.28231919645958,47.10446130013053,123.30530968654654,90.54969895225086,77.27246279956421,75.2963145705919,75.49899644023003,28.476802684167296,47.731580299796406,12.363594047930292,10.438116286367404,27.82726853786941,27.612382939498065,28.476802684167183,59.68981060845033,61.41260650037498,55.33252162219917,400.0,401.5828108317747,385.96423776976906,361.7421414019777
28,42,28,0,0.934266666666664,27.78573534863299,138.92867674316497,19.144112976052064,33.11324675479293,31.390067894822437,36.439001493942065,47.59277260157585,127.48349631122564,94.3773289914407,80.21230688025025,76.90637666175849,78.23424337001688,30.380674514810835,49.602689829532665,13.896811929533214,12.166006358078675,29.668059639800834,27.7316248097463,28.55829192899421,67.65709821113023,66.53070093446945,64.3398348767298,399.99999999999994,405.0450696166979,387.63099350256647,363.05614854522014
29,42,29,0,0.9676333333333308,33.25685961440789,136.1791176822781,19.227141403607,33.11990559559489,31.52620729085536,36.721026285332165,47.513053433573084,133.02743845763223,99.96779906533793,83.18096831894286,81.40235984668288,83.22233130666996,34.96551229186775,50.60072165266388,15.000976882315626,16.738222366848277,28.06864701256053,29.592641051089533,29.533173237058804,66.89773881709118,67.86287519738721,64.50153849220246,399.9999999999999,405.2045783926504,389.44834381407577,363.0149539944672
30,42,30,0,1.0009999999999972,20.963897026573427,133.18446625094236,21.036562398795407,36.85282435379551,31.63936026197931,36.72839127703194,49.68954643860405,128.29389245850894,91.44628209142907,80.86429796139305,79.84034894545493,81.88824697733139,31.493350814533187,47.295374817255606,7.970197745681389,11.5678564503296,28.169390206170718,26.20487128321679,27.023951731451234,72.25759136796637,69.96062465653733,64.85080636594883,400.0,403.32428843356155,389.10483819569265,362.57543243580176
31,42,31,0,1.0343666666666638,12.2893809556917,134.23019739947568,20.928061649253234,34.932984197386766,31.476173224174048,36.53895642985989,51.145090435228454,119.21332983435389,84.30551164627347,77.96335801987357,80.3064313568234,80.81998167725055,29.657531004678276,38.4520802419961,1.2196820110150384,9.885843668226016,29.749441370323765,27.861953721319704,27.86010488318243,72.41059518025315,70.86994421897111,66.40815778806265,399.99999999999994,404.86003520068465,390.70568781529335,364.3008670961928
32,42,32,0,1.0677333333333303,10.516773373325798,138.70421891792935,19.09684260493893,32.89545809086643,31.312559986228884,36.47217464845087,50.61416357516754,113.0313493732999,80.20524815072952,74.86551079053902,76.98776215256817,76.32770989310347,26.12706860381286,36.33037644803858,2.9610677750988543,8.268988028294643,28.14521627984972,25.934203384420577,26.78253716703125,73.0274485957799,70.84560918254908,62.62511997245745,400.00000000000006,402.91511328075296,388.67479853876546,365.6099303971986
33,42,33,0,1.1010999999999969,19.087751119377014,143.80855988560455,20.809366035457966,34.73485825192184,34.73485825192162,39.89683575623146,50.590067553281074,125.19061172408054,90.45865577026262,80.85914188498441,78.81120509408493,77.73913080086209,27.768556800095666,46.85514443071793,10.05642339155429,8.333774099879975,27.865158797495205,25.979397081516872,26.838509443154862,73.13012764281973,71.08677236599351,69.66289699373756,399.99999999999994,404.7832566250239,387.0765832751887,362.5148995717659
34,42,34,0,1.1344666666666634,29.45639079699433,143.94295792608213,20.82881368183555,34.767320136589866,34.767320136590094,41.54975244621408,48.924402169913805,133.90681268239717,99.13984166595276,84.38322820955977,80.74669215335712,79.6736159400516,31.380600545514653,53.65839646106474,16.962858602639017,11.927654832512644,27.891200520901187,27.729822885628106,27.65693436942854,71.47421307940851,69.29137428653041,68.01195813420063,399.99999999999994,404.9879741198361,388.85282891110995,362.5732288087257
35,42,35,0,1.16783333333333,19.25624506075503,148.4805092011141,19.023766779155462,34.48964975290747,36.33261051548414,41.371808363241065,50.42048382003086,123.05930867520526,88.66241055489539,78.9397103000963,77.2411001525004,75.76166550782023,26.16407566054795,46.492603555968344,11.671095530254888,8.511315363221684,26.063596222981218,27.557294686235405,27.538488710081083,67.73436271353705,67.14076239314079,62.38547918725218,400.0,401.53957749758496,387.18749865091985,361.02044553295315
36,42,36,0,1.2011999999999965,12.173190497470824,149.93299235613833,19.015131427524175,32.89014956305744,37.91318634473762,39.595629527411155,52.10353064220186,116.163112823284,83.27743590159889,77.11932094483518,78.92213397514888,73.87425749027057,24.367642452771406,39.67557891776346,6.585972665170857,6.859817682434141,27.75914530053312,25.823236648311656,26.667940597778966,70.86196230037933,68.96330351402366,69.20541772008065,399.99999999999994,401.35730889190967,385.446349353943,360.99205936011066
37,42,37,0,1.234566666666663,13.832634754888241,147.7120538256765,18.95082611553492,32.77892175813378,36.0710983057425,39.49900595807313,53.43601936093923,118.99282346174593,86.21422381860546,79.28867849470885,80.29547507326447,75.27528391444116,24.356202160663997,41.182117583092804,6.509698425726583,8.633625454459661,27.66526950977614,25.79303520876645,26.645629996830394,72.37901978435082,68.82075242452572,67.46103131201765,399.99999999999994,401.5424788217422,387.13892564898964,362.70488827642606
38,42,38,0,1.2679333333333296,17.412337391441792,149.16402445418808,20.863174375634618,36.549075184065934,36.549075184065934,39.88727079510685,52.237012174324924,127.05939578120619,90.51033131663436,81.77490316732224,80.15156868069244,76.84088088260819,26.28430036379632,48.51712367082064,9.831462383813687,6.61223004976523,29.909180855335112,26.046573959148354,26.910770292439338,69.0397298003819,69.71650023424445,64.47944245309444,400.0000000000001,404.8968552787663,388.8579516566482,362.61298944269817
39,42,39,0,1.301299999999996,22.370345523469894,151.1398865989432,18.950826115535037,34.357410014573524,37.784971649735745,41.213181147494616,50.0216132706373,125.67042810868887,91.33729683885551,80.12467010573732,77.83643986511197,74.2118831639616,26.030907217353842,49.636290379645516,14.882649485027514,10.104824742601295,27.665269509776223,27.505199104440557,27.50452749231681,71.59414776868607,69.3516821328733,64.05892086574207,399.99999999999994,399.52504320910055,383.471741833854,359.0832951205307
40,42,40,0,1.334666666666663,22.49317607210774,152.05786306651453,19.054880850248864,36.39203383788484,36.26915661423843,41.43947347928404,48.58060464230233,126.51345642547842,90.12143326102898,78.84277042570488,78.2339989617501,76.3664895084155,28.754152906489253,49.168594479705234,12.376827357393722,10.893805144451562,28.083372409338377,25.93465897860908,26.73559489442914,75.70736852488562,73.01595784213885,69.35008542402383,399.9999999999999,401.574253768105,385.5772991390364,360.9683802454
41,42,41,0,1.3680333333333292,20.953591770406465,153.28700470612296,19.220044670704855,36.58353026570316,36.58353026570305,40.060135338388406,49.21749103615819,125.87800309843163,89.35719805092182,78.75516458610491,78.47805281768092,75.66998689765069,28.006762728720332,48.73472300683693,11.527849566439045,10.012971899054264,28.326793353025113,27.841617331724457,28.653356855043057,71.9382150828742,67.65221973124937,61.299984982184654,399.99999999999994,405.05501748792403,389.04006184029083,362.4468070897702
42,42,42,0,1.4013999999999958,22.58155659021671,152.56688363137732,19.129751568223824,34.68179772741448,36.411665917623246,41.56623191609225,48.77148826827762,125.1309282254101,90.4755397215313,79.13906424379047,77.99904984250884,75.2041758264645,27.875190844234794,48.50577404161686,13.202102260000174,9.965932346685577,26.208801154271875,26.036561821949995,26.84550041727084,69.76152642679858,67.44472296612992,62.73303979022592,400.00000000000017,403.2971847917876,387.21240562123546,362.5687564933956
43,42,43,0,1.4347666666666623,22.562952499767263,150.7124955096854,19.035494073582313,34.782608695652115,36.50492612612082,41.56802350771097,47.233443099923264,123.46116183378919,88.67860023639633,77.37208047877061,78.74630578260644,74.52775368710991,29.529864668477558,46.78757778641875,11.696894446604574,11.824729358589593,28.17049027108796,26.015111283356838,26.877290244793926,72.09889035939955,70.30920159161303,62.681356411280305,400.00000000000006,401.3938170771063,385.4316086410655,358.9191049251764
44,42,44,0,1.4681333333333288,26.10393831729825,147.849826175547,19.17925486387275,33.03741815546981,34.90137182257207,39.97511757645719,47.39471885260813,125.61085806735764,92.61747789170384,79.51722565334558,79.35987577136348,76.21287813172466,30.49810947826495,47.80659649627842,12.70831693889454,12.70831693889454,27.998740085043572,26.10393831729837,26.101568658181122,71.70526680671253,71.19619365912376,64.6214504513822,400.0,401.3657759595784,387.2034434433722,362.37718968412173
45,42,45,0,1.5014999999999954,29.750191850084757,148.6586023974462,19.296150915469862,35.114092941841385,35.11409294184149,38.47349507852732,44.23028996411812,128.2938924585089,93.18197414306,78.22655168671122,77.38858010443118,73.83672328408511,31.552486794146944,52.587477990245134,17.106999404160433,13.498008157749837,19.918766836673232,19.296150915470086,19.292391201129362,69.74208941612585,66.92345773027478,63.27872052395871,400.0,401.58389319211994,387.0956132911866,362.13745786396294
46,42,46,0,1.534866666666662,31.467935909770475,145.14138536956295,17.542329468377673,33.21091658024743,34.95415138364442,40.18504983863272,44.193214406395555,126.27051270220525,93.10386537045507,77.27667059077953,76.95197869754111,75.85983323846585,32.395395711757146,49.81068816728043,16.042731270469403,16.042731270469403,14.393984571411181,14.39398457141107,14.10933863345781,65.0269309822337,64.79079142351463,54.364130162587,399.99999999999994,401.4029061083161,383.5594563177446,362.4018459883164
47,42,47,0,1.5682333333333285,26.20487128321673,139.93390360168456,21.036562398795333,35.11409294184145,33.238778623577865,38.47349507852738,44.23028996411813,126.3764463787946,91.26253743541838,78.12916768752325,78.03229333205218,76.48230364451297,33.23759136216904,49.03779873952158,11.634610092090952,13.271786699554696,14.40606029418893,15.819680130989683,14.928338178111972,65.7389376227568,65.68081300947415,52.67113941276217,399.9999999999999,401.4356686813617,385.48386009025205,362.4533581228031
48,42,48,0,1.601599999999995,14.057550585814246,142.3760805722539,21.159415615655366,33.57114085522058,33.386682641309235,36.901070287762906,47.7362004950246,116.45304092826966,82.88666686844036,75.84412186187251,76.8450812378776,71.85935025072831,26.677950607145704,42.04506026543345,7.802716659620728,8.327028713718619,19.64602419188942,19.32913205549488,19.29468359080306,66.25397774509963,64.07093301076486,52.832831077629386,399.99999999999994,403.37837669657955,387.3646002327149,364.1633170101909
49,42,49,0,1.6349666666666616,14.242182297397045,141.36618033249894,17.753359558912564,31.84648776492413,33.61043608222111,37.09703132580424,55.018117840262086,118.83083636187806,87.00921697356168,79.80471188992533,78.42746745305408,74.40893231533437,21.45105376332026,42.336116662173254,7.8106739296524665,6.42399631170656,23.235012668373685,22.96482891597414,23.8140656224723,70.38096399654023,67.49441058775574,63.98626783556301,400.0,403.3252329866537,388.9606315722595,362.2927630867781
50,42,50,0,1.668333333333328,28.221474211230714,146.2833765028209,15.843664746623038,33.49403115471334,35.20814388138419,38.76894687931779,53.27958967428761,130.69763804669802,97.22166497874024,83.00112321715051,75.70390994963759,76.52718529263893,23.051709604042117,54.485859064098804,19.983137871036206,9.729617690017903,24.70849241292028,24.64570071696906,25.502824829796396,69.45450166412616,67.80795097812324,61.84017565741875,400.0,401.6198389420796,387.3895929183774,359.1403260694811
51,42,51,0,1.7016999999999949,40.50937833183601,156.79325564111832,15.94904445657788,31.751878415783658,40.54764889146418,44.031932969386965,49.598019621260384,137.66159748202702,105.91121575063097,85.64500741340885,75.98565454741265,72.80507854282746,24.89882872228509,63.23512056453433,28.869843733927382,11.64956536590671,24.72070519515355,24.65788246285678,25.515182948025995,67.70486494967611,67.78955484328935,63.625762240549854,399.99999999999994,401.7102528250751,385.7840663442799,361.0790331334664
52,42,52,0,1.7350666666666612,50.65309005838219,160.7020539921865,15.719924500877129,31.488329907964275,38.42648211325552,45.5472753847658,43.97973167893213,141.65172492282062,110.16416216541455,84.80561239487497,71.83006888084333,66.64732210121929,25.47016548004399,72.35768184129188,39.58964859858793,11.910979310649282,24.51551717820813,24.45321589025345,25.302076395299764,71.02697658706381,72.05418766050275,66.39599292746009,400.00000000000006,398.24191772809627,380.8355967342313,354.72647270212934
53,42,53,0,1.7684333333333278,56.414644115145016,174.48324079870739,12.33468207589643,29.955656470034832,44.052435985345674,49.370184301875604,40.681178408841774,139.3060341924555,109.37786064014328,81.11698409870041,65.04704032297286,58.70999794987392,21.298714164293415,77.39432691988463,46.05012181886309,11.068511230143258,24.732216136848386,26.490133054279944,26.399607016182358,61.665389908628754,61.55172098713808,65.2214130390057,400.0,401.77367288410375,386.04414199065593,359.74417889385074
54,42,54,0,1.8017999999999943,56.66481626046752,178.79610626442147,14.159292035398254,30.08849557522123,44.247787610619596,49.68378353139191,39.298412940131946,140.0021256677174,109.96265180183401,81.44789132499386,62.50443022604827,58.00872999022545,21.290689853648473,79.60228807028761,47.86737672141726,9.024526683909244,26.60760420950952,26.60760420950948,26.53882833946693,63.11963131095035,64.2459225279249,65.48672566371685,400.0,401.80499632393185,384.2175813467683,357.80239605749034
55,42,55,0,1.8351666666666608,58.69301683152521,183.11793233372828,12.444321538171973,30.221923735560406,44.44400549347142,49.90410746944713,39.4726827014681,140.62296847538596,110.45028383711744,80.95031533789438,59.80957182816337,56.06311095302112,18.770533568314704,82.57505602354263,50.825711566342534,8.35307858386318,25.141326134020574,24.952053734723634,25.75691851660281,64.58822090359979,65.06608581114335,64.02405426365212,400.0,401.8367342987459,385.97463035889524,359.46381979755915
56,42,56,0,1.868533333333328,54.89096027416458,182.31918658819066,12.388289121202265,28.31608941989037,44.24388971857893,49.679406769640984,37.542185335292174,132.92030903654322,104.6552714824967,76.94995414376126,56.05096505235201,53.49151680942509,17.635454714740263,77.92045124702736,47.711350238502746,6.893383836433486,26.781261718788958,26.605260282857834,26.555464855052605,60.77975976140317,61.40772847528103,70.79022354972626,399.9999999999999,400.10569221242645,389.6718892433948,361.55461313519197
57,42,57,0,1.901899999999994,53.57502891502152,178.56459917254205,14.278743944101329,30.342330881214842,41.09017145430715,46.54301093182841,36.09621565302765,134.0534725370938,103.76678680005168,76.71336068674168,56.53528184924926,52.14559699576671,18.673044030583924,79.48223882509251,49.024579303235896,7.858018270684852,25.051465194917164,26.832073702821088,26.78672526526293,66.66532381882485,69.09653389152288,66.03919074146759,400.00000000000006,402.1604176112815,390.14234616838,363.9066826378595
58,42,58,0,1.9352666666666605,51.803589453255334,176.7777517068703,14.282156713829956,28.56431342765991,44.66743085176081,51.895794075821975,37.87128698369316,132.30281094590384,103.79158815164372,77.58714257719134,55.98664277505918,54.32692154835968,17.726208682830475,76.86825169702206,44.48438869235156,6.7836280370329405,25.05745275813814,27.016031146812065,27.70865989806657,65.5203902865652,66.79412983263705,62.509934271536586,399.99999999999994,400.2986873110714,388.09806385652064,361.61736157560864
59,42,59,0,1.968633333333327,53.58196381406907,175.0192032344921,12.495518195979557,28.561184447953565,44.626850699927346,50.01393894768101,37.867138503502034,132.28831828842743,103.78021865824238,76.68615869832001,57.78477660345243,54.32097049214167,18.626400272660476,75.95769808159594,45.362352179183745,9.469988017413243,25.054707925451176,27.013071768375784,26.813139786440843,63.708946387142305,64.98254640578602,62.477590979898245,399.99999999999994,400.25483796484883,386.1705563065542,359.93484810131747
60,42,60,0,2.0019999999999936,57.15025387140024,169.66656772791924,10.710444167982697,26.776110419956517,42.87894958709898,46.44624038860361,36.4085092078594,130.6157097526596,103.91829573430024,74.83300840780385,57.24992869102152,54.645027992238965,20.36646435233365,74.20107879383954,45.29632881771886,11.09494742074071,28.616913641332104,26.835546920216373,27.70842521075383,62.53691233151346,64.47611618505164,64.28745292203149,399.99999999999994,398.5555053925041,384.60371698533504,356.376070253566
61,42,61,0,2.0353666666666603,55.585265061454706,170.37968604224665,12.678941244840649,30.48224213047527,41.240680529466374,46.65436916045769,38.33152406262695,136.56814796092178,106.17051964853286,77.94935094599691,60.40448095815191,57.734190306155824,21.453905581290428,77.1540477734709,44.76351856514157,10.589582242663482,27.134119185865718,28.745147983672542,27.806690923043107,61.58056564964477,64.04841549408877,60.9908472824035,400.00000000000017,398.4658613993089,386.214785767588,357.83377643020964
62,42,62,0,2.068733333333327,57.41788702247462,166.79895577431446,10.760600899193605,28.750925902923484,39.455536630377196,44.87169141363673,38.044469327309876,134.80608543913817,106.05547413656254,77.11763977755527,60.97673842876452,59.183304945565624,22.417918539986886,74.42748955275692,43.93912033837455,13.450751123992177,26.96121708782771,26.9612170878277,26.901502247984467,59.18330494556574,60.976738428764634,62.770171911963644,399.99999999999994,400.19293768833006,384.30145302178175,353.96125736547816
63,42,63,0,2.102099999999994,59.190444639770334,165.02553286536178,14.46086730067351,28.698397401101015,41.25394626408242,44.877104598240585,36.27432306167176,138.29726516881658,109.64762052900258,79.77724720796732,62.2406797926285,61.343868118247656,25.949050839150686,76.27773208728559,43.87553637378551,13.286459915012074,28.921734601346934,28.754394327325404,28.70772153317,61.587566942807825,60.47630030281414,59.21761491645485,399.99999999999983,400.1286664957585,382.38830941124655,355.69030527700835
64,42,64,0,2.1354666666666606,59.21999648150377,163.22869955156943,12.68352970738223,28.699551569506504,41.29458092635458,46.636771300448444,40.10884264573609,140.3236392151242,111.73030674365889,81.71570624671176,62.06304996505014,60.308004114578125,21.648779858846865,78.8324166352213,46.7787220914322,9.305600251130045,28.92289775174354,28.75555074776923,28.67860636980413,59.76799000674055,60.21157302389281,57.39910313901347,399.9999999999999,398.2709114112022,378.5815845595615,353.5862354282091
65,42,65,0,2.1688333333333274,36.035670445908735,160.36885554417435,12.612484656068078,30.63031987902267,39.68016598616316,45.04458805738614,45.936646697272145,124.64904572349042,94.12486768785786,75.81035283245228,61.0202150050402,56.63257097372548,13.642376640412522,65.62578837565866,31.745040425241086,3.1527111085938486,27.265932300552667,27.086745700336017,27.894955430875598,59.48018100729405,60.99115775979976,57.65707271345423,399.99999999999994,400.01217390422465,382.04609250749246,353.31500153751443
66,42,66,0,2.202199999999994,14.412075171553303,158.53282688708782,14.524233090114826,30.67859955389491,39.67412899051718,41.47386087528683,51.240197202300266,110.61326375099439,79.99999999999987,72.3248146805854,62.09090181346642,57.830805634154785,9.294755300316183,50.230406768792136,18.299049497497663,1.026295897743239,27.261784023686996,27.082624685168984,27.864901827406243,58.227769141772455,60.193222606318386,57.64830068621367,399.99999999999994,401.73659540705216,385.56089118498386,358.61351217657517
67,42,67,0,2.235566666666661,16.210296808749078,156.6995358179068,14.521287894283958,28.87453633112375,39.66608394754878,41.465450886175496,49.161666206188414,108.60764447292003,79.76038730859571,71.39972748489458,62.617682639222494,57.5382062852716,11.239071242937143,48.28421775537299,18.32309190515275,1.021733749357736,25.47202399669559,27.01716134791498,26.973770983049803,57.703629844691704,57.15870517836743,61.34475721389551,399.99999999999994,399.87021414324147,383.64791915486416,356.6992958674628
68,42,68,0,2.268933333333328,18.096138028837274,156.74818246114216,14.405064270292918,30.663675635602697,37.81329370951902,43.25268973143543,51.56228315676262,114.35083081067889,83.78266367762035,74.262675906803,62.00063134500124,60.62953833690153,10.477678838494057,52.641219853539496,19.23906040089173,0.46189303464348086,27.248522250229914,27.069450065603178,27.80596068554462,61.815874131144255,63.5662056308463,64.92274731611955,400.0000000000001,399.8054159119491,385.3354692303376,356.54352843830014
69,42,69,0,2.3022999999999945,28.7266820243767,157.7297850852921,14.446930511361234,30.5153183091405,39.46297068276117,44.79802979013608,45.68520561408302,119.13244092860307,88.69557381552619,73.95007352706239,60.38567003696198,56.261391026705724,13.141275808623504,60.50239491461116,27.459527466872487,1.488242190021765,27.116688155741755,28.670739065687126,28.592731487379183,59.17951296792501,58.42080126320798,61.03063661828078,400.0000000000001,399.7952475212741,381.7170694246306,354.8003959378783
70,42,70,0,2.335666666666661,35.73007249177415,160.67390957829295,14.385282311290018,32.16646912357005,39.29457358898812,44.60686683679278,44.14051766303012,125.92732612846774,93.87387684317024,75.50382661191816,60.21516131695148,57.71628539290873,15.67124513605063,66.56889234862592,31.884881945537245,2.2857934809071594,28.770564622580398,28.60409901344379,28.42713502738502,60.621955072028186,61.73579511569062,55.42750983517875,400.0,397.9932550137911,381.90147615491753,353.29089106279145
71,42,71,0,2.369033333333328,39.462970682760954,164.94437465952825,16.22653652717767,32.30431868961999,39.462970682761295,46.589950981741666,40.86209012765769,128.24448344692337,96.04764449503469,75.87637609333933,57.59640785670308,54.066149440633126,15.886162872315026,72.08013930345578,37.35787159471283,2.5388844773108303,27.41112336844988,28.670739065687094,28.5805852588677,58.41852283030835,58.805400464946274,64.60863737923964,400.00000000000006,397.95176892121657,381.6960389922112,356.596819415613
72,42,72,0,2.4023999999999948,46.61457665010834,170.28149447924824,16.223118341000816,32.29751365298077,41.24443368419301,48.37168033441807,36.93361987174416,131.56568164136598,99.32974981138742,75.80336309830159,56.45496913780289,51.71816522041877,17.78718205711607,77.31624026783334,42.82457419186085,4.543464981980833,27.405349103385593,26.93280765878584,26.719440872754717,63.26049966400376,64.86521282785225,62.72961832376424,400.00000000000006,399.71102901991657,383.4280260406904,358.31322204920923
73,42,73,0,2.435766666666661,48.1782593509338,171.3316403983509,14.37627439571175,32.14632681200101,42.832910099587615,48.14524923445082,38.49307744424667,132.7225011862896,100.6339207699816,76.34080248208443,56.224132804394,53.12851640773101,16.7646975481789,77.89344758103562,43.57080078303329,5.47537150159792,27.27706281480573,26.747360685806065,27.589681135260093,61.148097635336285,62.918403262178,62.51231993042846,399.99999999999994,399.6819084983983,383.4451807980712,354.8527986983308
74,42,74,0,2.4691333333333283,48.06319908603467,172.42833027872172,14.312561475228552,30.231499271922544,42.6430827687979,47.9318786245357,38.32248342838037,130.57478496506053,100.42357454939155,76.13651681759711,57.21547117692012,53.933641795704034,17.761337604206346,74.82282265180243,42.67821815543357,6.741705224462976,25.417780050843785,26.62882145807551,27.4480275519893,61.43084146716262,63.548150745366456,65.7803159876817,399.9999999999999,399.684722802696,381.7829727672812,355.0908937599714
75,42,75,0,2.502499999999995,35.54944894279399,165.13686614879467,14.202038110973305,30.231499271922402,40.83085956904893,46.19075075912345,43.917377422943495,123.31313687045692,93.14591053403825,75.07483987814794,60.60604495587586,55.24013425622502,14.804164341000387,65.1574870671866,34.30350054419546,5.222180948767118,28.899053813438602,26.628821458075397,27.47633737722913,61.516333378137915,61.899612713827196,58.6908997884468,399.99999999999994,397.8511882157735,381.74582450857616,353.27569801046656
76,42,76,0,2.535866666666662,18.004791516500806,159.45745526666465,14.332349728716657,30.45624317352226,37.665049686728274,41.24443368419284,49.551650813013985,111.78141730970883,81.5890330309951,72.22659279333811,63.28950050431422,55.613944768797865,10.527305032717095,52.17251171861676,21.15127953313595,0.8603582625451054,25.336254208781508,26.873155741343442,27.66680165623154,59.7900657735122,61.18210610841675,61.017780265473334,400.00000000000017,397.9203712623882,383.4573229913168,358.31322204920906
77,42,77,0,2.5692333333333286,12.540806012626991,163.0403215137837,14.443887206458667,28.72063063150953,41.205505470059855,43.034356828036884,51.302004708014806,106.66833833527923,78.0504684603536,71.29175712666597,60.60839158207568,54.47597532560644,6.915895305008689,48.730462302983824,19.267781045562515,2.863083930465109,28.88777441291721,26.873155741343314,27.692598962573015,59.10914155091996,61.87549967292341,55.566743551938494,400.00000000000006,397.92037126238813,381.63665916530687,356.5217008395261
78,42,78,0,2.602599999999996,17.922629227488432,161.3136197563361,14.449685635919899,28.67620676398122,37.637521377725434,43.051632764833975,49.57154308632156,110.04552725422725,81.62178655821998,72.21308647847286,60.519244005949304,54.51351750154231,8.662105535202727,52.29024374750679,22.810211242700234,3.002863252203724,28.89937127184003,28.67620676398122,28.642695636403573,62.74251775998482,63.66647568373969,57.46432078272119,400.00000000000006,399.77508231814727,385.33652839099904,358.4705067309507
79,42,79,0,2.635966666666662,24.83314171059833,161.01493715153657,14.264456602995596,31.847185598612995,40.73207066725279,44.26757383907961,46.84438727520349,117.42795835335161,85.82415127964035,72.87547927313494,58.14553258374622,54.694844228866486,10.15611184781028,60.692924402514336,27.782342668856927,0.11948366879801142,28.528913205991078,26.59823221783337,27.352201461185132,63.527077026397365,66.81526759171197,61.95035349637037,399.99999999999994,394.5671115405709,376.8583629169222,350.3592503701378
80,42,80,0,2.669333333333329,33.92012219534618,164.25450447459406,12.623762327897595,30.40204560231518,41.09999243672961,44.63173973071855,45.515622362505795,122.03985913048793,91.67667889880858,74.39697434861614,56.88641404137388,53.346686345004855,10.218914153413834,66.62307646503768,33.415222354415164,0.091627828652463,25.2475246557953,25.057452758138147,25.814935093546524,57.137184940844236,60.281466218817854,55.37214444997079,400.00000000000017,396.33386966583856,382.05186326281046,353.5239506477602
81,42,81,0,2.702699999999996,41.10367712105778,164.269230170697,14.394593962743398,30.352303908701014,39.32000912548606,44.671435363019356,39.92342047858115,125.43834521687985,95.2322128820789,74.29028837050487,50.3952433481586,48.62952833136501,10.087732513976562,75.67005474974803,44.002969038728224,0.2363935404998756,27.0184531800211,26.84089296623217,27.629098090647403,60.005364423166384,60.989533448920156,58.94622393255497,400.00000000000006,399.936239738178,382.09862921528384,351.8021366981731
82,42,82,0,2.7360666666666624,46.461047511124875,173.21658596004607,12.499501783614487,26.784646679173676,42.85543468667813,46.563875480899505,39.92819381863126,125.3134769964468,98.6153640964271,75.07949254780647,49.32912796141386,45.671186365370886,8.141091652406885,77.58407261158777,47.461550919634874,0.5549647540171918,28.79263002994776,28.62603675103736,29.44208664572352,59.49222163063109,59.98445123854174,62.523012901553095,400.0000000000001,396.4288574002569,376.8764663187215,350.2091842003665
83,42,83,0,2.769433333333329,50.25573049530888,177.58574878102868,12.555927568778284,28.699263014350265,43.086247148528315,48.56269153423101,40.467805397351036,131.3819262185603,102.80599687843365,77.07481702427845,47.83786995380706,47.0040521962012,8.008528695144832,83.45934020315553,52.84077649944197,1.076206640630744,28.922606950988026,28.755261629578047,28.713387083137263,57.99881193021338,58.66780524736237,57.426545813639756,399.99999999999994,398.2386315279606,382.21048943542365,353.65091891756305
84,42,84,0,2.802799999999996,48.21236402251299,176.92290363378973,12.49950178361458,28.570289791118686,44.783701413747266,50.28416658677378,38.546737042558156,127.09464592780972,98.615364096427,73.95056733407455,46.478277132864605,42.1875315982943,6.983260349888496,82.28728432909588,51.56093878958745,0.5327435730841898,27.021683571182535,28.792630029947688,28.62416819706789,57.21953944423933,59.12013813740464,67.94835447636855,400.00000000000006,396.67007734270476,380.8488348334829,352.5367840908327
85,42,85,0,2.8361666666666627,48.66966129490077,183.95780866711806,10.808069885866011,28.821519695643374,45.069637024819784,50.56616326664473,36.740372834871515,124.61870703069613,95.89518841192684,70.96239555026364,44.42290500540457,39.368686083691045,6.0321425061827085,82.17462833061609,51.01662739177755,1.6363275819339833,25.283081633322436,27.08015297873262,27.97248748051743,60.108412003825265,62.78075764059338,61.35159931878387,400.00000000000006,400.3040885133915,384.1977898883007,359.23172961116796
86,42,86,0,2.869533333333329,46.66374692319783,188.52389882501302,10.760600899193566,28.69493573118322,46.663746923197856,50.34407694082214,36.26994756532745,122.16428682793692,93.53404701793299,69.74758791656359,41.750145173217106,37.90153202422766,4.116554570754715,81.88777015362962,52.52139032817445,3.639131673791553,28.918245991957804,28.750925902923523,28.757422048716535,56.85229803634127,58.372256647081485,61.08214341396864,399.99999999999994,398.4692793801167,386.1883235525987,359.4436236250127
87,42,87,0,2.9028999999999963,46.81645887845244,189.37489692317718,10.80379820271962,27.009495506799162,48.75028967393458,54.28841408651139,38.493137704273614,122.65470254241035,95.70495852189289,71.75565746352322,43.134671112781234,38.43223724988047,3.2220380171727356,81.36371677599323,53.49744203287764,2.989819060980153,27.24852225022985,28.86634347899729,28.882232676458557,59.564162263410026,59.91249069769901,61.327351271205124,400.00000000000006,400.3240966339513,386.2809038698345,363.21941802025924
88,42,88,0,2.936266666666663,50.21613752957086,192.19884500095336,12.554034382392599,28.694935731183673,50.344076940822184,54.07135032270947,34.822179416494265,125.74514060578446,97.11073847514835,71.46710077788953,41.09164511917447,36.557127336629264,4.999596529472683,86.41744466350292,56.865565952472025,2.9842552927859742,26.961217087827606,28.91824599195783,28.767058325590256,62.872833100288176,63.06661591150805,71.75975374479286,399.99999999999994,398.4006623331747,384.39769000190665,357.9057028181582
89,42,89,0,2.96963333333333,46.451328740029716,194.79901039049082,12.496887124601079,26.779043838431246,50.114905516276195,55.60190537237223,36.104843027577594,121.60818240926011,94.88838024271223,71.17220022077822,37.29849231141475,34.65075983251813,0.4604752137211108,85.13035513670138,57.5018423134311,7.48272222296896,27.01603114681213,26.838486850171734,27.74363162670045,66.1933119724182,64.69676752782448,64.36881044490785,399.99999999999994,398.5152020283346,384.43035451970485,361.6173615756087
90,42,90,0,3.002999999999997,46.24908970149416,192.17528513937503,12.442478380969373,26.66245367350621,49.89671605683926,55.21696239524994,34.19083576242752,119.30434272980348,92.702897129027,69.03937228019709,36.57525359058786,34.913610215976405,2.196425150348432,82.99622165947767,55.416761510752394,5.844400834840826,28.495443224348023,26.89840919040354,26.7772874851197,61.11791722709222,60.334843912620045,64.08856256633986,400.0,400.18952481666764,384.3505702787502,361.5710100494086
91,42,91,0,3.036366666666664,44.86763281043633,195.76248085021408,10.759627612743556,26.958778470549955,50.24360802255204,55.85111626606734,36.266666981943445,118.4781091457236,91.73770088878763,68.8026895999933,37.465666269576104,33.01372753075316,0.43363039663881864,82.88122314419365,55.12887775932245,6.62009072201613,27.13711853079832,27.13711853079847,27.000719364031056,64.6398377922626,63.13658575058207,68.16789980492247,399.99999999999994,400.3013697681539,388.0474942844972,363.2381511016229
92,42,92,0,3.06973333333333,46.46243640503287,193.25988508619764,12.499875440318325,28.571143863584844,50.12688923336732,55.615201167243086,34.34855783108269,121.63726194236408,93.1305348974373,69.4502313262833,41.57181739068983,34.23112219587006,4.128544436618313,83.29159417737424,54.062454142864226,3.679893364893587,27.022491350036073,27.02249135003622,26.87133546608311,63.74663525488586,61.58929180361224,67.85646667601449,399.99999999999994,401.9761060609852,386.3052157455536,361.8404524977193
93,42,93,0,3.103099999999997,48.212364022512986,184.13781727634154,12.499501783614495,28.57028979111875,46.563875480899554,51.90665196422058,34.670917767779095,123.41623216214327,94.908233247399,70.31679413617917,45.28376724116379,41.27466474510811,9.555027615599784,79.69523033230962,50.46696403963597,1.794550641091746,28.79263002994775,28.792630029947777,29.54803994414476,63.697002276620196,61.587450725124086,67.85443825390699,400.00000000000006,398.3425205157702,382.5446047864947,357.88226141160004
94,42,94,0,3.136466666666664,51.81184681479372,176.99516668707886,10.713324940199042,26.783312350496928,46.458732964706115,51.90406613454463,34.3458199670342,123.41008394522845,96.68408913343096,70.42006934887468,51.8985218249029,45.807414958771915,15.017728997530185,74.2198507481221,45.28231953927752,7.504090904042641,28.79119566971926,28.624610689973245,28.608153172980337,62.476807730346536,62.66775151925344,67.874548022097,400.00000000000006,396.59002823214706,378.9583684962015,354.1884203115534
95,42,95,0,3.1698333333333304,51.811846814793604,169.7122026919471,9.104575487589056,28.568866507197026,44.63885391749483,46.45873296470613,38.17078812985302,126.97537493699556,98.46485306458628,72.28049039709003,56.60221229510557,52.15271315044993,16.919554687403206,72.35687664850047,41.87876233575139,9.653312521988937,27.020337434057204,26.842764837303847,27.690016136269605,64.87102401028108,65.5298554286959,66.08962850338808,400.00000000000006,396.5377710203288,380.59119310855624,352.20706364577165
96,42,96,0,3.203199999999997,53.33333333333327,167.14893189039154,10.81380005386357,30.274464650535982,44.47998578914406,48.03291052837798,35.95333051761169,130.08183559058995,99.80920069417368,72.76544364413553,55.31314390140096,54.43862779228789,19.410455378357256,74.74261049952179,42.404525682102076,10.180508183261736,26.902659467416132,28.66580532728368,28.497818425227706,62.20471106560717,60.61727421536932,64.02468659686787,399.99999999999994,398.28570922497283,380.64792066445455,354.22417398040284
97,42,97,0,3.236566666666664,60.465208137490144,165.35686295953747,8.888098870766308,28.441916386452096,42.66287457967826,48.02864150552553,39.74878653154514,137.16499368985112,108.79846277513171,78.07689251312763,60.64040102669105,59.73744834682657,21.200378446713785,76.52761580978108,44.192405105580065,13.748642646568669,28.663257595391684,28.66325759539163,29.383981155801735,60.42179143051328,64.16666886068833,64.01899627231364,400.0000000000001,396.50883948017423,378.8999780263163,349.0658681250915
98,42,98,0,3.2699333333333307,65.2214130390057,167.40853068447376,8.810487197069246,29.95565647003485,44.05243598534544,49.464432273696744,37.66934078792534,141.24285452715012,111.36121236606162,78.32404972572135,57.090576515866815,57.118843842083834,20.178159697760066,83.76079880141947,50.0378786247752,12.885189533825269,28.248570905429954,28.24857090543006,28.2202140064403,61.076269512436056,62.357721634264294,61.698578064832226,400.00000000000006,396.56980608756623,375.52938246805246,347.4952653506266
99,42,99,0,3.303299999999997,61.699176740129204,169.30977479421045,10.572687224669574,31.766971589990952,44.05286343612334,51.13169384509938,37.38009415964124,141.24422503860262,109.47823483354425,78.30571169192945,60.091702874591874,55.74320784436577,21.002106385209117,82.8931865136874,49.051773681474515,11.855272011284796,26.665631630698694,28.41324316580979,28.232416548613173,66.93308514197338,65.32114301870001,63.436123348017674,400.00000000000006,398.2534790912184,378.95706022214216,349.11664975136046
100,42,100,0,3.336666666666664,56.91609775676927,172.58929843562157,10.666561318432835,30.221923735560416,44.47954648715074,49.90410746944715,37.50189291894834,135.21499784622713,105.02335731689398,76.41896795383582,59.92291034132995,53.729205706081075,19.512533610436094,78.25343925038237,47.9090145564694,12.288120875581399,26.90239376607375,26.725596273015675,28.45794519050537,61.02926674182447,61.69118937459916,58.693016831524915,400.0000000000001,398.2540015531437,380.5445139906145,353.9930860424083
101,42,101,0,3.370033333333331,46.051723296487474,166.45638965736606,10.61946902654872,30.088495575221145,42.51473327244013,46.051723296487374,39.29841294013194,125.86298546945868,95.83707165083828,72.49636850761726,57.38707472048259,53.84745200150246,16.737896793474192,69.96403204111289,37.881494205252466,7.662906630983343,28.373839897135117,28.53896548070286,28.34522342246919,59.55226946879452,60.87021409820204,61.97218194694375,399.99999999999994,398.26548515254893,378.9099037628223,354.2653735418566
102,42,102,0,3.4033999999999978,37.00117413468489,162.18654188442142,10.571764038481039,26.488077005452304,42.287056153925406,45.844848837430334,42.8703534482859,116.62263166496305,90.1359565716181,71.32069849833829,57.635076651606596,53.216104778204,13.176827643823799,60.81504041977996,30.749071873879075,4.254084863200887,26.66330324035687,26.663303240356782,27.328844176554526,56.9566843810627,55.85429694142931,56.410265456017434,400.00000000000006,396.44115144305033,380.59981948634476,352.43177650145844
103,42,103,0,3.4367666666666645,28.241994843207358,163.87479430847273,12.331810651458909,28.186995774763318,40.518806426222454,45.83773421487162,44.358151173296875,112.96797937282898,84.85409387845829,70.46748943690864,58.1356787854495,54.61230431360423,12.331810651458909,56.37399154952686,26.42530853884068,1.7616872359226363,21.43185021755064,21.21352346961452,21.140246831072545,65.1824277291405,63.42074049321775,58.162364891415734,399.99999999999994,398.1763916166139,378.7668526482869,352.34185137510696
104,42,104,0,3.470133333333332,19.291566864704237,159.63241127096174,14.03023044705742,31.56801850587931,42.12721255528087,45.631963004827746,47.64342760309785,112.36508848544631,80.8452083454444,71.02804163822861,59.628479399994376,56.120921788230135,10.522672835293179,54.36714298234779,21.04534567058613,0.0,12.40108886340551,12.276451641175413,12.276451641175413,71.90493104116968,68.39737342940532,64.91351120488962,400.0,398.14255395752224,380.57000087643473,352.5269900857899
105,42,105,0,3.503499999999998,10.567663912652947,158.51495868979316,14.090218550203929,29.941714419183235,40.509378331835954,44.03193296938716,51.56062266054803,105.91121575063117,76.06189837971074,70.52425346612449,57.36385490493785,55.62203744831004,5.341573533658448,49.25472696797101,16.024720600974433,5.012563569628355,10.71343168011152,8.980787417284454,9.6961171752273,67.52445673526563,66.26647746103458,56.38838744346007,400.0,398.1110152611887,380.45220862930114,354.0167410738714
106,42,106,0,3.536866666666665,10.47545644135814,155.3957453837403,14.075971643550508,29.68045991718166,38.410006951646366,43.68263940435071,50.9015688217553,104.98709425444824,75.39822518103179,69.90889863171515,56.86333028112085,56.9016995997988,6.1966449665324035,47.942463688435055,14.983218943844577,4.086332439230318,10.619952321543952,10.619952321544064,10.484416328823386,65.2086570936334,63.923284917913065,55.86910102057667,399.99999999999994,394.67207993005957,377.13259737025896,349.1862461248419
107,42,107,0,3.570233333333332,8.806386593877143,156.7932556411183,14.09021855020393,29.993471958970602,40.50937833183604,42.27065565061156,51.56062266054815,104.28784619732573,74.30837148442032,69.6760595644107,57.84644285814534,58.813102475728556,7.14466737154271,45.71534320184196,12.571360472232755,3.1057529297600013,16.23817454207226,15.851495868979448,15.849389373442932,63.46455370489116,59.72233676949497,54.627997194432105,400.00000000000006,398.146077906636,380.45220862930097,354.0167410738715
108,42,108,0,3.6035999999999984,3.507119417758826,157.8593369829975,14.137650350016575,31.612747224761296,40.331873304225354,42.08543301310477,49.38068975334212,98.5899862759126,67.00342239619852,65.10052725173318,57.769258796496615,55.30655879861365,7.2744369168240155,41.92273150242568,9.358259991955947,4.3286688424329895,19.605393558294864,17.535597088793672,18.366058830366796,67.9326322492991,63.42399686855913,59.7240915964562,400.0,399.87313730164976,382.28003844048186,355.9898969336251
109,42,109,0,3.636966666666665,0.0,162.34361285590347,17.835650368880945,33.934639163737465,41.02199584842595,46.372690959090235,50.22564746184968,101.913224589566,67.98635496845198,67.89327015987988,57.676733883216,56.95035041756205,7.249684329285628,44.5027792106755,9.362799865732995,6.495000209125465,19.940863323868406,19.700119730061704,20.527408068347654,80.87383702662908,72.41194132933686,78.49712679103718,400.00000000000006,403.48009941962636,385.5141892727478,358.65625909165095
110,42,110,0,3.670333333333332,5.276318414172358,163.71709321842314,17.67544793328677,33.4629347766539,40.45177450865391,44.00448151525902,47.779095351776355,104.13955020020674,70.70179173314799,67.9736334313668,58.96337272641699,58.085013978450206,10.837813583784055,45.547151205052614,9.591110844734203,4.1226192848116625,21.39639463176623,21.178429070692896,21.165612410683934,77.29556982107897,77.29556982107897,80.92266385490879,399.99999999999994,399.89558811266824,383.8156477083882,357.3080167722044
111,42,111,0,3.703699999999999,15.854262568237651,162.4100873171797,15.951828181838527,31.903656363677285,40.55472602481773,44.180320259315295,48.371461557933074,111.87103291829557,79.97284255880626,71.93834178630527,63.388156769665784,61.69805912062452,14.451284392365324,49.18374057322785,15.381787592399633,1.8610064000679358,23.170029597053098,21.13901675765016,21.95702704161954,66.33158525956947,58.916044451134894,60.306946955117304,399.99999999999994,399.67403320222905,385.05840690230906,360.20854230403467
112,42,112,0,3.7370666666666654,30.23656205228165,169.2744698820415,17.844077367564335,32.156615482569556,39.223227027636746,44.530619132829166,44.95338765644569,125.09769196383475,92.94128914668208,77.79070973063199,63.25186465099023,62.869389278951076,18.224951477669947,61.9896959232608,27.987635348971708,0.29641841333045704,21.600523089271118,19.611613513818316,19.611424701312217,81.18995959963081,80.24333305383368,85.30044816115748,400.00000000000006,403.3474372141069,386.9277901031384,363.32498418935023
113,42,113,0,3.770433333333332,33.71316816922236,167.50079078517143,19.810721293758423,30.588164259704396,39.143097777394495,42.67359964603864,43.11279062941242,127.04836592473126,96.48451775494858,79.65112742706265,67.7017657688591,66.21232692194417,23.89872331640754,60.05146623697806,26.471390415623773,6.5670712795795225,23.306031721416762,19.571548888697304,20.445933262195467,75.82597766112224,77.72162710265025,87.11312769765797,399.99999999999983,403.0963361293947,384.8994241603841,364.64214409418923
114,42,114,0,3.803799999999999,40.88199578809534,167.8056784286093,17.79627759744502,32.31399112672362,39.31804761431911,44.58749909944676,43.80706888921441,134.49890670175958,102.18581225091718,81.74721361052184,73.55475550576693,72.07829143539607,29.27042082365824,61.64716865251353,26.72016470210815,12.367783446616158,23.625362765491563,23.2911823846297,23.287865109946438,65.2903916832995,60.47750231105044,66.68169028823607,400.0,402.1929110235646,387.22571332780103,363.3369218305664
115,42,115,0,3.8371666666666657,39.69171570435022,171.32457949551534,18.323423977680125,32.787784936225854,41.94577395909596,47.26536415404861,44.91898866251131,135.3187795206514,102.54130501842796,82.73707707528138,76.88775813786606,76.27204035498039,31.940359987201873,58.724083542734434,24.01299353254649,15.546874017866912,23.971762273421064,23.632682077024366,23.628169918242975,59.185871879898855,55.95335351974825,64.50842220032456,400.0,403.8074676560696,390.0458330782383,369.2810793510485
116,42,116,0,3.870533333333333,39.82869300296948,169.58708318533047,20.05522791987288,31.32726747228436,40.46983992667005,47.18735589178857,42.22089913515342,133.33333333333348,102.04150418910177,82.14736516120956,79.97266144625178,78.24068264865696,36.89698651955064,54.22650471346424,21.727576713649114,17.066802308884917,22.188007849009225,21.822447287849535,22.695733401068537,61.94256755892923,59.12080434936445,78.80454211030407,400.00000000000006,403.71527482521583,391.68840798423014,369.36481562082
117,42,117,0,3.9038999999999993,36.59957363758483,168.99451715437348,20.233423823589607,31.240825726378972,38.68766086582375,44.032690788367546,45.24331108710975,133.0984086135251,101.87684612988849,83.57731155018621,83.20663719923994,79.30480192612197,36.189522158168984,51.83588160337149,18.787336840062608,16.27065308890201,22.38515405577996,23.80331389619942,23.78168598965385,59.50298791504849,55.152441585521956,73.33325269558131,400.0,404.3486619987209,393.6490474970529,373.15612225551246
118,42,118,0,3.937266666666666,30.939255041282806,167.67958278046072,23.573538225667512,30.939255041282582,38.314205167364584,43.93786563933615,44.33813603623011,129.70090529510816,98.76978682268287,83.29603511560015,82.99141735207297,81.77294629796404,38.111066859067705,47.31729260122256,14.486266976625984,16.51705206680731,22.169068018115105,23.91176982990412,23.895571227799223,65.8651297582112,62.14202375954562,80.4923616068804,400.00000000000017,400.44544560857844,388.64013739486353,368.32202245651916
119,42,119,0,3.970633333333333,28.94823104400228,164.10982103106846,23.613393684664416,29.60873194469472,38.378982470560715,41.91153888821739,44.413097917042315,126.39934273532633,96.82939466279171,82.38769996575354,84.92892590230679,81.92565888638035,39.071348774505395,42.96982038171814,11.926435361323911,15.420621024084085,22.2065489585211,22.206548958521104,23.05873761747432,71.84738784254989,71.84738784254989,85.59237437168203,400.0000000000001,404.35165620413267,392.8411396387956,368.94473946756636
120,42,120,0,4.004,23.971762273420982,165.4287745391706,18.323423977679905,27.893209087045975,37.04114697029129,41.9457739590961,48.37923138348605,118.53167030493218,90.64291306499712,78.56745744044849,83.92084045293643,77.05702097531514,32.224295339741275,37.88967014666696,8.235592923004333,13.841540721465663,22.224688182174738,22.22468818217473,23.077488286951734,51.45388482863268,51.46378933004337,74.53845663632727,400.00000000000006,402.3176936749535,389.0513451119159,368.9705992095462
121,42,121,0,4.037366666666666,19.72382751185905,160.68323292164416,18.418295581777254,29.095152738169567,38.08282418312862,39.447655023717985,48.794054503714854,115.9653712171559,86.87444855261394,76.96159563732272,83.49644212110547,77.63082690373403,31.78848515454638,35.311790939477305,6.4757966661584305,13.679874416352959,23.995071788640193,21.821364553627234,22.655446695283445,54.680131120327815,52.25908859772153,69.79002603455547,399.99999999999994,402.55554007825435,387.76864303512133,364.28793457963377
122,42,122,0,4.070733333333333,18.004562310893768,155.57386045804625,18.004562310893768,27.407815355375465,36.009124621787656,39.47761439720634,48.83111220212569,112.21646434920143,84.83554711185407,75.80165465213099,82.1284383605896,78.65569272881726,31.594001925835528,31.733710083435653,4.450702734972538,13.312191588459882,23.55460901191178,23.22142944177,23.37117893566233,51.891601394297254,50.41468658538258,71.08163453944478,399.99999999999983,401.233196049885,388.039045240534,366.57680680472714
123,42,123,0,4.1041,16.34837401117538,155.9837886477943,18.083470063980496,25.818620402284278,36.166940127961006,37.61589147346136,52.90053999504843,113.11206911216249,87.32145697246497,79.02259319033601,83.19218973466036,79.84652544160986,28.737758218665704,31.33439319237641,3.4205672249843246,11.909566177500892,23.65784069507482,21.572275577632674,22.59571780008025,53.73036984063299,51.18367015487797,69.67688872110476,400.00000000000006,401.23617571692137,388.2118754668806,370.16789489862293
124,42,124,0,4.137466666666667,21.123658041396574,154.78658348250977,19.740874383900103,28.470693925458193,35.34112758838011,38.10039897911105,50.11616677966059,119.36293210155395,90.89381153053043,80.30144818847214,87.05761606096007,82.19499299578376,34.62157325688611,34.68216669072001,4.95351321592716,14.762075317801646,24.096808107028842,22.508059842491917,22.605137909686277,56.306448390218975,53.19346072699864,70.10095399757445,399.99999999999994,406.472705008222,397.3877730390031,377.27543167517575
125,42,125,0,4.170833333333333,22.872825410662365,157.0283608191479,19.870640943915006,30.036890966405977,35.57344235139446,38.350851801745186,51.52974818961768,124.29081939466813,94.25472592525453,82.78586251666184,89.59535075211943,84.19003636565867,35.406319095672416,37.33894546848535,5.903569623201747,16.684001109048154,24.53843142034641,24.255208380217464,24.942959124115532,57.22385900750476,54.20413029998474,70.26737404999952,400.0,406.5913827573618,397.87454305888065,379.23262702880805
126,42,126,0,4.2042,25.333775305152162,153.39299776947402,21.168044197443464,31.278649579711466,35.41538824914901,39.56470992246274,51.30079963837546,129.01068513518936,97.73764714936986,85.04669923130939,90.36680112155,86.58278498835068,37.25944598481817,40.481479523977896,7.699161538341059,16.953141586857896,25.793035208766494,23.94400544697579,24.633570372064355,56.01093187260244,53.23848440867425,69.95517354342715,400.0000000000001,404.7848824094986,396.10677194782687,378.7739856109637
127,42,127,0,4.237566666666667,21.356931220134186,154.35581916305702,21.356931220134072,34.13493190995044,38.339751067116595,41.14627939110182,53.14460986848015,129.93980163061215,95.82339870602723,85.09053376162638,89.14174343749664,81.94715818679151,32.489112890802744,44.3590437618401,8.3861175083141,12.09310675420852,24.64739513400097,21.356931220134186,22.05658601307141,61.649500744476086,57.36754990125928,70.5793986408987,400.00000000000006,408.0455643940828,399.14011895254333,380.28863352753564
128,42,128,0,4.270933333333334,18.30481223415276,156.34596636577157,19.854356491196516,32.56356581853269,39.534605666546,42.32751373259961,52.623409130810096,123.2969925234215,90.73462638941511,81.5876862412506,85.78842523536537,78.46046943452075,29.529639299369478,41.16724214232431,8.323686525375479,10.789675897846564,11.995055112963183,11.995055112963195,10.89080479955669,60.599549563247706,58.118001898205875,54.824633802300404,399.99999999999994,405.1188882987429,396.3170267484157,377.63226134977026
129,42,129,0,4.3043000000000005,18.00688308807489,149.9095374734088,19.5889063686326,30.755206842947185,37.62906034613819,41.64658620211412,51.919841104835356,120.09293744198953,89.33915858433134,80.3809715064441,84.23112558875835,77.4433279550733,28.98421607496857,39.23795283057041,7.868402209802298,10.005597927012218,10.084006741893253,11.167394823041441,10.169689733015048,62.47495345626328,64.49208199834891,58.97855047301706,400.00000000000006,400.9390246600215,389.7749376967785,372.70436204087713
130,42,130,0,4.337666666666667,19.42095141221412,149.5980966390117,19.420951412214006,30.56661167687194,37.46186340345454,41.60270831401644,51.86513955097957,121.17325034321219,90.61819592543267,80.8257402103576,81.54296520881132,76.52239021963555,27.337306671830902,42.068004716995006,10.289420170124004,9.351510556761582,8.751195465897931,10.073382463657218,9.185997095579864,64.10888063101402,64.38473639964991,54.59862365074344,399.99999999999994,402.52883211663533,391.27973838467557,371.7584673889256
131,42,131,0,4.371033333333334,21.91870797819171,152.0672072809269,20.594402079197582,32.90658957522905,38.455465843693176,42.48958643444576,46.89848070465958,122.19956135818997,89.30780860647612,78.35850452683451,83.31606637494474,75.35646784531309,32.51060589454141,42.86113949113553,8.402647200186948,13.092852091927625,12.630031415709826,13.767518059781047,13.073755166472665,65.21981981381487,63.478180212321604,53.864137829146706,399.99999999999994,400.8623426803587,389.5993503584008,367.4474826549658
132,42,132,0,4.404400000000001,32.87267676852218,160.1212186980523,19.15910416029453,32.87267676852206,41.05522320063126,45.160745520694405,45.3469761892176,130.1881490428611,97.31810410159135,80.87408672973254,80.38846865699043,74.76277006045575,32.278659742799846,52.60737937250917,19.264095393313255,15.341795575012043,19.594044649983804,19.15910416029453,19.140823113309352,64.17629607467904,61.66602419096637,49.56944773518818,400.0,402.62270350472505,390.2190440567032,370.9892167681535
133,42,133,0,4.437766666666668,48.101205314927846,164.85686966568147,17.85887412475142,32.998836732871986,41.21278644173407,48.160020749958946,42.78549797540725,141.66385373971593,108.6660301396945,84.59731028454848,82.60417993753026,75.91612032864714,36.56286892141077,62.3849798616684,28.723222889806152,20.70640971624414,22.151207121256434,22.023040912670282,22.633102385028337,65.37467538219562,65.02034109828139,64.69809522900795,400.0,404.03480430974963,390.20817173259206,366.81695185153364
134,42,134,0,4.471133333333334,51.884215545638604,163.79387464189355,16.43559127071492,31.42239373018492,42.333957293791066,47.79104934756259,41.15127285247743,140.82318554570034,109.40518310818523,83.3476382507182,79.271914027722,75.25151637788872,36.253659174505856,63.43744878851646,31.01607691509014,20.208952957281213,23.24343608066589,23.243436080665926,23.860506786028964,65.16732630940794,67.10006793189655,64.20842814508316,399.99999999999994,402.6829738866904,387.63204410683505,364.4312735094494
135,42,135,0,4.504500000000001,53.88858080045346,168.4353868326588,16.161524552603737,32.323049105207474,44.44419251966042,49.90411393096775,40.605327900339915,142.86174219684085,110.56840087971929,83.50121018845289,78.11403533758494,72.72686048671699,35.01663653064145,67.33968563584904,35.01663653064156,20.201905690754643,25.730457753100783,25.624497971087397,26.262477397981115,63.29930449769813,65.9928919231321,59.25892335954711,400.0,400.0544118983201,386.6447486513632,362.49022206515673
136,42,136,0,4.537866666666668,49.98973106797469,166.3193265294775,14.861811939127678,32.453906668500544,43.23436200473489,48.71365908438862,41.970363729306555,139.1671611589358,106.7690301206689,81.68644662738086,75.5786458151648,71.47564079895835,31.69230056738786,65.59418789919494,31.455174182913538,17.81681425163538,27.055232014094155,28.500933300758422,28.412052248826967,66.5894001491854,67.27922235856511,63.55793569417395,399.99999999999994,401.4531174188691,388.04288795368274,363.9307355104363
137,42,137,0,4.571233333333335,30.7843568667865,160.60167152139172,13.371870134244578,29.448489227844302,37.441236375885225,42.873477161520796,41.47435934085017,115.00585723483485,85.62174575638682,70.1230675419149,67.17297589692839,64.801404050776,24.585294805112994,48.93343242561093,18.986947931923055,12.051896927265375,28.112747039750747,26.77714907635407,27.438367601847858,67.10829666476059,68.07848514727743,60.188271403760766,399.9999999999999,400.14078566656866,385.5646064040886,361.5972256339864
138,42,138,0,4.604600000000001,28.193046575318757,166.47935105304512,13.410064728317707,29.50214240229866,40.23019418495289,44.43570185643515,41.65762736367136,112.65252561645855,83.15321518064927,68.93825354684077,64.98254502731322,63.162345817240634,22.63066576932681,48.44309708696903,16.86909031697121,9.767446942239644,28.193046575318768,28.28856253468221,28.241752310613265,67.0965559209011,69.99167592432366,59.14127417078232,400.00000000000017,401.5346013463359,389.559495221141,365.551575770108
139,42,139,0,4.637966666666668,30.42091193225958,165.59007926033013,13.226483448808485,29.128308266097147,39.70148836553435,43.82738540398252,41.02342618231484,113.74775765975299,84.6598266319578,69.29396705040426,61.772204944379496,60.515026575383786,20.253356605599492,52.471215824606475,22.38416740050718,8.66174588130059,30.449651581496127,29.218256935988347,29.884621398582908,66.20429139778776,69.05957786296437,60.97107608496925,400.00000000000006,398.75160535450743,383.0705640924799,357.9077623132474
140,42,140,0,4.671333333333335,39.577489094748834,171.81753077244394,14.503690632482208,30.35454848216099,42.27488158124576,47.63115340706694,38.237002576544114,122.6504636447087,92.30563061626604,72.44926515721454,59.700742778304516,57.05335390006326,20.195188421449075,64.20979816718068,31.3368731657049,8.529688765455944,29.03733210543136,29.126999839520508,29.800821329933797,63.94789071131174,67.03415154263041,62.09642721875197,400.0000000000001,397.5061883607341,383.02644767880486,358.10552025837933
141,42,141,0,4.704700000000002,42.169879816567196,179.61399619997567,13.243813972316088,31.654852305646777,43.56748255189916,50.232546173160365,39.53426232803167,126.53709082019917,94.89138059560013,73.74826496875698,55.12751033531333,53.75597034728071,14.974977420356822,72.0058493717155,39.04690374093025,4.380530778104458,27.70534226135942,29.260102597717598,29.830994739710604,64.5813395385386,66.35174574758082,62.06305590435485,399.99999999999994,398.7650936384551,384.3869880219987,360.7259229293014
142,42,142,0,4.738066666666668,46.36821037889565,188.04412991513203,13.2264834488085,30.449651581496063,46.462435654651244,51.73567362710727,38.35680200154468,128.35823476203922,97.91171824814415,74.67929761261871,47.17585272867109,48.90359722342362,9.748412027303061,80.26988548994825,47.11264256422896,0.43544779949036183,27.90129740130624,30.678599553894713,30.600742941613817,64.74125509198905,66.67267678327744,65.02535292537978,399.99999999999994,401.3927208296257,388.18771286000566,365.6638308265136
143,42,143,0,4.771433333333335,47.203785968082144,187.50797617003442,13.157271706368702,30.13998911683576,47.203785968082144,51.20953965268863,36.65752907469641,127.1000834794128,96.96019322904155,73.3315302863167,44.79966476687048,46.40115795703139,9.018935334064281,81.46542991002877,47.1176154368402,1.727926863068319,28.832083407664083,29.068901212228866,28.995455653440104,64.73404052861065,64.0597276064376,61.754721006875506,400.0,400.16279668226076,387.0998266645238,367.4182862446029
144,42,144,0,4.804800000000002,48.343519366732465,189.5422194803051,11.81435240424019,28.732529691931852,48.34351936673252,53.55536055275368,37.83563200200207,126.66122218030524,97.92902174968363,73.73004200269429,41.99120669703461,42.38807268637834,4.43167021433635,84.43846115375379,51.435920987289705,3.749339215114105,28.732529691931735,29.173463837290804,29.587403889744564,59.18177034070561,61.270538705671584,62.841564303515675,400.0,398.7810826817742,387.15505809931426,366.14963509974893
145,42,145,0,4.838166666666669,51.14442691072562,188.96112497170114,13.162066527831776,28.842590501796764,48.52870065603364,53.840210232732446,36.670887946589865,129.76357151380637,100.92145225204632,75.33125733901204,44.12857253001118,43.319191281224334,7.114945422027972,86.01924049606907,53.11823862230631,2.251740140855759,28.93165687077908,29.07949460837917,29.646182407487572,60.15017058292017,62.0525624069918,64.38752328244433,400.00000000000006,400.0707477019229,387.0725409535094,367.3070998953273
146,42,146,0,4.871533333333336,48.37853038699795,185.69229140398494,13.121336999844644,30.05767177265372,45.86432251705033,52.37154968181517,37.88553710388835,129.3158940002264,99.26161160372195,75.0213401301703,46.56855573924349,46.97066623989497,9.047486264658687,82.49504909055509,49.68837858912593,0.22185406932499063,28.84212892881478,28.989509188004636,29.55512179788525,63.755313172261936,64.51100359589998,62.88707500091967,400.00000000000006,398.7622147965593,385.6560250691993,363.35950470548613
147,42,147,0,4.904900000000002,40.64543821980973,177.3969978764719,13.169975320948161,30.254353622670784,46.034332908964394,51.175158459653574,41.93476876317174,125.91346405954366,95.69958756166385,75.36015141083351,54.62637843730852,49.90711128766088,10.378943008677766,73.6446805783338,40.988729790990874,1.3468857339505576,30.169089891959732,30.395928348268207,30.947369395937585,66.7931314099767,69.77625940384155,65.64091177285535,400.00000000000006,397.43513244058164,384.3429724105133,360.71985853913327
148,42,148,0,4.938266666666669,29.133245982949038,172.2987546177853,11.979120474680345,29.133245982949262,43.73489492414952,47.78848496209162,47.62341198192154,117.80252522558112,88.67194112870276,74.10423772757758,57.66426591114623,53.28935942155101,7.884371975797308,62.325381236509656,29.786162408132896,0.9063279799316888,30.540884528036667,30.540884528036738,31.186541354568817,67.41580981552488,70.31197065365257,74.09267350364333,399.99999999999994,402.6425090050219,385.4669940588085,360.36806359214233
149,42,149,0,4.971633333333336,15.738545620846587,162.40681304560113,13.070150732831795,30.089746641478996,39.297489935333616,43.309360017954496,50.9903417082443,109.79704573178658,79.72791947027397,71.82938566886912,58.7588714392798,53.42340639868985,5.1842018564494765,53.68467917129601,21.71314252343143,4.6204027155623635,30.17478613269302,28.872906678636415,30.149502838900275,66.0882602708117,68.50847121705874,70.59091491133803,400.00000000000006,397.4099637933561,380.42222402798103,354.2878870329638
150,42,150,0,5.005000000000003,10.608176485881366,156.71625171886146,14.473605903919447,31.578776517642474,39.5610922213436,43.50048900391401,51.33237807394709,107.8941531019453,76.31537658430284,71.04146364827386,60.97042516734916,56.03134541986424,7.201963564847233,49.38735320724322,16.287941510360156,3.544151366919209,31.688235343311604,31.688235343311575,32.26934320375642,68.21716421107897,69.95996361988466,68.42068245489227,400.0,401.3136182450407,384.21070067668927,359.2109927378934
151,42,151,0,5.038366666666669,10.570669153379855,157.38477684473034,14.422431571567806,30.155993286005415,40.6661761908247,45.908281610078035,52.592501012318614,107.54464574479353,77.40111075832908,72.12825156951897,62.06614707837696,57.31336477377249,7.224775399815485,47.83511500539453,15.166565371446268,3.1548641159874933,31.712007460139546,30.269789891437643,30.797483037020697,66.32043353781455,67.43351330168025,72.15981956684797,400.00000000000006,401.2401001662112,382.85898195610474,359.2592293118677
152,42,152,0,5.071733333333336,20.958275925245317,159.81222225066847,11.86157877090302,30.127521642539875,40.60665960516265,45.84622858647392,51.152927422721525,114.02835826203788,83.9251549619586,73.41990259358874,59.42346631320561,57.404487200635685,7.2846949061643045,55.60377610023545,23.272826797596053,1.4733090821456472,31.68206671299134,31.46469147554888,32.0444725366666,68.56343932281254,69.08182585171551,70.74630883994736,399.99999999999994,403.8633803983837,386.7377827424367,360.56315796919466
153,42,153,0,5.105100000000003,31.529686597550462,168.24041704286424,13.202892861596087,30.244495670529943,43.37321960932061,47.31277272435091,47.458462900510455,122.35398569581535,92.11160490959075,76.32370139017746,56.668296569803715,56.66829656980383,9.27374006138723,65.65479689477627,32.12981623038104,0.5334452247699346,31.964599371271042,32.94835487207557,33.40187792021743,70.33270117352913,70.49683816576612,74.9290875231864,399.9999999999999,402.5526660453096,385.36408025934907,358.99649791966004
154,42,154,0,5.13846666666667,40.35007275904326,173.1470538632537,11.708447032690662,32.54947235168935,45.60712833150982,50.75327976730045,43.10800814222801,127.65780699516098,95.11097657688431,74.93512137602386,53.645465567119686,52.04138086621026,9.77679472769421,74.81329215823325,39.4625141293327,0.4771644363464702,30.370716462672956,31.24961655395293,31.777120973710225,64.18369290600481,67.55430126487761,67.6988226853988,400.00000000000006,401.2989550171925,382.97342098548273,355.5586701037248
155,42,155,0,5.171833333333336,51.51097387004548,177.7739221489919,11.65765023419011,32.21003979658042,47.702304839399694,54.130897164395606,38.70689283173546,134.04134191986373,101.83267970625363,76.08307845061609,49.393257708721876,47.41698595605715,9.705389360688969,85.63618659748659,49.44063408635418,0.5143721000086998,30.05400441960089,29.637531570142347,30.15844838997873,64.62814714450337,64.45217774186892,64.42007959316066,400.00000000000006,399.91505297438925,383.13110937473755,356.0695308773799
156,42,156,0,5.205200000000003,46.164992277914344,180.9765180267418,12.823608966087411,35.99758577586991,50.02851279068829,55.20113102407492,36.111610723379044,130.95786923196863,94.97265573992381,71.91515165667306,44.61839774762666,42.79861415369021,7.649831033769942,87.24851342039665,47.48287192326711,1.2468887588081543,29.937016562900524,29.49430062200093,29.386135072454977,58.77227014490995,60.99645009305448,66.87976193207591,400.00000000000006,398.72145274571966,381.8120551269302,353.40386632373037
157,42,157,0,5.23856666666667,52.563562589449816,183.49275447178934,11.60934886536727,34.70986489599083,50.01592005093672,56.467921315508114,35.91995337638839,134.7116454342768,100.03184010187357,73.74266732973433,42.42490134622631,39.56351564494082,5.082812773829119,93.69195358904813,54.06142656936993,2.4760702965457995,29.929481078883843,30.768914686507202,30.644301667397485,59.45249166699102,61.596855658586605,66.77683526201882,400.0,397.4442213275069,381.90536030575873,352.2129937601922
158,42,158,0,5.271933333333337,53.87442169575268,184.82019471152984,10.338724074798966,32.16144766791563,50.02851279068826,56.482138505488976,34.64748349419249,130.85737396979582,98.75011570659737,71.82315680089607,38.870817201362684,37.864843671306744,3.722102061207238,92.46908688274459,55.18770785887045,2.756367472353304,28.47303265006235,28.24106925274437,28.760783224299985,59.2183084692947,61.91431752984465,70.57646521368753,400.0000000000001,398.62451976089864,382.00151438644224,353.6759722124926
159,42,159,0,5.305300000000004,53.8846392203971,184.90763587490224,11.546708404370865,33.45570186753227,50.101486429458674,56.5088610392921,35.94599564844843,134.7665711600146,101.36256016122607,74.40062437218671,38.36806508531413,38.32779774396158,2.4026180340288192,96.40672642129368,57.63598792245523,5.4964920946076745,28.48650366227264,29.536132242811174,29.401870410838114,63.74991258446698,65.07873484909749,77.07421853512547,400.00000000000006,398.63147405388503,382.085328279585,352.46835117979924
160,42,160,0,5.33866666666667,53.94794539132232,185.07585016863175,11.560274012426342,33.42103945880916,48.826943890584225,55.24735401723908,35.965296927548096,134.8759798867115,101.47351633129675,74.44956139345106,37.9035499421434,37.54736410048838,1.7842894520637174,97.1009647764289,58.202782672683156,4.976521051800887,28.519970926710194,27.004538113621056,28.16892368483923,63.03145299775929,64.61076757868204,75.88192370801062,399.99999999999994,398.78549755812946,383.4711531359814,352.7047363978432
161,42,161,0,5.372033333333337,54.311580224021505,186.23018020508738,11.706498406154934,33.636780290194764,50.43446408138723,56.940457087208124,36.197461551564366,135.74663670965634,102.12855223477098,74.94236278263895,39.87956252921754,37.296271029349214,2.4218357811265605,97.08870553671852,59.3618859240579,4.251667260199952,27.42371841948266,27.148096163673383,27.74347433712785,61.622265986442926,64.31319463213902,73.73303586192021,400.0,402.5820960075358,388.3144300128319,357.26228047244524
162,42,162,0,5.405400000000004,55.03668909237333,183.1408365141401,11.519307019333928,33.302602863692684,48.65391225907335,55.096188233091766,37.11776706229819,136.95774204787324,103.67376317400546,76.10378675802247,38.9707935906406,38.62746823684506,1.7065289644546056,98.10690281451059,58.02535072629598,5.0253407178119005,28.41890260854666,28.158306047260798,29.394708967616566,56.298626152794554,61.93993294653387,71.6871150933692,400.00000000000006,398.7222085595938,383.46886176112065,351.5410523973862
163,42,163,0,5.438766666666671,54.47200498573272,184.24030820927763,10.375619997282344,33.745697168319786,50.59777235079537,55.904520309944004,37.61162249014882,136.18618828857763,102.45924747316388,75.1559480382183,41.30766164297256,38.70236514100918,2.427039372881609,96.10801674874517,56.98057691531051,4.250746924256191,27.725677708099788,24.676204219202454,25.83357162999505,63.103023694924445,67.07952888213174,70.0834537977068,400.00000000000006,401.4377022199918,385.90167261252867,356.0483047146269
164,42,164,0,5.472133333333337,47.62216348228739,180.35737643722382,12.870854995212756,33.48896548482451,50.26229552750113,55.47920796441514,37.347664022688505,131.30795549651668,97.82696526490668,73.97935402915073,41.585266773988224,40.29978712100569,3.599343028351427,90.30494562203023,51.676282049902056,5.399014542527084,10.996863328453689,10.613578927454245,11.022988024326082,62.15294122171042,63.30987290939481,57.976023057511874,400.00000000000006,398.71615387086433,382.02813799400536,352.4123771355844
165,42,165,0,5.505500000000004,46.301293394098565,170.0099582019427,7.82332701561018,29.693010143513398,45.180205502439875,50.30791720980023,43.804589691679006,127.4908457125508,97.82329874423276,74.69540296794241,44.45014898840168,43.86251032868893,0.35185771600094995,83.33224030606743,48.538227812453215,4.835323045661767,8.134308096503277,8.134308096503291,7.777143743359943,61.62225648889887,62.52185147413843,47.7436074757084,400.00000000000006,397.6524547889649,380.88414507837666,352.587305811168
166,42,166,0,5.538866666666671,29.557098360607224,160.76486189447502,6.552705274170455,27.109029259719396,41.203159377380835,45.1431168064893,51.54801935086092,114.63273119393143,87.53726049364725,72.78551667062345,52.34608621213522,49.068729259308725,0.8351974170105905,63.922556739054926,32.93919939577415,4.725737283591911,9.355605394499735,9.355605394499722,9.736921785655682,59.91572356124436,61.74822422303987,51.548019350860976,400.00000000000006,397.5587117348177,379.4067281164032,351.01814788248663
167,42,167,0,5.572233333333338,7.941576024240414,154.25830139238116,10.525979358263031,30.141817793470068,39.189365423046816,41.86030545134518,56.276708751718566,104.84603811998889,74.70422648008335,70.72612055507352,55.555175725614845,54.23075611663501,1.3807778902130394,49.91230281714195,17.034290502730983,8.115592497579087,16.14922000590291,15.721350015594261,15.67816936055749,63.57214123103586,64.00891791059303,57.68272149126553,399.99999999999994,402.47884251650805,385.4578573401062,356.6165097862065
168,42,168,0,5.605600000000004,0.0,151.23222806690234,10.587974613895227,28.92191745847856,38.107657984557555,40.73275162670038,59.62044440792174,99.05449311044966,70.20811699305631,70.04629463164633,57.58483621633411,55.87892705096601,2.7460976808366695,42.23165372801952,11.858149076340396,9.361696639216007,20.089269352770568,19.699149316076568,20.31488170709906,66.09357827286624,67.69546858668753,68.49212885430022,400.00000000000006,401.04853409586474,384.99393481977256,358.4860311903182
169,42,169,0,5.638966666666671,4.150083255395902,149.89213686632448,11.88402988969161,30.298450153828647,38.149176160929414,40.76809946610509,58.11598541141064,104.34798209400493,74.06474425804434,71.96150151407971,59.63374222236541,57.62518876410718,0.5563763063817078,45.640353233558926,12.789656602672494,8.541601030676816,23.94853359163546,23.62268801947925,23.556762858876027,65.0225441835463,64.99455040712462,63.212184887080575,400.0,400.00000000000006,382.8977556683114,356.520896690748
170,42,170,0,5.672333333333338,1.3331185704182411,153.5923852277985,13.331185704181602,32.105746700869325,36.01888032184578,40.08233315321804,57.879457983521746,103.34893704335107,71.26887287550292,71.10102251754597,59.35231502744057,57.39303087185431,0.615775020327078,44.88160204975293,11.391837876052023,8.648840058231144,24.32713106575285,23.996134267526948,23.93125647180466,67.69326757550812,66.92354880009918,62.88307720059617,399.99999999999994,404.85562125901555,389.9935789392094,364.3903488558536
171,42,171,0,5.705700000000005,8.038108415736863,149.69837796589755,13.280477316821779,33.273434130349926,35.777087639996594,39.731705958719886,54.58112852188983,109.16225704377966,75.88891141565195,71.79950637967943,58.79666694452317,58.24991682272139,4.002491276266369,50.51830933108954,14.601032098884389,6.582030312459096,25.418730673095602,25.142431916462296,25.08741905036345,69.46530393660282,70.47468877685219,63.64979217292226,400.0,402.62820062679754,387.7637288522092,359.75920399171594
172,42,172,0,5.739066666666671,14.500691529359617,149.94460357550471,13.388301016823274,31.75314390983224,36.85292025328147,39.472352802776314,54.22484409876885,113.82327408125762,82.07031043383988,74.65498004873302,60.26493153098977,59.800054780049436,5.895482432379595,53.56648016516772,19.12333907277184,4.796682839247524,25.252807064706086,24.943787589116944,25.54709054031082,67.11129822665612,66.30832929321377,59.20852920416441,400.00000000000006,397.11996253936906,382.4914371071871,357.28784695545784
173,42,173,0,5.772433333333338,16.36156137815375,156.38036915155055,13.516198930892502,32.389771556985785,37.75348062494323,40.43692322124308,53.06866889256878,115.27081139736396,82.92776187904505,74.53003893517337,60.859056206561036,60.99955962617685,8.050845943982267,54.12894240696687,20.246542766629318,2.7468418534880357,25.869900015804546,25.553329152377515,26.119585706567364,67.49784278340519,66.6196964108068,58.080895834188986,399.99999999999994,403.7649106575903,390.1311484465597,364.3297018907451
174,42,174,0,5.805800000000005,17.434980432770885,155.32278530603855,13.438713351359576,32.20408767996785,36.20336934210762,40.13833923149853,52.57771989554505,115.62738235895775,83.43325852216424,74.61632279265291,64.14144085625344,62.319722258618754,10.760849390679141,52.300269971628154,18.534927592213307,0.14827942073782197,25.721593217019365,25.406837189031098,25.980672790685276,63.03993658791637,63.2517643318273,57.561846003520735,399.99999999999994,402.55109599959894,387.569481275644,360.6034776967018
175,42,175,0,5.839166666666672,17.434980432770768,152.65201427064468,12.108878730980587,30.87170446849905,36.129207360487406,38.801905118928,53.90433420711198,114.29752796722619,83.43325852216415,74.59704255658585,66.43062947670694,65.4883510444132,12.17109641712716,48.21324645236177,15.70464053822866,2.512742486116508,27.043235966379946,26.744039146348552,26.697888914988653,66.1950598686334,65.33130463903092,57.56184600352078,399.99999999999994,401.1093245115388,384.70768123342685,359.0903921027291
176,42,176,0,5.8725333333333385,17.451531444726854,151.78909023955433,13.690107596729288,30.99229921773112,36.270339597161694,38.95347776767233,51.29400617018404,113.27398742359227,82.28312729297625,73.48673733508224,67.42582847278652,64.7305066493185,14.852791953131828,47.09682710054517,14.439224054292822,3.714980608536507,27.14887549344634,26.8485099149643,27.480873829750408,64.43102644671092,63.56110776294622,56.44575964738542,399.99999999999994,399.6957788886809,384.693335137813,356.3121982330596
177,42,177,0,5.905900000000005,14.935286093223855,154.24306908923202,13.589213369231986,31.129458461875526,36.608810517209434,40.58784809546296,51.666620895624604,111.28180686810488,80.18992641981248,72.61434953111427,67.488419440543,65.51994733848755,14.921593269960454,44.700121967112864,13.12554208195354,3.606470785517672,26.009649084992695,27.043545376169295,26.980280946237826,66.73407794158015,63.44371216515174,59.63393033684035,400.0,402.4175875277144,385.97733750577913,357.3433842974537
178,42,178,0,5.939266666666672,20.273542257835384,152.53819051194665,13.55302077220371,33.82211328019505,36.51130907317918,40.457279124093695,48.7170152973374,116.36108659904471,82.539019137965,72.35646771838856,68.6557086376788,68.10399818421388,19.693197160369436,47.916411136973124,13.667372597200142,7.061177297269069,25.940376734739345,25.6584077438172,26.202664004173357,69.12143824125303,70.00990702345632,64.78781289683788,400.00000000000006,398.4899375269027,382.1827184305979,353.63817505026526
179,42,179,0,5.972633333333339,31.170090944588818,158.43438365670522,13.606951020466319,31.170090944588704,40.64082637126969,44.68009362540848,46.21288665861045,122.12528903349386,90.96637992568564,75.34854348942201,71.74211747625304,66.91208263718761,23.15196699525393,52.77618067485582,19.80314284016856,11.94628616862201,27.213902040932982,27.07884462145984,27.01599486650639,73.4809300183166,73.03012676667049,67.8188568820869,400.0000000000001,401.15322810716833,382.10207217578267,353.54488391882734
180,42,180,0,6.006000000000006,33.79152163186383,158.04104256209737,13.573169382382865,31.092705736856786,39.19012309947677,43.23968431433408,44.65094582852453,123.08823529011161,91.99825125675812,75.07027385132619,68.91638102395427,66.54866624697127,23.099656360809945,55.32367698414009,23.53277491757524,11.5570468230178,27.146338764765954,27.01161664898113,26.976067443858483,69.55884021648933,69.652682570455,62.1854114737134,400.0,399.9566760248982,382.3002685997304,353.8934148082499
181,42,181,0,6.039366666666672,35.38720581312007,161.8505697747653,12.315693264206908,31.310490587169795,40.823885108790456,44.881346460591125,44.901948410935084,123.88321929592156,92.57273347297767,74.86639899782801,67.54879466752323,64.5824930611999,21.163980333350423,57.79925924085774,25.67886586650434,10.83281714073928,24.63138652841404,23.12069363121351,23.79221080071784,67.93412306246216,68.20312590421202,66.6974880583579,399.9999999999999,398.5754981752702,380.8502808403651,353.62107017494907
182,42,182,0,6.072733333333339,36.62180699658189,161.31941144311668,10.92785736434955,28.592909187185054,42.040306674886104,46.1046807281558,46.08475218573875,122.1094734765832,93.56421794950012,75.25327100256322,66.96284994825965,66.04930492850167,20.432956941919997,55.57398870194356,26.188290566395267,11.404086996645447,10.92785736434977,9.584364935246201,10.178414095136645,61.435902578723926,61.96880384024939,52.86192162481787,400.00000000000006,397.1999505986235,379.54327172221156,352.4154174261098
183,42,183,0,6.106100000000006,27.096235305257512,158.51876622389074,12.26834232413513,31.27825845510074,40.64435295788626,44.70878825367486,54.20940311229055,124.76043649979388,93.52127346459339,79.96859521531837,73.23423476257153,69.16265591412923,16.990714015838194,53.51881398884052,21.333215411229958,7.856753861537982,9.579965864486875,8.240998241348146,8.150898341083234,63.326210188415416,62.74566187352343,51.482847079989156,400.0,399.94722546463083,380.85635940241815,352.37870079697973
184,42,184,0,6.139466666666673,13.587768632509583,153.56583281227438,12.304247813527711,27.175537265019166,38.07000831131111,40.78594589144182,58.490569900528726,111.49424487446193,84.3427287648489,77.50823931159607,74.76804903290338,69.44885613897031,13.643384370802437,39.36433009601103,11.13346218275592,4.455687554008932,9.60800334124146,10.954809293953886,10.200876415637936,63.553993018421124,62.8862155555463,47.55719021378354,399.99999999999994,399.8130209989507,382.0120863219847,354.80731552995843
185,42,185,0,6.172833333333339,5.495038192231153,156.60858847858933,15.173670159106566,31.6263198430734,41.23567607773454,43.98176529286844,60.461029003147935,112.72364697418121,81.09836808556449,78.31806978182624,73.26360522107348,72.41248415766745,12.386051264828438,39.830972572549285,6.958287992055489,0.1343875363272673,14.009653485062257,13.737595480577996,13.737392602341288,66.7607416576825,65.13315927327483,53.59423178224794,399.99999999999994,401.3282813693502,383.3404573339344,355.846153144387
186,42,186,0,6.206200000000006,11.025047991094054,157.11297819102467,15.221954411681104,33.103842585165566,39.96579896771575,42.72206096548932,59.323697438894946,118.6473948777901,85.54408908864914,79.98812577202625,73.01644444949932,71.84704918493014,13.135213688329372,46.16131944055621,10.625110477120415,1.046497036127107,20.717851754487583,20.67196498330121,20.669247510696778,65.84365693497648,65.15095782921264,60.637763951016844,400.00000000000006,401.2728430779981,383.2418524363043,355.60052788932205
187,42,187,0,6.239566666666673,28.977500976867688,159.89096390402418,15.161510800161487,33.07965992762505,39.971255745880306,45.50541123215579,53.91324964086477,131.05633813128543,98.01584114979154,83.43513242390986,72.58241103402361,72.250748920241,18.62098512159423,58.575214428605136,22.9620736775488,6.437930141980019,23.471929573374045,23.471929573374126,24.10446540279986,67.79173605716369,64.57829868807005,60.66170389637522,399.99999999999994,402.705140181253,384.6720628124479,355.6731169822031
188,42,188,0,6.27293333333334,37.244776770368574,157.20238253167219,12.406419302320364,30.326802739005394,40.00000000000006,44.111713074916956,49.93106887454818,129.76133765723068,99.49038793854174,80.73170391852295,68.92294139444971,70.5098602699245,20.00784338069343,59.95647723184868,27.189955098804717,9.316629360475645,24.965534437274034,24.85110052190134,25.476380726226466,68.59512716665188,67.92459806433862,64.80374171772473,400.0,399.954866812414,383.3419738087788,355.7174677530021
189,42,189,0,6.306300000000007,34.61648639861695,155.01352147680944,13.835530558831229,30.46959539188359,38.76418399603111,42.912454302016464,47.365227081644846,126.1767011340628,95.71547635419579,78.28498403762819,68.21072792321729,69.08165889133568,21.498821166786684,57.404597045681726,24.587332667172518,9.459481313386163,27.705628353023176,26.28750806177913,26.95860689969652,69.70375243999149,68.73767775266697,65.0858415965828,400.00000000000006,401.34725556425855,384.74966204872914,356.9995867100806
190,42,190,0,6.339666666666673,29.275878580224433,151.80930626437768,13.92511538936929,32.05802309279874,36.2320691842334,40.38283462917093,49.05515963806426,124.21483924225332,92.16911749270255,77.34667652879523,70.49561114632502,71.66584717922274,22.286330525246058,52.93466409569078,18.301602767658096,9.94700627962959,27.98913553458357,27.885021836374325,27.83384184575425,60.185683565353884,61.0448441971015,57.1099524196435,400.0,402.7826086374082,386.02971708104474,359.4865025140743
191,42,191,0,6.37303333333334,9.841714079836487,148.9321588868521,16.701942634443604,33.43286912272947,37.6051366973592,40.38701794800645,54.5660699477174,114.43505682768192,81.02546387440599,75.97125066969966,72.69338829446065,70.90005155795075,17.4087605604351,42.48570994648617,8.055132851750841,2.518856785512753,27.9754076845423,27.871345051048372,27.800440031538983,66.04092753744897,66.33113555705017,58.45679922055256,399.99999999999994,402.71014475329156,387.28864352244784,363.48316153205815
192,42,192,0,6.406400000000007,7.075831994963608,148.48227614011344,18.039902708612,33.333333333333265,36.1064818019531,38.85517506470254,53.02336266452188,111.32657714290629,78.01948632544087,74.30305822707032,70.24669345552184,68.67554040373659,16.67331112431964,41.63555587231019,7.121581589867901,0.21291326402695177,27.89211975979569,29.141381298526866,29.13240798824313,65.53323430016587,66.39222919296446,59.68658110972429,400.00000000000017,402.6677838082912,388.67315410277604,360.8647636216707
193,42,193,0,6.4397666666666735,5.590272305629898,146.7446480227805,16.77081691688901,32.174433327447694,34.93920191018584,39.1568547591816,57.572341522156385,112.02360328806208,79.85728936390656,76.92109387207961,73.5124017375964,71.95963525551076,15.37978229875273,39.13710947466291,4.377322654260524,1.5971312387166563,28.09077067988779,27.95136152814858,28.641147468374584,63.20498994698994,65.4380160307511,55.92018992847989,400.00000000000006,405.53563058486617,390.08175492951347,362.1023100417996
194,42,194,0,6.47313333333334,9.785365919413787,149.58283976968912,18.17282242176859,34.975682440481584,36.34564484353724,40.53937309471453,54.804467744619686,117.63222933329335,82.66598533764717,77.63906494042271,72.1518374048901,71.95852044564367,17.480314276473223,45.436920690569195,9.271778776164297,2.2974977079668406,28.097631542075682,27.95818834118249,28.648086306785103,64.62734652960694,65.44522597257253,57.331331240648296,399.99999999999994,402.7944451548101,388.74199547405874,363.5532138983687
195,42,195,0,6.506500000000007,16.893829312308743,148.7398216671314,18.238430103502086,36.503830162782656,35.073904045196414,40.6857286924278,56.39813971221648,127.94621758804227,91.46155184451653,82.80649455934463,74.7765277455511,76.79971018875062,19.64111422960059,51.92342679043304,14.132741592276602,4.304800599946361,28.199069856108178,29.495464201194604,30.85722419755689,65.40638716007618,67.90952164272073,54.73327397255673,400.00000000000006,404.17070568052145,390.1126412947062,364.8657168765564
196,42,196,0,6.539866666666674,31.96768674619145,149.9931708897759,15.274463366679583,33.35501825376631,37.49186462730421,40.292973837387585,50.16242598277337,130.7117545831802,97.35969690206957,81.23237335915906,73.59514167581938,76.37231683339746,24.994576418202882,55.54350315156171,19.440226103046598,11.108700630312342,29.29228706443748,29.193382042399772,29.85463294396436,68.0407913606632,69.42937893945225,58.3867640847996,399.99999999999994,401.36186579271003,387.4557485676214,361.0434517700604
197,42,197,0,6.573233333333341,36.010826151917975,157.78303664051612,15.224093263081045,33.245024489361036,37.39384992176849,42.90426283231915,44.37468753209616,128.83178798013242,95.58680382002379,77.50447479386685,70.58443240155736,71.96844088001933,26.98816533000729,57.43635185616915,21.452131416159546,13.148080545388211,29.195690837214745,27.714748183056486,29.064178047700125,67.81641544463355,69.2004239230954,62.2803815307858,399.99999999999994,399.99999999999994,384.77675937515977,359.85285046167763
198,42,198,0,6.606600000000007,37.36465052877488,160.5296096791811,16.60651134612222,33.24184093861384,37.39026907859905,42.92246908699873,40.22772892563832,127.3842585867473,94.1442577298029,75.40545021709931,70.13501851508408,70.98888733831564,30.444840111081817,56.73075017797589,20.65479239644492,13.735510553017093,26.438912815867067,27.71209421276651,28.376416496184902,65.57123687367437,65.83623064640142,60.906265435273724,400.0000000000001,399.97845440261773,386.1633854303765,359.8503241116953
199,42,199,0,6.639966666666674,41.23321819339107,163.5815303782439,15.118846670910154,31.641998984637425,38.48433698049835,42.60765879983745,39.882467798597546,127.85253084531767,96.22065938331073,75.5626807594349,70.14602733554591,70.00713878621536,30.24480909762633,57.68626247587122,23.02260453244071,16.19513584430001,27.62591428680794,27.52315169525668,28.881508337092782,63.46475712038455,64.16650979068595,61.86509696746781,400.0,399.9834701473743,382.11673608372246,360.1139306491344
200,42,200,0,6.673333333333341,44.13688141839207,168.32272771060914,15.17205298757223,31.7233835194693,40.022822367775454,44.158427371063375,38.61977124109305,129.65208916652665,97.92870564705736,75.85060824900461,70.39288556648432,68.9404271106522,31.051801229984108,59.96892866882138,25.161275270221154,16.952684300140163,27.723135534937654,27.620011300788512,28.293597293656603,59.550796689112076,61.67813483149223,60.68821195028892,400.0000000000001,400.00000000000006,387.5990774004424,362.7735931956721
201,42,201,0,6.706700000000008,40.023774147715606,171.08453105338035,17.93103448275865,33.10344827586209,41.4022924684238,46.9776175611763,38.64531234792249,129.65517241379317,96.55172413793106,76.55293751250201,67.62913651152621,66.23525354525827,28.294349206812512,62.70629587669055,27.896096930735894,12.792010608423311,27.62066813034596,27.62066813034587,28.305411770036926,59.56084039990026,61.67010245467634,57.94745251751723,399.99999999999994,399.99999999999994,386.20689655172407,362.7586206896552
202,42,202,0,6.740066666666674,41.379064334474904,175.2582359868471,16.551625733789873,33.10325146757986,42.780607503337265,48.2952753535885,39.999762189992474,131.0337037258371,97.93045225825725,77.2234427924385,65.78075939994199,63.99100635650018,24.89517143213675,66.11817185895143,31.17397719109647,10.63582751225647,26.243013068056584,26.243013068056698,27.62381131803977,64.19638785328857,65.22329533723064,62.083920189515574,400.00000000000006,399.9976218999236,387.5863568660891,362.7669528369496
203,42,203,0,6.773433333333341,44.13766862343981,182.19845198670242,16.551625733789958,31.72394932309731,44.15921496039484,49.73144606289069,41.402046321436735,133.79941763077088,102.0776778753527,80.00791680427608,63.87285245654425,61.81929881228734,21.444967342167274,70.93561016875572,37.22065980215416,8.448906422085088,27.62050391856346,27.6205039185633,28.30236968995314,60.58716662573329,60.41848186209802,63.44789864619473,400.0000000000001,401.37692404440605,387.5839025995813,362.7669528369496
204,42,204,0,6.806800000000008,46.89655172413792,183.57786452197735,15.234980713361809,31.724137931034587,45.53813522543223,51.05311868502553,42.75862068965508,136.55869017411152,104.83666022433026,81.38189524694315,63.445319668098136,62.40403032541781,20.187813805625865,73.60155727100107,38.38837823191102,7.032369574861946,26.243169090262647,24.865870865268885,26.259557296747403,63.914633174658434,65.19057927061863,71.73739930452872,400.00000000000017,402.7680679099858,389.00464464488243,362.8241713424629
205,42,205,0,6.840166666666675,46.75532902397335,189.93347947192495,15.182537182536997,31.614933604703133,45.381378834116234,50.93305270563993,41.25977293117381,134.77021128057234,103.17461557465265,79.79727118817232,60.066233249825245,57.508979675145724,17.528146644730555,75.97965692311539,40.76992841917331,5.618651425509711,26.152831959352046,26.260976453600275,26.887694728057113,65.44377219543651,67.13155955472507,67.35355420132407,399.99999999999994,404.15872653381865,391.83706907797864,365.760162463773
206,42,206,0,6.8735333333333415,42.483856331322926,191.88508912795572,15.067079529672412,31.503893562042162,46.59111189183049,53.41964560520194,42.66013865007378,131.60860730190663,100.1406140839879,78.88431184291801,57.289460114475105,57.6574078351847,14.887164779907948,74.1341067685579,38.98774048638279,3.0098123554039375,24.806946917841742,24.693239916239715,26.742440341169186,59.5192233019751,63.9566728137321,68.54149261674516,400.0,406.9587013633995,397.56293234937846,370.39859874359615
207,42,207,0,6.906900000000008,40.07076255451813,187.9579863050404,13.32733738029825,29.320142236656014,47.97841456907363,51.993699305656605,42.979371623399345,125.53191629476802,96.28943612900098,76.09635703080573,54.37378885223018,54.59835020486889,11.729587986157071,70.93893129853859,38.39250592278188,0.5015203542263862,22.812726939791776,22.695637747815177,24.02806473233204,60.54174067137092,63.89519020410751,75.96582306769989,400.00000000000006,402.858316964781,392.47820646436315,363.68738484177845
208,42,208,0,6.940266666666675,36.39418506173105,181.51311282474043,12.964891611811778,28.522761545986118,46.691613124234784,51.87577003034791,42.96057252034953,120.7476255429193,92.27870327911793,73.92894529835769,50.19071047842556,52.54861243594678,8.563505662444413,69.23967725743523,36.691532229658606,1.9598638457208608,24.76939064545208,23.480417363832775,23.999802721972287,60.12270907763059,62.814204881231944,68.71392554260295,399.99999999999994,403.21646659202514,390.8866444200689,360.8621017592616
209,42,209,0,6.973633333333342,34.45099785088158,177.3106917085579,11.546418690431254,28.051950007035828,44.70090510928921,49.793803057045665,39.712409904931086,113.6618330641312,85.6684980359537,68.05814570094185,46.036493584415894,46.839949757059,7.014790430382618,66.85682421203819,34.23959381878353,2.5648793203602054,24.526819639279097,24.26021585572829,24.8260231806546,60.57596009320446,62.87817104943122,67.59172581190609,399.99999999999994,399.7865501010545,388.11318755883246,359.9500919463781
210,42,210,0,7.0070000000000086,30.9936444701875,174.42211591963363,11.612540717186219,28.38621064201093,45.23355089405798,49.301617531140074,40.18561391919344,111.08423938083945,82.73919541166686,66.79263870116267,43.959170357299286,44.44145621913299,4.43940182655092,66.37755660696166,32.65707790662327,4.668685269062166,24.81907562520838,25.805646038191796,26.387361702785256,62.183250874129385,65.29043683643488,64.52701662847419,399.99999999999983,404.2621447946133,392.88407512813893,362.38331316553865
211,42,211,0,7.040366666666675,33.48723998931612,168.76493505619217,11.131914875699316,24.768491296309936,42.21728787713701,46.18051311903738,37.29145330856125,106.48662742591746,81.86796473756732,64.36054392084532,38.348207144875914,38.92899949375055,1.9293444466042047,67.03377993758352,36.30747786424104,6.026715127021475,24.015854423135245,25.974468043298447,25.849237554709816,60.29897550850933,65.89208538876824,64.36528509842294,400.0,399.1960098687261,390.83041432202003,359.2511994547073
212,42,212,0,7.073733333333342,35.153771601437136,171.34575111039845,11.27071135148012,27.550627748062674,41.49635859920297,46.940420969930706,38.90204883136185,112.81837426599569,85.30368809919479,66.88805408352107,36.38275721161915,37.69240870036049,1.3256228483601262,74.57027806016231,40.35962575669953,8.86410458843227,25.54203427256397,26.328126299731817,26.033316178638643,63.374354967385784,70.30592504194351,60.16261713285452,400.00000000000006,401.85604047730067,396.1074618140776,366.6762899445025
213,42,213,0,7.107100000000009,29.862189275737713,169.65715058191245,9.91967935154739,29.784859350653594,41.21817758765801,46.47782636724289,36.044250685724016,105.46221761673883,75.79999831392178,59.99031199393755,32.52390986945977,32.62728660009623,2.898524485921257,71.78718737079407,36.70271540403212,10.190560023890612,25.290319291061756,26.03915829781182,26.432634818113456,67.05968995822843,70.63811524948915,64.58513086918911,400.0,403.147182784853,395.87358931500836,365.49382988216036
214,42,214,0,7.140466666666676,27.24713054501526,165.46051641472272,9.897827718353932,28.483138262338002,42.35587998426913,45.154601682412654,37.30197655827724,102.75701933552689,74.39848879604445,59.93140746211725,31.593952797654424,33.08602103322585,4.251210290238987,69.52327469079046,35.46622512330384,11.853653204817078,25.234608339033016,25.981797760678983,25.803307026270204,65.3904825144856,67.90094652989148,66.856144671702,399.99999999999983,403.15047284491976,396.42506763596504,364.93416298696445
215,42,215,0,7.173833333333342,28.643768194228045,168.26920272605815,9.925594599637824,28.563043463885954,42.474703096234826,46.72019657053362,36.172290398889864,103.09756009325365,74.69999132642994,59.36069605857165,32.06051500256342,31.12495804196874,3.8247769859605114,70.3515248897595,36.4434814356016,11.183443499545547,27.742880302368505,27.295385149003707,27.708995862318375,62.705901829437494,66.38523508622995,67.00925051952899,400.00000000000006,404.4470473497461,396.5213705881468,364.03479808728565
216,42,216,0,7.207200000000009,31.06164294133764,166.6243191430335,9.908070483314876,28.48570263953042,43.62997771236235,46.42343398792226,34.766599055667136,104.15262650364686,75.711290588474,59.38769465811242,31.974989901281788,30.040892951155456,3.2442916582764383,71.99831872405707,38.136024540797166,9.374131185692931,29.151035259568403,27.27532723240706,27.59987542942349,65.1041989502196,69.8926486573871,63.176090407521734,399.9999999999999,402.9438499061916,395.67400629700745,362.90632916563754
217,42,217,0,7.240566666666676,35.32139249455375,162.26380920205423,9.720742729572114,27.947135347519627,41.59807829835469,45.54572549517068,32.8300007202363,105.77590814190744,77.85133117194827,59.63332678059953,30.08000977941913,29.026624222941564,2.9845924100201273,75.31706728815641,41.99887227956515,10.319277025494557,28.36662799728268,29.187531645267324,29.51430272131074,65.03680454253151,70.26471804505047,65.61501342461142,400.00000000000006,401.6520586273848,390.9597801341759,357.2393617902206
218,42,218,0,7.273933333333343,36.066088908303485,165.97978893539752,9.943356035359459,27.34422909723861,41.31655876747964,45.36230513797465,36.13028253176341,109.44045631669583,82.1173880755513,63.303870108898536,32.67118796742977,29.703942035432533,4.380032788213612,77.15232957136368,43.32415181082081,11.723376168992218,30.241536758649726,29.830068106078503,30.14076471242413,59.502332217241474,65.84609938220137,62.15840317337026,400.0000000000001,399.00813590344006,387.9362637758184,355.9700629544612
219,42,219,0,7.3073000000000095,39.965802659586146,165.10820980401357,7.478994824163469,26.206143629934605,42.67325669016174,46.72293804668219,37.58148387692465,111.05041156727155,84.99076833574085,64.07592559568911,31.814406272065526,30.203257517313546,5.87799485884409,78.98868763429095,45.971701430448775,11.127718791792176,30.328632987143685,29.94193676730421,29.613530819999937,56.70626909069881,60.861336931901405,63.62031954527481,400.0,399.0608147538044,388.17992534874065,357.43892549190207
220,42,220,0,7.340666666666676,40.022262474322574,160.49851040993116,7.500512747889809,27.530276448752197,44.037797883762494,48.09174778837401,37.585810376263744,112.53546746644767,85.08849717151747,64.3708687444771,33.46041293191183,29.977544671341093,5.348690543019302,79.98158184096394,45.774839996072615,10.324216629549028,30.41589193392541,31.252136449540806,30.97264988864697,53.86006988668328,59.333148581866,63.803362482943385,400.00000000000006,400.3553595054159,388.0604348548815,355.78275470640926
221,42,221,0,7.374033333333343,36.90454910157233,151.29252014965255,6.137135225156569,24.579207422140083,38.36568618445624,42.181365733965194,40.57941381914713,108.07632789250542,83.60931754330194,64.4850476634623,37.08004873940729,33.702187745421725,4.7458182743552015,71.89035830412297,41.489609358252665,8.933754529341968,29.864588952764244,30.783713679475333,29.743518073737278,50.25523505983972,55.51308203690337,60.156448668451446,399.99999999999994,396.3392148312583,382.929698632261,351.32084066473453
222,42,222,0,7.40740000000001,30.12679612382949,149.12003284209052,5.003788481118332,25.018942405591986,37.611717625670735,40.51601243860118,45.051467245400325,105.14655177181821,80.14852465395478,64.59228617407871,40.23554748575884,36.14275374533372,6.570011004366847,66.17708976529605,36.41970971273099,9.72423174416815,30.43685708248485,31.298686949816734,30.99598868453586,54.82189510201101,58.94546172770265,63.8105661431446,399.9999999999999,398.82462158367116,384.8060557258071,351.25784329034076
223,42,223,0,7.440766666666676,20.496173639368624,146.31779541642783,7.658623442161991,26.47042957959321,36.599757608621026,40.77909644931857,46.65359590109133,100.7963928464656,74.45565196665108,63.77080900749411,41.29393347838095,38.67761760518556,6.261010239900884,60.13745705064321,27.524247914540638,12.219556217004765,31.877104743009276,31.476748451112147,31.90997972509922,54.54942979546581,58.39072593298954,64.22490947696912,400.00000000000006,397.52528837727453,382.65163381642566,351.2647175751329
224,42,224,0,7.474133333333343,13.722136526396836,139.4970169768936,9.938750941717148,26.089221222007108,36.113549415318914,40.23736797611021,45.983508471385036,95.69274104523501,69.61561187646895,62.42928764730436,40.74767176097487,40.38057561898404,5.185233005619352,54.65143813887494,22.392864661436533,13.628444271407034,30.456434290220706,31.08343363941205,30.216601187614742,56.7163539375731,58.27651254103375,59.684247530448964,400.0,397.18687444445226,382.15959399111676,349.29089401802923
225,42,225,0,7.50750000000001,10.14878471066186,141.18796610739682,10.07041454391968,27.69363999577923,39.103985044758694,43.09443263223806,47.83446908361858,95.67721939972768,67.98695274474059,62.76074150886575,43.439558382349446,41.65385279478039,5.183086133410484,52.829645815287336,20.08162131105314,12.560471505783084,30.6279701261625,28.9797941503501,29.392259978442212,54.206757751463556,56.89288268191706,62.95267765912793,400.00000000000006,397.0636880412613,380.5018716234833,347.3221046381546
226,42,226,0,7.540866666666677,6.804375799429295,141.87712927040872,12.63540865158731,29.088895209354817,35.46928231760218,38.24168582084618,46.76808377043851,94.7992533219856,65.81337903597955,62.28238927210964,42.045238716768836,43.67659700001343,3.7309768144573354,51.584153122962334,17.250103328381556,13.949623838669368,29.497658504866596,30.351293116494332,30.788111303917276,64.7634133278774,67.56542223104259,69.54067934524483,399.99999999999994,398.4403371849011,384.29095150440946,351.1302541391771
227,42,227,0,7.574233333333344,5.274099659456223,143.63059889521742,11.51241351669103,30.699769377842937,38.5661079805521,41.4296834844378,48.60796818158449,95.94530664049924,65.24954947823423,62.478087755551314,43.158217755216356,43.27831018723077,5.269055454636828,52.390323466332234,17.923795478166312,15.311785081850644,31.123234476723106,30.726406926783017,31.171491884767647,58.48501439106872,63.42381565766573,65.24954947823426,400.00000000000006,398.391201483724,382.69035760274505,350.40732621912605
228,42,228,0,7.60760000000001,5.2205589671508985,138.38391783854627,12.661715321369732,29.14945771126592,36.806193021433415,39.576722587549355,46.84834668906823,93.69669337813646,64.58716039246694,61.866641893076576,42.49525252380454,43.53172209755587,3.733560106907248,50.480607524494644,16.186325934605634,13.856160761500405,32.28116674961064,31.679601612790385,31.502622664967475,58.01203424470941,63.49700096711604,68.42014190630393,400.0,397.11790217790235,380.21636382697994,348.2892443666695
229,42,229,0,7.640966666666677,4.100612664486173,145.51687189279764,11.670548239717256,29.852910810834626,38.98818013017079,43.28040779116653,50.588997686401804,95.96660235500596,66.18393921783134,63.93300879616902,44.721130248241025,44.51046543549705,5.770711120525107,51.06364586050006,15.987954538612485,14.799203095270855,31.363655990850965,31.148465415379864,31.622293141547175,51.97401880128689,58.166059547300165,64.84934508889415,399.99999999999994,399.4131455324755,383.48950685040353,350.4740653100475
230,42,230,0,7.674333333333344,3.9913878932025146,141.82070144703638,12.621876767740797,30.318788416063114,37.94968286014937,39.45219922359392,46.700944040641005,93.40188808128201,63.122004453536505,61.01344092263855,41.47722888198655,42.675861995806144,4.504297393127331,51.08514022515101,17.01079007128351,14.3873666523574,30.710351625942014,29.057742473258067,29.44943559205376,54.82050316790355,60.12012001705591,63.12200445353644,399.99999999999983,397.124040552212,379.1776483700203,347.5786197758468
231,42,231,0,7.707700000000011,67.20319133152279,194.28447523051213,12.857060860842768,34.285495628913786,49.999681125499514,55.732242289146676,44.30846719073617,158.62832140005645,124.35879085696908,90.73886102908295,59.043936725600474,61.09974199817634,15.773770602448508,98.53504903886994,58.265451640764695,5.487186131948988,28.606938121947053,28.606938121946914,29.306562295636922,66.79855514347867,64.47065799659129,72.87068237845489,399.99999999999994,405.7217584487665,392.87801319347386,365.73706396000154
232,42,232,0,7.741066666666677,67.39703122234856,194.9770692934433,12.982297467334124,34.40771811060769,50.17792224463611,58.797332769484136,43.033535253340915,157.76067995794332,123.36931724932178,89.63634140746137,57.82084455672339,59.883978456687714,15.83000165156534,98.88631122733852,58.45798884935925,5.506747100640382,28.708917425637342,28.708917425637335,29.41103565114713,62.751127773550024,61.83333659011009,73.13045507474041,399.99999999999994,405.76486804459927,392.86330473732664,365.6522753737021
233,42,233,0,7.774433333333344,62.915624781646784,192.84275696138246,14.284256782850207,35.71064195712529,50.01530065828649,55.726911593775434,42.947893152273906,155.80320224249076,120.1237204835568,88.56239205367092,59.99387848797062,58.56545280968555,16.426895300277693,96.41873328423844,56.42281429225807,6.42791555228257,27.177652040877394,28.60420191636162,28.5685135657003,64.27915552282559,65.70758120111066,72.86371242007344,399.99999999999994,405.735758610379,391.4824627868524,365.77739603244464
234,42,234,0,7.807800000000011,65.77259308556134,194.27456364224275,12.856404946913159,35.712235963647586,48.568640910560745,55.72939906125497,42.878484703980675,157.1922655817846,121.49720465118943,88.58035660533824,58.085980650827196,59.12486720639163,15.743714639841528,98.54908421571815,58.4144521353071,5.606931851355512,28.605478714590838,28.712282366942148,29.295073092572693,63.39499650463097,65.08318715742337,72.85296136584107,400.0,404.32560200863276,392.8995215728996,364.36562742533147
235,42,235,0,7.841166666666678,67.42890261369948,192.07563431024826,14.33360343471793,34.400648243323076,50.167612021512866,55.91942679060295,43.0246930109682,159.16109672074188,124.77646718421055,91.01838181045889,60.201134425815326,58.76777408234352,16.483643949925636,99.61854387128972,59.484454254079424,5.016761202151315,28.703018509719055,28.703018509719055,29.383887041171874,64.50121545623074,65.93457579970243,77.45452777451891,400.0,404.29909759278695,392.8688786377691,365.6445766644656
236,42,236,0,7.874533333333344,68.82506393375292,193.52849849773673,12.98129695631449,34.40506639959767,50.17405516607994,55.92660865428761,44.462993105343166,160.61456397133807,126.22519509470769,91.74684373226046,60.208866199295926,60.208866199295926,15.768988766482266,100.34811033215976,60.20886619929581,5.734177733266279,28.813886504363396,28.706704905987667,29.38766088298962,61.64241063261238,63.07595506592895,74.55809333937097,399.99999999999983,404.35102267809924,391.45213829735513,364.22186165755153
