,video_id,frame_seq,gap,time_seconds,m1,m3,m4,m5,m6,m7,m8,m9,m10,m11,m12,m13,m14,m15,m16,m17,e1,e2,e3,b1,b2,b3,m_0_16,m_1_15,m_2_14,m_3_13
0,6,175,1,5.839166666666672,16.55211777204758,158.41682489861643,20.93695690360889,31.838634237934137,42.19978575547775,47.39805209569004,33.10423554409428,101.63054227587091,69.83346138325908,61.11493902283655,67.43930171828379,60.46707747842447,31.745215676173302,36.95895858120002,3.362709920994348,14.252953977057587,20.936956903608433,20.936956903608433,18.24810016759602,55.71609281940573,54.69802467818727,52.342392259021416,400.00000000000006,394.27408587747755,378.6421305318502,357.3111149638538
1,6,176,0,5.8725333333333385,15.909747208830435,154.61495105640338,16.770346059137363,32.25840472946484,37.122743487272,47.72924162649261,32.25840472946439,96.77521418839318,64.51680945892834,56.16461544590675,65.22342438879514,57.41891206876835,29.266921200100114,34.84157285726269,1.6723954971485,12.264233645756121,21.212996278441338,21.212996278441338,21.183676297216152,52.95919074303902,53.2379233258971,53.03249069610288,400.00000000000006,388.9129669142774,373.07895476185945,356.7395960526513
2,6,177,0,5.905900000000005,17.578762059271522,164.48645534333914,17.578762059271522,29.878150255009295,47.241503539285866,53.060820232793326,37.05928436896658,101.1521609094553,71.28495678877657,62.03895921067897,60.82250903007707,57.403297711629875,23.40844671860259,41.26067504472758,4.668538530956994,10.520650210607982,23.438349412361426,23.438349412362335,23.40844671860259,51.84707931915182,47.342925947735694,52.73628617781436,399.99999999999994,393.2913825498632,375.4253667622683,345.91422688365253
3,6,178,0,5.939266666666672,5.781940846277261,150.77457068717047,17.34582253883315,29.482229201609186,46.615497388105766,46.25552677022116,36.568204741197604,88.44668760482669,58.9644584032175,55.11651983764068,62.51438161140413,53.499768589069845,23.12444210077001,29.003537550118835,0.2939547724672593,11.170281353761766,17.345822538832692,17.345822538833147,20.23388683817393,47.91462791218919,44.48515556673601,52.03746761649876,399.99999999999994,393.8516184647733,376.5371060431226,359.2256146301868
4,6,179,0,5.972633333333339,11.56388169255583,150.4416120827313,17.34582253883238,28.909704231387753,40.473585923943475,46.255526770221046,31.13670436230801,87.4966419270847,58.964458403217925,52.16990303447528,57.06720814331811,53.05413867912739,26.016933390725626,31.798474144220563,2.6186978707009985,8.468256750707042,17.34582253883238,17.34582253883329,20.235392637231598,53.19017493215051,50.877558630752446,46.61549738810567,400.00000000000006,394.2334015870169,377.4239115720237,353.8812321276053
5,6,180,0,6.006000000000006,12.086578036702589,157.2416886257031,18.12986705505343,30.216445091756473,48.72255371340953,42.3030231284585,32.54410734096726,91.45155741968159,61.62969726170744,54.58450392675968,59.31043500266969,55.9010132979065,27.190982011753476,33.233422458809855,3.4263000300347812,14.701021311134355,18.129867055053882,19.110557856672905,21.199176540510052,43.91740235542011,46.61793439879693,54.38960116516085,399.99999999999983,393.9742430376996,375.9003495800794,357.8321193109851
6,6,181,0,6.039366666666672,12.462026766865863,149.6740776877115,12.462026766865407,31.15506691716374,37.386080300596795,43.61709368402938,39.4083888452791,94.29234254516469,63.54411766316301,56.34353539235508,60.90252435862976,58.014004631905664,21.803103720389117,34.262020132041016,2.6971117930256696,8.926569998850027,19.704194422639787,12.462026766865407,12.458916411651444,45.83349976018053,47.608373327203026,49.84810706746219,400.00000000000017,393.78821461715444,375.1566848916315,362.73918131590443
7,6,182,0,6.072733333333339,12.876455599593312,154.65153877538978,19.31468339938905,25.75291119918616,45.06759459857566,51.50582239837209,34.67091776777927,91.0502907211972,65.6572983682358,58.329079508176164,62.065461825426155,60.61242425760656,28.749386163282452,29.16453975408831,3.8401707149510003,8.822013804617654,19.314683399389505,19.31468339938905,19.30464197245601,54.8002739863291,48.15781653344084,51.50582239837186,400.00000000000017,394.04899619078316,374.8021930803285,361.9750084408471
8,6,183,0,6.106100000000006,6.525884661473265,157.16411472284122,19.577653984419793,33.27561323230806,46.1449729736905,46.14497297369046,35.14296441438512,93.43644886255447,60.16568375961896,55.93297087454175,62.68816059368919,55.69879096427758,26.084039235534874,32.85724279393344,0.7565812485445349,12.033244619708512,19.577653984419793,13.051769322946985,13.042019617767892,49.429974904908704,48.13297847883223,45.68119263031285,400.0,387.01302181249054,374.03055419282225,355.3462549022248
9,6,184,0,6.139466666666673,6.871067372240757,144.45591902228327,20.61320211672316,34.35533686120468,41.22640423344612,48.585783329012116,37.00183020044224,97.17156665802432,63.348111107430306,59.00859627222917,65.59010796322127,65.81511690992147,30.713721224630262,31.05123464468079,4.2751699873115285,9.112862341373784,21.728222852749795,13.742134744482412,17.156932185919686,52.764598001287595,49.83948169417954,48.09747160568685,400.00000000000006,393.15476572732075,373.32096819439033,359.66608559164376
10,6,185,0,6.172833333333339,6.978985634536496,153.69621542583698,20.936956903608568,27.9159425381446,42.45151231724616,41.87391380721691,37.58298782860141,91.794224242388,64.34306832441494,59.93836664208766,66.60244063296477,67.21522904591939,31.367106888095805,24.39663869074093,11.489782742892203,16.39209004652639,13.957971269072072,20.936956903608113,20.911404592063718,46.99321141842893,43.622875147180366,48.85289944175318,399.99999999999994,393.0600397203488,379.18441676552084,364.58103391316615
11,6,186,0,6.206200000000006,7.114555037959942,149.40565579716926,21.343665113881645,36.27725496909055,35.572775189802435,43.27614880465046,29.33406190078115,93.57736134425444,57.3593764804929,53.47326986574353,55.81056596401777,58.3714295151708,28.515012398949693,35.62852226326504,0.304864708470177,6.808645155842896,22.49819845858071,21.343665113880736,17.783774660784275,51.37986553424571,48.08732668276343,49.801885265723236,400.00000000000006,392.91414435460763,371.6631567109004,357.5019661556072
12,6,187,0,6.239566666666673,7.253569577882067,138.57925220511805,14.50713915576458,36.986092820824126,43.521417467292856,43.52141746729283,29.90723353237467,88.24348247850519,51.290482363289,47.3701707092323,62.99357793523268,53.24457182620836,28.872056553648235,29.372005584880753,7.8741972419038575,13.623611101071674,21.76070873364665,14.507139155764134,18.123152382160242,46.745234420192446,40.245897014176535,51.290482363288895,399.99999999999983,386.1461456164186,372.48333421113534,358.079572079739
13,6,188,0,6.27293333333334,15.051533894137576,150.51533894137575,15.051533894137576,30.103067788274235,45.15460168241272,45.15460168241272,33.65625295293425,91.55490639477331,62.05906407309402,52.93341963711373,59.15320518198405,61.76290541060098,30.098542636715138,30.098542636714228,0.39145503429244854,14.65781628406512,22.577300841206814,15.051533894138027,15.049271318358024,46.84411910367362,43.45150880647179,52.68036862948128,399.99999999999994,393.14479757260847,378.1651088579195,363.19136085784044
14,6,189,0,6.306300000000007,7.656992531540308,130.39388422061825,17.121555803733553,30.62797012616214,38.28496265770314,39.04315433375978,39.0431543337603,93.15133453125753,63.141177964215764,57.91586680873388,74.6992936767283,71.48174552068849,34.56690248719315,19.261808555757852,12.131026155881955,18.479161706989544,15.31398506308107,15.313985063081516,15.305093931436659,49.306751472299766,42.78469439924402,45.941955189243885,399.9999999999998,385.59629123836595,377.99494161774663,355.2052343640282
15,6,256,1,8.541866666666666,45.17971739130375,183.03362436488814,11.518613029843326,24.84884456521715,45.23615678544072,49.69768913043419,45.236156785440684,126.50320869565067,101.65436413043352,79.04011504190277,60.7353501564221,60.707296876904195,15.49943693368283,65.74286055038124,39.14835156733818,7.083453078289438,20.330872826086704,20.455987070523015,19.13934995114043,65.22387487929868,54.297122507046225,77.10392331206567,400.00000000000006,399.84688017813335,393.07003258944826,370.5838606579994
16,6,268,1,8.942266666666656,25.19702185728798,182.23018230217082,11.472729318939198,16.92556397000945,44.867199264095106,47.38504369861729,31.109805294837575,84.6278198500469,67.70225588003746,55.0757655402989,54.49983133237822,36.64587088683777,14.48885914497555,38.92492482389514,24.181009101126165,7.890298648513124,14.188254190717146,14.188254190717148,14.18443677793175,45.679810319650414,42.750773490796746,54.027262342412115,400.00000000000006,400.00000000000017,401.69011436638056,389.2879713102156
17,6,298,1,9.943266666666633,6.016568375962032,156.54643825496868,12.033136751923513,30.67859955389464,42.11597863173302,48.507125007266595,36.59735667827828,85.08712596230338,54.4823438542728,51.492223745471165,59.728778238423274,48.53880442839932,17.59210636690659,30.910009622770986,2.990107755793133,7.612851034688674,18.049705127885773,19.026059766179806,18.27084248325241,47.915100970135654,56.42681875349808,42.11597863173305,400.0000000000002,404.2310167863505,409.30356920592067,391.07694443752126
18,6,323,1,10.77743333333328,13.745684176978857,138.52656095189045,14.16872693951629,27.705312190378137,34.53560407646138,37.956511040742996,38.4203552712098,93.79604067885421,66.1008785836566,59.286815551731024,39.46687170158998,41.677631684874314,2.181923983502429,53.221643597589946,19.7142118509405,10.909619917512146,6.8728420884895405,9.71966649359049,9.227519930230528,56.210975574987515,55.55735957992965,69.49731465079199,399.9999999999996,392.6853525530026,378.1000238254782,349.9417409838537
19,6,324,0,10.810799999999944,18.32434833405535,134.17550908069984,14.374801496802881,28.9733386869629,36.11624178029233,39.69371802064792,36.64869666810996,98.08893093897007,69.12620690032259,59.96929909741448,41.825562164291114,42.52532061350257,5.588071044416665,55.9107000919887,20.882791434322144,7.587380899306254,7.187400748401278,8.035758327479796,6.337812240000403,53.641483406689076,55.12097269930746,65.57887794391966,400.0000000000001,395.91097489253616,381.169485622492,355.2677735105567
20,6,325,0,10.844166666666611,18.29327806657804,139.79703469457155,15.08502354145933,25.870601942016982,33.130535666381505,36.76903385433842,37.3111127316244,96.24420263380759,70.37564587151601,61.31701389218051,38.70119770836027,44.10136483045699,4.144314303004421,54.83890643369614,22.730936025570372,9.335172621919355,8.181002657634899,5.174120388403442,5.954835450529345,55.00635347624211,52.62023311996654,62.626096339912124,400.00000000000057,392.7733370993373,377.1965702025618,347.70704971327905
21,6,326,0,10.877533333333275,15.326626740590028,131.67748963774528,15.326626740590028,30.891803798649974,30.891803798649743,38.50767310856861,40.00367022985581,100.79515029683759,69.92117314014557,62.28166726468953,46.19567373274981,44.17678385627141,5.6984794900597535,55.58459708303826,22.696229740408853,7.695660873242332,8.567844814431044,10.837561700986834,8.346915672106206,51.970132949343224,56.897960927413806,65.58739768568957,400.0000000000007,399.3939251322626,379.31465953451703,352.22075528205227
22,6,327,0,10.910899999999945,11.830270160037772,142.8368701164752,16.259151149809234,31.792895754076778,35.709217529118575,39.43423386679235,35.70921752911925,95.37868726223012,63.585791508153335,57.71776791094794,35.07159961993352,37.332824611547494,0.49746949815471453,59.1762580305392,24.896087157670536,13.725635699097438,7.8868467733584025,11.153685671242215,6.614083100470907,52.550868805109985,55.55829804395648,63.5857915081531,400.00000000000034,394.8546509214028,378.67132451367604,354.140497928861
23,6,328,0,10.944266666666609,16.11318989021547,137.90669156387224,16.609095970747873,28.484364594794314,36.47778506495961,36.477785064960514,37.139067635410434,98.01270770778143,69.53919612103857,61.49008072404672,39.95470335335017,42.03207094537879,3.9931621491216447,56.96603574585106,21.8354415784338,10.640738443613145,5.6968729189589995,11.393745837917084,9.048089956390868,49.7414128980181,52.742054975392875,64.95434502109595,400.00000000000034,395.38924770510823,378.8527573671671,354.3528226512282
24,6,329,0,10.977633333333277,16.662147382799628,138.46886083244985,13.17258410976499,29.454793508768304,33.583631710067635,37.72054044491539,37.72054044491494,96.6189065376513,67.16726342013459,58.90680181132825,37.18670876096007,38.7858804470859,0.27448469239470796,58.632317118933315,26.983038674111185,14.857975740499114,8.331073691399821,9.31442354976467,4.952658580166371,55.01627964955901,54.53891496713322,58.46609573879572,400.0000000000003,395.8794377418018,378.78910260636474,352.8925203186738
25,6,330,0,11.01099999999994,17.164655208367623,138.3858744505349,13.569851427478742,30.34311023641429,38.85814091877658,38.85814091877567,34.59646861263374,95.27929880492017,64.93709164870202,56.435265593718896,34.249351431277546,36.11660445048619,0.5896588481714389,60.09606427611493,27.394567321287013,10.859550453819566,6.068622047282356,9.595333964064011,9.090573909305931,52.995588979387094,51.96368599508719,69.19293722526791,400.00000000000017,390.8494133254921,373.23259030173665,346.523101493681
26,6,331,0,11.044366666666606,13.442477945923569,135.61440246653657,14.169615901900237,31.68422437171034,36.125573991951875,36.125573991951875,40.575605003752045,99.4904826101662,67.80720123326874,61.1513261320531,40.13931277972324,42.27871777559653,0.662196784436901,58.27331703046116,23.940960668109255,11.512036406367542,6.336844874341796,12.673689748683593,9.856544445274722,50.68352311652825,53.230433825901855,67.36158500693685,399.9999999999992,391.1686657756513,380.8702084678332,353.6163848325399
27,6,332,0,11.077733333333272,18.157215690970585,133.58208176705685,13.617911768227904,27.611507814894484,36.59703822301229,36.5970382230141,37.43205908049667,96.29317756913994,68.692133054616,59.70355156681717,41.527195348498935,38.112561954884086,2.5741082505710438,56.4727830482434,21.74858807625378,9.035645287719035,10.150192141783577,10.150192141783695,5.47654663514345,51.03563602917984,54.89679840503641,63.71216665830925,400.0000000000001,391.03936329295414,372.38895672853687,349.26101730642176
28,6,333,0,11.111099999999938,15.027615135307265,139.11708689921994,14.256447488396507,33.60276898225092,38.31305140884568,38.31305140884568,39.18722589382105,101.58934590363876,68.04042137895355,60.470884220304924,43.941722391807616,44.05055637915575,5.0335719148508815,57.46434531981299,21.249836029722474,6.992583687117531,10.626128567237537,10.626128567237032,10.067143829701763,52.022645952406265,53.491904781605854,61.96044450400089,400.0000000000001,395.3148339301147,375.780533256197,351.5626975024933
29,6,334,0,11.144466666666604,19.82583122633281,132.03607844661494,9.61694073668692,28.850822210060542,35.00619268089,34.00102004590226,39.65166245266539,97.24529499592198,68.8468183220081,58.81552322984771,44.97987157482612,39.32237838795527,2.716717025378557,55.09054009195734,23.834290604095486,4.733249250401968,4.80847036834351,6.800204009180453,5.433434050757114,52.877956122834576,53.88622223534617,63.245553203367855,400.00000000000045,388.98117998368974,374.72147652769837,345.47445803715976
30,6,335,0,11.17783333333327,15.017609084521608,140.96657051076355,15.017609084521608,30.449516611331404,40.35861173420071,40.35861173420162,41.279458999811844,101.23744931251797,70.79368813915944,63.35859134220823,41.16558199913652,45.89822373917332,2.478336059131834,57.70182429198667,25.161411854574,10.235387905227526,7.079368813916195,7.0793688139167426,8.135103109353167,55.05546544918502,57.49179581239946,70.79368813916012,400.0000000000001,394.3214784255224,379.45680997222723,353.295260528614
31,6,336,0,11.211199999999936,15.175291135878902,142.44669280492337,15.175291135879249,30.769230769230802,35.76850422886722,40.78236951430897,36.82592902367489,97.3008510821038,66.53326383025214,58.997850973333016,37.12908233693929,40.75213877106671,2.507155052416465,58.331208589453354,25.57877842494031,9.521392308887016,5.0584303786263405,7.153700845773262,5.68095248871191,54.780613284008496,53.85311083687202,66.53326383025191,400.0000000000012,394.20072397044925,374.221298220157,347.6728050019415
32,6,337,0,11.244566666666602,21.01990443519231,142.75749767063246,11.750483799409237,26.795225722225528,37.15829241504434,36.784832761586905,37.15829241504434,95.89431531662814,69.11841929181165,58.70650084087697,32.80743862714985,37.040656514524244,2.234198329447736,60.940699170324706,31.249379265824928,10.377263293354872,5.254976108798036,7.431658483008504,5.938263980900047,56.32531577922896,60.35275224152247,63.9295435444192,400.0000000000003,393.9480033465053,377.55458266672895,355.2457131922312
33,6,338,0,11.277933333333268,16.47549804452886,143.73501643010275,10.983665363018895,28.00296200840374,32.950996089057654,38.44282877056703,45.28681244816595,100.21654217326041,72.23378110616581,64.08581152829129,39.95608317399547,44.76329943086648,2.7157650282329087,57.84267353235464,22.007061435677315,16.013648959578404,10.98366536301912,7.766624260474376,6.243137995936877,53.44126124521904,52.192633646031936,66.13042264529899,399.9999999999993,399.20750900974326,387.5926814461939,354.2125647108773
34,6,339,0,11.311299999999934,22.269526474000678,145.71232133529065,11.134763237000044,28.388187512350047,44.53905294800032,38.971671329500516,35.21121303563021,96.10790784130064,67.73012060176734,56.716263680939846,34.79468150162893,40.111831221716784,2.7518581884664854,58.62857191360308,26.912240249919705,11.613774388613365,5.567381618500316,7.8734665917891835,5.9234913548350505,55.317013754600794,52.611797230345246,67.04015231539918,399.999999999999,394.4991773500587,377.1464464590836,354.30599663053033
35,6,340,0,11.3446666666666,16.93503643550519,147.74410665601263,16.935036435505637,28.784027082682304,33.87007287101134,39.5150850161799,34.337268359709306,96.62704332067815,67.97494764447748,59.49959116964919,35.83884045445575,38.39413684064857,2.797887815262129,59.49959116964874,22.949149189924356,10.62550459322074,5.64501214516828,7.983252735457768,6.3397226796689665,53.30542334742108,55.99010182911775,67.97494764447796,400.00000000000045,394.42439511957855,376.01883107425044,348.07348128924986
36,6,341,0,11.378033333333263,17.42060115418644,140.44937663535643,11.613734102790659,29.60932840790431,34.84120230837185,35.32179331865174,41.06075069490415,99.39755304385719,69.92393880585048,61.18278577146475,42.75935214887704,45.111279845377794,2.8745782957225856,55.43362918001958,23.421279977651466,11.0736595710232,8.212150138981194,8.21215013898083,6.565798152730395,55.76028580453317,62.489412269520926,69.92393880585043,400.0000000000007,395.2510506568079,377.0888433579506,352.30985500047075
37,6,353,1,11.778433333333256,4.773249298367493,169.60154757920142,13.916293520442059,27.211707739350896,47.37314664596296,54.10852325716204,54.42341547870172,99.32488378180892,72.15346960131089,69.99694487260217,56.90420571662759,57.798925932297834,2.9525767117117425,41.684020714503845,9.99104240831781,5.2192012580765095,10.125590841508481,10.125590841508453,10.23957580155951,35.09291512573296,35.47068588346042,54.42341547870202,399.9999999999998,399.4299961479013,385.4971408036871,365.2861375198226
38,6,354,0,11.811799999999922,3.5942806584569382,184.18715797881168,14.819598802931674,28.978017088202417,54.39133607893969,54.033886405633126,57.95603417640478,102.23185629964242,73.3092288592,72.71410847104744,60.25222372220094,62.01271220259349,3.214375034424677,40.69893312817749,10.3750135726508,8.891455864454826,14.819598802931674,17.97140329228368,16.26968286654966,38.31535041034243,37.187846552113484,46.72564855993745,400.0000000000002,396.1706079271728,377.82711739882495,363.4669110079464
39,6,355,0,11.845166666666588,0.0,182.6844642843141,15.661676901452847,26.8595542955825,49.526570986239435,53.31469298806807,57.4819563764547,99.92331806084937,73.06588712582885,72.88383030506674,62.770138543844325,58.46366334229168,3.197231589031503,39.084524935304444,10.76618800388178,6.198714305265298,11.395543789232834,15.194058385643652,13.2456737259879,33.79930536976235,30.210576035135034,53.31469298806761,399.99999999999983,395.7024071016279,384.11979975121847,364.9738068692116
40,6,356,0,11.878533333333252,3.9872611141444265,164.25386532270653,15.949044456578045,28.194193721729988,48.01298181631142,51.987524491003704,56.38838744346006,100.9493883800611,72.76068751089988,72.3258316552658,59.37036205563925,62.65951324166315,4.744423113653056,39.59996050223697,9.335036999182876,5.335997067973949,11.961783342433533,16.439898730535894,15.747698664020788,40.62929918275523,38.87824027796546,47.8471333697345,399.99999999999943,395.4631423778105,379.3140826425215,351.08281287245535
41,6,357,0,11.91189999999992,0.0,184.5337147166469,17.651325764939735,26.040764589187116,55.6539792525543,55.81839313882318,56.30875447450108,99.94270982056277,73.90281845118388,73.64855305952403,61.741301966068136,57.67421620163657,3.503573881407874,39.91134162806543,12.029753676721953,6.933646212856047,13.537948868448241,12.843225981358723,14.92081464179978,38.26980701230082,33.81071298141819,60.54354789153299,400.0,394.99735379802917,386.1520452643694,368.7942025072769
42,6,358,0,11.945266666666583,4.382657079128071,176.18063414103878,13.147971237383533,30.678599553894795,52.77417972473107,57.14285714285709,57.644853817740525,101.6549727922711,71.34448832534844,70.79270910531943,57.19381411648817,60.01819999878387,1.098372287559414,42.9411260993478,10.19917124162339,9.8068954246379,8.76531415825569,8.765314158255727,8.734674858210724,35.98476827813795,33.52650649169544,52.591884949533686,400.00000000000006,399.6877532775405,390.67153684377877,368.7947990977319
43,6,359,0,11.978633333333253,4.578385528140406,183.6497672126183,18.31354211255977,27.849231939829124,50.56992103417078,54.94062633767976,51.187906340611164,97.8747036687038,70.03583144620951,69.42437864852684,60.39989206314306,57.69664192107655,8.068792090713714,38.35065479325681,8.478375445572283,8.12340320469491,10.237581268121977,9.156771056279885,11.400070043563346,33.25816841451547,30.991807184297954,50.56992103417124,400.0000000000004,394.40605703083764,380.69489030214385,357.5833408733079
44,6,360,0,12.011999999999915,4.802228751331662,183.05249417612274,14.406686253992802,29.21081711051659,53.042350245566304,53.04235024556584,58.4216342210333,102.65992522844566,73.45997433531844,72.85947475556975,63.781225403367785,60.37516513204241,3.79061546324931,40.15854932804632,8.57008713430264,8.21300017037322,9.604457502661944,9.604457502661806,9.792423280060461,34.609967273145344,27.99012432645634,57.82649169814755,400.00000000000017,399.99999999999966,384.9279170146075,365.7583725434252
45,6,361,0,12.045366666666585,5.043530698606897,177.17084171559708,15.949044456578054,25.71706144960068,50.686856212303816,50.686856212303816,55.707617367379854,101.99909597778864,76.32246875517023,73.74585462576624,65.35096749673869,64.34645108813697,9.141099318274655,36.98055407094739,8.681891817199471,4.089816806449221,10.087061397213795,10.087061397213795,12.556455107520037,36.47829586664682,32.919437733315476,50.686856212303816,400.0,394.5575695328572,383.83886391286717,363.44929427246603
46,6,362,0,12.078733333333249,7.272727272727252,145.63625014182392,14.545454545454618,14.545454545454504,43.63636363636397,43.63636363636397,36.36363636363626,72.72727272727263,58.18181818181813,54.545454545454504,58.18181818181813,50.90909090909088,18.181818181818244,18.18181818181813,3.636363636363626,3.636363636363626,21.81818181818187,21.81818181818187,21.81818181818187,50.909090909090935,50.909090909090935,65.4545454545455,400.0,407.3376571619041,392.7946070222769,385.7288903614871
47,6,363,0,12.112099999999916,7.731002358028801,180.73026645198158,10.933288385462317,27.333220963655783,54.939094201871676,54.939094201871676,55.7490508252098,99.7568953860525,72.93413037752636,69.27769487442379,59.21419814529713,54.060909965164456,1.2153981556916733,42.83063100657364,12.59152489296548,7.2437730079223,10.93328838546235,10.933288385462236,10.889967474997093,35.781321703562185,30.044642408697655,49.199797734581225,400.0000000000002,399.6636613596876,383.0163593962864,360.964134592978
48,6,364,0,12.14546666666658,5.767498007284791,179.62770461738944,17.302494021854162,28.837490036423784,52.22691573940363,52.226915739403616,52.22691573940319,98.72366355824597,70.16464154456224,69.6808681773332,60.52885277424093,63.436352252479765,9.77977097225721,36.674141145964995,4.493408284550696,5.616760355688484,5.767498007284659,11.534996014569504,11.729117213349127,39.053004355432904,29.934028719138837,52.226915739402706,399.9999999999993,399.00083107891186,393.2486371807152,375.59654560813647
49,6,365,0,12.178833333333246,5.937829808055908,179.02335309104555,17.813489424168342,23.75131923222468,53.440468272505825,53.76933579666134,59.67445103034852,101.63927434326757,78.09995742312003,77.68211461052783,62.949882348592155,64.47041090773723,4.037848062617741,37.89495064624066,10.491647058098806,5.625955668835559,5.937829808056113,11.875659616112227,8.86974992834439,32.74204830691701,31.762152124356817,59.674451030349424,400.00000000000045,398.9408631014051,386.6890567622216,368.57616765308245
50,6,366,0,12.212199999999912,6.222713912870795,180.88734707825947,12.445427825740971,25.656906740765894,50.16912345948699,56.34907108548917,57.37058756472486,101.29844340847332,75.70258205194881,72.40017012323756,66.02553635439358,61.894488772349405,7.05127087279925,36.89452840515219,8.190870205776946,3.0626732073776566,12.445427825741055,12.445427825741055,12.678042579376779,34.8290046141301,32.76348082310801,56.34907108548918,399.99999999999943,399.0307715341906,386.25964713498087,367.61442825411604
51,6,367,0,12.245566666666578,6.430735193625773,186.93429349718934,19.292205580874406,25.72294077449931,51.44588154899804,51.445881548998024,51.846244642058025,97.31468195955935,71.89780519122695,71.28747787210136,60.66702246512341,58.35660760465794,7.713804453489047,37.674668127911445,7.713804453489274,3.0184452209305164,6.430735193624903,6.43073519362513,9.61430700000119,37.56287386046938,32.420337558143274,51.44588154899895,399.99999999999955,399.17205603337516,386.3261156925116,366.7774764616778
52,6,368,0,12.278933333333244,6.6335812680665205,186.80334458717488,13.267162536133233,27.350956244357366,53.48164197743734,53.06865014453357,61.15859741200512,107.98687937250352,80.70099915816706,77.2558966013903,65.27689240926475,65.62410992207992,4.68743642300592,42.186927807051234,11.284569166494975,5.729088961451225,13.267162536133137,6.633581268066616,9.895699115234493,37.15227387123059,28.819053563664966,53.48164197743825,400.00000000000034,406.00552218954505,392.2797322559935,372.0132247433398
53,6,369,0,12.31229999999991,6.8802091615381675,186.9088313659989,15.384615384614989,20.64062748461321,48.161464130765744,55.041673292302264,55.47001962252295,97.30085108210383,76.92307692307695,73.1645346242135,58.14109804832651,62.564444095868794,4.921470602445652,36.8014421162643,11.775664477916735,6.993668750843881,6.880209161537714,6.880209161537635,6.854193875470855,33.35442019633274,35.18751855837718,55.041673292302264,399.99999999999955,406.4567634960881,392.71472097568,378.9740120049765
54,6,370,0,12.345666666666576,0.0,179.13991852208412,14.229110075920916,28.458220151841832,56.916440303683714,50.30750112466732,58.66812380156241,100.61500224933508,72.55450993818043,72.29331270481043,62.26810746232013,63.50628022135288,4.733015224044266,37.68438703701031,12.601403402413098,0.8587327199743413,14.22911007592069,10.061500224933651,11.403171700123039,39.10229455138642,38.66294292721386,58.66812380156241,399.99999999999966,406.5269448786506,391.8821947214527,377.674999924351
55,6,371,0,12.379033333333242,7.242859683401424,175.18140480702758,14.485719366802892,28.97143873360592,51.214751973157284,58.39380160234253,52.72881440780219,96.63180075954673,68.71180011766383,66.65727331542803,54.70827743498285,59.13383146477736,5.036701967242152,38.923801395382725,12.24403281576474,7.228404915330884,7.242859683401446,7.242859683401582,11.169255408529125,34.64576583324788,30.220211803453594,51.214751973157284,400.0000000000006,399.4094000552048,391.71752954242413,376.9071721172763
56,6,372,0,12.412399999999908,0.0,177.30288876141856,14.724203476646133,23.281009858986106,51.534712168262914,44.17261042993861,52.05792062953521,89.56383319623015,66.66666666666646,66.66597707683763,62.940652821731874,58.868786775453145,8.88013339879899,28.50306232395019,1.5594380602772162,3.8985951506920173,14.724203476646133,14.724203476646133,14.641390677044228,41.88823900799389,37.85969068561167,37.53950042476505,400.000000000001,398.64268356498445,390.81597635111314,375.5393591863609
57,6,441,1,14.714699999999851,15.920200983855997,155.2347156397546,18.020443923171158,27.86035172174791,39.85022203237923,43.78055270560391,47.760602951567876,109.46947140660305,81.61529503314534,73.65443662181667,66.401204053593,67.11842960260412,19.006477048789748,42.70962462819966,12.516742645642466,4.696670530620054,17.910226106837868,19.90025122981997,19.89722490804536,57.30863499677724,58.02586054578791,57.71072856647758,399.9999999999999,399.9999999999999,390.0652299547127,366.25113524008395
58,6,442,0,14.74806666666652,20.840303806013743,137.74877168636974,15.094339622641604,28.30188679245276,35.89867469894417,37.782989423586365,52.83018867924517,116.99634715416973,88.69931527202385,78.30624909631013,74.381672619769,78.72734099293473,23.732739293762506,40.441665751826235,8.034433387597232,8.303932201437192,18.867924528301895,20.754716981132123,19.80816281722116,56.22419003731625,56.69581296153581,56.63521139548542,399.99999999999994,394.38024526703725,381.248814552079,356.9230875463765
59,6,443,0,14.781433333333185,18.61008303961963,131.48888563951323,16.665952263585844,25.92481463224462,33.33190452717169,37.08171488864462,53.701401738220945,114.82482604924603,88.90436594315729,79.6302063598448,78.70446257797425,82.86218903690155,27.09018645894787,34.04138538246684,4.125244220966806,11.95346356941593,22.221269684781088,22.221269684781085,22.21785076489249,53.3033524929657,55.54462691223114,55.584028518253746,400.00000000000006,396.318246606471,381.685301125921,357.9720946866776
60,6,444,0,14.81479999999985,16.744004933321953,132.10469554959113,14.99938705680285,27.968620969285404,35.3973800796877,39.11361607090977,55.813349777740086,115.40758829090521,87.46070438038201,79.08938116523723,79.17096707524877,83.3481656678423,25.454803923616737,34.135544748850066,4.079295500579633,10.214555933451265,20.549286595789578,20.46489491850469,20.461746230907238,53.5856256956136,57.59965246818393,57.703794145452775,400.0,396.43197294952597,381.93988698816275,362.00358721028886
61,6,445,0,14.848166666666517,14.678744648309946,130.32553422534065,14.792977847016667,25.687803134542513,36.69686162077509,38.57536670415222,55.07586465925186,110.15172931850373,84.48251984828475,77.10105640023357,76.52167189625186,81.71467374675467,24.05518625790762,31.00780030568808,3.29390819856269,10.954658862321025,22.094436497570694,22.01811697246503,22.93396994927633,54.23682717828842,59.23670086079733,64.32427056152258,400.00000000000006,394.59792492694964,380.2554583063919,356.75785967041077
62,6,446,0,14.881533333333184,14.67828137477789,128.44806696909174,12.973890370337129,25.686992405861226,34.9091686940931,36.7415444335025,56.87834032726445,110.10239912561678,84.42005886636292,77.08130503149641,78.0790171216745,82.16641826530702,23.25312855334289,29.979639096801066,2.1724376157101233,10.057581554214039,22.09373917856419,22.017422062166894,22.030126636350474,54.71324365492438,56.70866783528044,62.49053117971853,400.00000000000006,394.7518017936802,382.2699060839845,362.642864023454
63,6,447,0,14.914899999999848,15.719175201584655,125.80190823033924,12.350150421888737,20.958900268779427,33.23085614018018,33.230856140179945,52.42635217414896,101.36156013134016,80.41835322110896,72.52147806062163,72.81625820765845,77.91094905078518,22.948356352337214,25.97402427663951,1.3237297168822124,10.478599943723566,14.081338007315347,15.719175201584598,15.706776136451822,53.41638739889652,56.3196937527307,52.51355991755376,399.99999999999994,394.7607304664414,384.5678990999023,362.3669671412106
64,6,448,0,14.948266666666514,17.31585506480447,124.72224678910032,12.121098545363086,24.242197090726282,32.94566114959042,36.404500516885,50.33525771746782,103.95283388141145,79.72818407850924,71.03399187963453,72.2032756965832,77.28516305486028,24.48750147417593,29.187122969220013,3.0131544513679955,12.14256271446743,7.139509943007607,10.389513038882662,9.522917239957337,54.664018442352585,59.27369502840037,48.60792150058945,399.99999999999994,396.66916479084443,388.527814060994,370.29218191686977
65,6,449,0,14.98163333333318,17.32721079954788,124.18466090723389,13.900315266735127,22.41358489260563,32.75831638150033,34.52551443840367,50.02925293824362,103.46168157395546,81.05206964351655,72.44073786306836,71.88861526930731,76.959128885481,24.406072205849455,29.03714130862147,4.698675950987649,12.090358022565397,8.62060957407903,12.191382975586013,12.056554598457524,54.4573162377057,57.26300043865518,48.55171394583838,399.99999999999994,398.5743288115183,388.90702779157357,369.19163273478284
66,6,450,0,15.014999999999846,12.349326376125559,120.55624680318215,14.080398450586793,22.703960301474922,34.92916969457701,36.67562817930593,50.76759859255466,99.60939402526795,76.92351684257459,70.73156863151814,73.35125635861141,76.84417332806913,24.450418786203727,24.45041878620384,0.0,12.225209393101863,12.225209393101977,12.225209393101863,12.225209393101863,54.14021302659427,57.63312999605188,54.25277076353361,399.9999999999999,398.5753457878413,388.84889338027693,368.94943048341554
67,6,451,0,15.048366666666512,15.987215339548593,128.00869690014457,14.210858079598713,21.31628711939824,35.57152640955361,37.345772730251674,51.63672261245062,103.08995657793709,81.78963041700477,73.67002256506294,75.0996672252495,78.86873042028651,25.516991056055303,25.99353927611753,3.097563430403966,13.321688879010253,15.98721533954865,17.763572599498474,17.7622518386803,55.82112559546238,61.75631706350913,56.9543464381418,400.0,398.91779609149603,389.2128069318803,368.6144626788325
68,6,452,0,15.081733333333178,14.467646097922536,128.51492844062943,14.467646097922536,19.893013384643574,36.16911524480645,38.02060509564856,54.28380542874806,103.09784087426715,83.20861986901426,75.92823256747965,76.44489760337979,80.34141308245933,24.164854283242448,24.659991609313238,1.3454818643230055,11.743365711811862,18.174755476814607,18.084557622403228,18.08327625650213,55.04635403318554,61.03105736569461,54.37410292186978,400.0000000000001,398.9110724749331,391.03648097722413,372.14223217923296
69,6,453,0,15.115099999999844,18.407438472595423,130.25042451446058,12.821260099714259,20.147694442408113,36.67793334494475,36.67793334494475,56.809400548592805,108.06490655473432,87.91721211232621,78.71544805663098,77.94617113825245,82.19344651859637,23.349179705717916,27.96484121598951,4.507312648528227,12.839340116601306,18.31608585673465,18.31608585673465,18.310957634646456,56.51476628539393,61.282116202106636,54.97877590500327,400.0000000000002,400.9675254837568,390.9915932809764,371.9653876885749
70,6,454,0,15.14846666666651,18.3293496784201,132.28915282941577,12.830544774893994,22.071459772045145,36.70449412717093,38.66580550525743,54.98804903526029,108.15869533444298,86.14794348857438,76.94999297517109,74.5789847882611,79.85986665910616,22.255145027132812,30.930879529235426,5.765860818167539,10.022898244665157,18.3293496784201,20.1622846462621,19.237498243792743,57.928040930188445,62.0234187075784,53.18670700576016,399.99999999999983,398.9655698845464,389.04017705762203,370.16211302758734
71,6,455,0,15.181833333333175,18.461711517235173,134.7167733850478,14.696071643661634,22.120517079232393,35.096006815414356,36.92342303447034,53.30492286691348,108.39909512660881,86.33942090651227,77.07243472331288,73.23684354397312,81.30141986976435,24.095380485595456,31.110906232421826,5.933692337269008,10.064328991942602,20.207098510034815,23.881116420950253,22.947981414852848,55.79637766868507,59.140226389134966,55.385134551705676,400.00000000000006,403.09267792926954,393.85746184500067,371.17583066342206
72,6,456,0,15.21519999999984,20.197983447908513,132.11841293937476,14.629116000086553,23.84254205343816,36.755199061955174,38.79130172409695,53.062064400867875,111.56199734211182,87.77469600051955,77.58701679784303,75.13894835670476,79.87296150115776,24.62119165083061,34.002751946230205,7.295568202067784,10.95956467688427,20.11503450011903,20.11503450011903,20.135768237707282,58.29969612141332,63.89836920092614,56.717311017024166,400.0000000000001,403.0729645445075,395.413430018113,374.88893746308656
73,6,457,0,15.248566666666507,21.617538192362158,127.91627839086524,12.566671827088797,21.61753819236227,32.36412831035535,36.08385395248209,52.06192614079686,107.77415462753744,86.19016233300192,75.31350084290182,72.52126186843145,75.46740377850267,22.030105924562122,33.73772209704657,9.421058272130608,10.58632335596485,17.95238832441272,19.829061016387612,19.82049949200882,54.51461840314562,60.791659562289794,57.47568639992643,400.00000000000017,399.6977405679037,392.2709819952788,370.76354432601454
74,6,458,0,15.281933333333171,20.4593543907073,128.92965039486384,14.639522301881762,22.035399048305887,36.78134457163408,38.818895598721035,53.06826834432117,109.93357711429776,87.91334825843697,77.75747688285014,73.64064557563233,81.32392967306009,24.491844006843394,32.450317362774854,7.661268956747449,10.864471925732232,18.390672285817033,20.21235111793091,20.198891574183108,58.06493354431393,64.81257416282853,53.099809665587074,399.99999999999983,404.9753363134413,395.6947041215235,376.95881596350506
75,6,459,0,15.31529999999984,23.889935754447865,127.45127009359213,12.994411980062218,22.12868622065024,35.108967825405756,38.9832359401869,53.324608457969404,112.11399130863502,90.04668092061074,77.9829315599435,75.62458812265606,81.47823293119745,25.44084089866078,33.478345501157946,8.600355064857013,11.774831672566052,20.214561022994225,22.052248388720937,22.069366629125795,58.029882669290316,65.20059755975353,49.65157845960926,399.9999999999998,399.80576988921626,392.1859063407809,373.77404540899084
76,6,460,0,15.348666666666505,25.369771739579658,127.48152525950219,12.68488586978995,23.834803488151017,34.85695021198233,38.441009216167934,50.73954347915957,112.4102867714446,88.79420108852918,75.99356388610829,74.57270847018333,80.24502970094602,26.74649316149248,34.97191396774531,8.530682712017892,13.370471472512008,21.74551863392557,23.557645186752712,22.667084057176908,59.3318140478014,66.20298203575072,54.48447108753885,400.00000000000006,403.4576768836701,396.2387815309897,373.15729564531597
77,6,461,0,15.38203333333317,24.182907776504738,130.86511593664397,14.881789400926108,26.109483486424104,37.39003312475529,41.3036685523253,53.946486578356954,119.06884731795475,93.0111837557878,80.79815545999747,78.39708888338976,84.26384589604436,27.46503041638539,37.64691179549084,6.886077729139174,13.828784386971734,22.400059321614997,26.109483486424043,24.248507266590195,57.217869551991384,64.10394728113056,50.363645072919866,400.0000000000002,401.48091887119733,395.4408516285447,375.0461903194772
78,6,462,0,15.415399999999837,1.8625817443949169,123.61987450975455,13.03807221076476,24.285094775892226,35.58457426205871,35.82747519969469,59.631711558676265,98.7870935525413,74.5265484108844,73.56277202392414,74.78929362029044,81.03029188273115,18.295138416496684,20.86227664144951,6.3151600333837905,6.406436059159773,20.572887790864606,22.42845423586373,21.489799318660175,57.16161114228146,64.22409363670704,54.14317212352416,399.99999999999994,405.44858071586594,395.94212302748326,377.70475857307173
79,6,463,0,15.448766666666502,1.8625817443949872,131.22942576115608,13.038072210764664,20.572887790864602,35.58457426205872,37.66838460316998,57.7400340762435,91.34249758300231,70.8026096999933,70.72279937234441,71.05733357926886,78.79131083765708,17.271037191386313,16.409186353208042,7.053568701931908,5.3752275960059706,20.48839918834444,20.572887790864662,19.62978685376862,57.2904004536332,64.28726844252708,52.2851611318931,400.00000000000006,405.44858071586606,399.9132603264225,381.36105366487686
80,6,464,0,15.482133333333168,0.0,130.3740050296885,13.104404262220442,24.163327536375935,35.4061506068399,37.249715722768165,57.480404564882896,94.53354109501683,70.42321969091772,70.31611609257413,72.56387053014748,78.36489334630926,18.20340525580275,19.009418210690114,8.031748811026205,6.272143064441025,20.385668857897244,22.315996327664546,22.256174620518436,57.07933996019733,63.79989868263908,50.071858379617346,400.0,403.64968725497147,397.9080660208106,376.1717336908882
81,6,465,0,15.515499999999834,2.635088424654963,129.05209365714296,13.043022258697553,18.725821631917576,35.598084338197616,37.45164326383469,59.654351395744875,93.1830757310076,74.53155576398625,73.37256355976092,75.37337583759756,77.92398639008059,17.281803498934778,16.431599981440513,6.863976397904253,5.639683332712366,20.49617783509622,20.49617783509622,21.442132711207137,56.2381286705251,63.87862428107411,52.30501177005493,399.9999999999999,403.3062878380393,395.53107362766804,375.3174490856404
82,6,466,0,15.5488666666665,12.984549463224054,123.70126154361392,14.690340761756346,25.773594773834954,35.08232077228137,37.136719464171605,55.11937423653878,108.35682380214425,82.63316678488006,75.88148713647979,74.50307163938987,77.35141569561722,21.168115164853475,32.206878274328574,2.133398258981515,9.99208246230728,22.111890959672174,22.11189095967223,22.11184361721797,58.25950312596535,62.74364316629101,55.11937423653886,399.99999999999994,401.7789734661261,394.2687406216749,370.5718532476381
83,6,467,0,15.582233333333166,20.03106395866331,120.86047280236153,12.747040700967693,29.192943998072828,32.979817976792745,35.02774621898116,52.84055594268102,114.7811614591295,85.60664348826222,75.49628120063505,73.816568389797,77.53917515976218,22.880412342224986,38.996575797561945,7.2636229657856575,11.531001458184846,21.92781374291658,21.92781374291664,21.92706182796553,58.10898372628543,61.37761406088907,56.45118024714224,399.99999999999994,401.3903298426504,391.9606620845538,366.47035096268695
84,6,468,0,15.615599999999832,18.12126552827121,111.48629066167895,12.684885869789923,27.242235543769443,29.4992830509015,33.413962632061256,52.67649602739967,110.6733204530794,83.43657234173504,74.32711304816462,75.56094769452204,80.2449495927309,25.236488275959914,32.68519373359959,1.3138054104732646,12.235526909711666,21.745518633925464,23.627239563444387,22.643150639634484,54.974188132150005,60.61783919974812,54.3939903092104,399.99999999999983,401.4422729739586,390.5878943463522,365.69504051183753
85,6,469,0,15.648966666666498,4.646139935246882,119.3253204902117,16.622535565101497,22.95023829219744,33.309939623359014,35.383947564933045,18.70035251073893,62.47287592755335,39.53316354616238,37.38643485945727,34.4330454885893,41.023157457310276,19.069629800525604,24.74477016023252,0.7007061056373232,3.735168910215293,25.020229268313344,22.85598640201437,23.841380470319905,58.7087479252134,58.09490621283686,66.52260022780618,399.99999999999983,392.2233798597181,372.17871978437284,345.60536063480595
86,6,470,0,15.682333333333164,10.798453159412277,112.97652136806576,12.426783347101821,26.6879310124014,32.39535947823654,34.469212533748724,49.83377597171935,99.66755194343868,72.98003025168627,67.58725572793355,66.96780912486133,72.94828451088574,20.13201459984691,29.694017618179714,2.7987723793353325,7.562879890236218,21.376898140612607,23.078311930331903,22.181819722740386,54.44372507729224,57.51843276163248,53.28722228133929,399.99999999999966,404.8709703954477,397.9303941071049,368.3814046128164
87,6,471,0,15.71569999999983,10.585946193389574,119.27145900781193,12.35027055895444,24.76347253485334,32.19589842645148,34.25698258795048,51.438452512562606,99.05389013941335,74.29041760456002,69.00727889570794,68.45112738945636,73.83467396997253,19.710009381559416,27.896559553584098,0.8898424100026432,7.207723521021649,21.245278715617726,21.245278715617783,21.244987538814087,57.03889848117194,64.29111412269378,54.72250477804262,399.99999999999994,403.53689217505683,393.0327062360157,368.5073477824422
88,6,472,0,15.749066666666495,7.255881401320393,124.42567288136095,12.697792452310475,23.651279741676202,35.220933247395386,37.3959567807475,52.73009316259292,96.29432174862795,72.6494559148937,68.93755972444353,71.06091577723919,74.58150612384338,20.122374199809656,23.367918425585458,4.004671519262274,7.7452987625292735,21.84309553662459,21.843095536624595,21.83866199377917,57.66066877047706,62.67751001438796,54.44933495572579,399.99999999999994,403.24442567510624,392.5056284697871,369.2844466948131
89,6,473,0,15.78243333333316,3.5184640331237484,124.39648885913645,10.55539209937104,23.139084485792615,33.83950349215561,35.57826570859485,51.13891090394214,88.24262902276972,65.18660887449322,63.37835626874789,63.58041266492876,69.30534389005481,15.322610043719578,21.788414721508957,5.219790234673724,4.91670564040237,19.43135273591992,21.110784198742138,21.098055367890822,56.474762732566546,62.97424347638611,54.53619251341738,400.0000000000002,402.96782863131153,396.0812335034303,371.66456739861576
90,6,474,0,15.815799999999829,1.8210058144238606,129.91826844860537,11.076745935433086,23.74301097056124,36.601763880597325,38.62936679877898,51.02067040220231,87.42724584511505,63.73520350483791,62.481617461126234,64.13616735990013,63.320071801721156,13.208450712170475,23.39287610259555,2.2526473283982114,4.432628613944644,23.743010970561127,21.852069773087305,21.73273650821784,57.59622350326043,62.6828465028691,56.48054367188293,400.0000000000001,401.3903298426504,391.70254125932786,367.94232483385906
91,6,475,0,15.849166666666491,1.8316085856735327,132.68736932473894,10.989651514040787,22.055488015714936,38.637825442759606,38.85428554227628,53.11664898453041,87.93628929864435,65.93790908424472,64.70727356459633,62.648252340057866,64.26846576264552,10.598896139428007,24.213189482004964,1.6877223151957423,3.645480200822476,22.055488015714992,21.97930302808153,21.872881204933947,58.23767135634682,64.20095687003754,56.89791174308436,400.0,401.1390069327871,389.62064627384905,368.88615104223567
92,6,476,0,15.88253333333316,4.1106256989820364,129.32475305227908,9.191638492981381,23.968860708479156,36.94992944350821,37.49467523008254,53.34318914812826,90.09681372433806,66.17979714946657,63.802340481208944,64.93936753043079,62.82214474912121,11.140624634985898,25.804352787018615,0.0952190139743152,4.352069050469709,22.136396849460777,23.96886070847922,23.037400263296718,54.96937665548097,59.0581931379042,57.01780139381165,400.00000000000017,403.17674013911915,397.24896195698267,373.25296219608344
93,6,477,0,15.915899999999825,5.28306379745836,122.1341568628331,10.711874170785078,24.90460157749344,33.64426404328075,35.61445103543474,49.43422264131112,89.8293478120333,65.18158007578319,61.96911213786825,61.924785162090075,61.182308317805905,12.904690823417013,27.931535612213338,0.5153010934211579,4.283094034564783,21.20550412762974,22.893276455653186,21.980639113995267,57.24828921749423,62.45670887142802,51.190922382535916,400.00000000000017,399.2511354918818,390.1208657878369,366.8550100714361
94,6,478,0,15.94926666666649,7.625499016052388,124.58795417564606,11.096731020433369,24.042917210938754,37.17358885212937,37.402916066500595,53.7615972610588,96.1894504226894,72.15245870055037,67.71869557795151,64.70324629629795,64.05307507571831,11.467675149187926,31.017651161097774,3.2172265570059153,4.495149300903563,24.32578479137884,24.1139451860985,24.000285918290615,57.70830075075213,65.62245388401391,55.606815420419345,400.00000000000006,397.34028194459955,387.23899240717503,363.05893164120545
95,6,479,0,15.982633333333157,5.548365510216563,128.26741632064602,11.09673102043324,25.958340315649004,39.23286876775759,39.23286876775737,50.072098860905875,92.4912512062261,66.68305447367344,63.028748031964824,61.006345880846425,60.03692997369865,11.281995471115351,31.20516376973694,1.5544082649091706,2.6575367109738863,26.155245845171734,25.892372381010976,25.839948145695473,57.763816812110974,63.71402479391412,55.606815420419366,400.0,403.03273429262293,391.582553669011,370.94372550755776
96,6,480,0,16.015999999999824,3.73424293973029,125.77803879336523,9.335607349326166,26.20629864930644,35.671305595387885,37.76019486895888,52.31273198597884,91.48895202339575,65.37591916785571,62.95649273265849,61.594480284839506,61.77458110438579,9.871776171382407,29.322664682384243,0.9117603989533336,2.6902559919731175,24.344285554301727,26.13970057811314,25.073410971213548,59.01678730508286,63.67689601084368,54.27513687528329,400.00000000000017,401.1357416314625,391.3835779733215,366.81690975879536
97,6,481,0,16.04936666666649,3.6498872401864846,121.12182564990364,9.124718100465984,23.724267061211606,34.865498906933624,36.907200646435484,51.13099925649139,87.61630153159872,63.89909200804153,61.52922674926981,58.40793839825449,58.695716756858815,7.913904861616857,28.390441916149825,0.8522666774049412,2.722826008332504,22.201397344419387,21.975231202315857,20.969080783682614,57.06866219090392,60.67696007186481,51.39087894460892,400.0000000000001,397.3728303656522,384.13220876032443,359.7778109739713
98,6,482,0,16.082733333333156,7.260063207633285,118.86621491024125,9.075079009541556,25.410221226716512,34.912526027708715,34.912526027708715,50.85284312134224,92.58359845989058,67.18010743376583,62.78054487026884,58.62005763371849,58.03824807293449,8.150822620418808,33.25645404519673,4.264773855936255,1.6850522184973897,25.474960748779306,25.410221226716484,25.204429274722543,56.92951664577981,61.100981421212964,51.11130904617165,399.99999999999994,397.6831748960219,384.52642236790854,357.17094567808124
99,6,483,0,16.116099999999822,9.171899804861098,114.67442600455317,11.006279765833284,25.681319453610914,33.47429307879508,37.41415686536356,51.36263890722208,97.22213793152737,71.54081847791646,66.515328486091,60.26967995825635,61.837994884785985,10.028379952738987,35.530064215816424,4.196899099163829,1.4026478568258653,23.917388507251232,25.746749672912784,24.706482328499078,60.64519198291839,66.06802739789066,56.98400299008351,399.99999999999983,398.8880209305848,385.5035794092236,355.92644130791416
100,6,484,0,16.149466666666488,9.127758533088327,116.44959522236489,9.127758533088327,29.265820193844103,31.513908548343004,35.44580251091211,53.06675026169221,100.42193841724004,71.29007312480744,65.78522921960894,59.754097093845076,64.81281842396947,10.101053714254817,37.26300020818405,2.2343596371716785,3.1084367568474818,23.80228215320741,23.73217218602972,23.682026961219435,58.595944910274454,63.65466624039885,53.22352091420188,400.0000000000002,400.86139285286833,387.47308094980895,356.28671149417863
101,6,485,0,16.182833333333154,7.428340912805275,115.220304902734,10.958931899767654,25.287184614323284,34.65518552594212,36.43585961917057,52.526302324100634,95.5547393599504,70.47142956203648,65.69932381718456,53.22076276993755,59.84471253441416,5.254418141013957,37.90492505256884,7.142298386902667,3.2028488564643567,23.490476520678843,23.490476520678786,22.5781747326227,57.716755031822856,57.38937695450113,52.52630232410041,400.0000000000002,400.7580101955358,385.7902466072658,356.70598782064764
102,6,486,0,16.21619999999982,3.7543793024549537,118.99072688433354,13.14032755859221,26.280655117184505,33.99735053838085,34.6136668885233,56.59656753627385,99.65030808006318,73.42667573582153,70.17703889140523,63.183602447338785,62.33424186974719,7.495331330825252,35.3808318522764,5.234046676197977,1.4836233465724717,24.690574936498628,26.28065511718442,24.344659672010607,57.84476453104821,59.84131342123118,54.953905462495435,399.9999999999998,398.9591126007083,381.642397411841,353.0913396114075
103,6,487,0,16.249566666666485,0.0,138.1396713740824,12.46690167382601,20.88180186711595,33.30993962335887,33.3099396233591,25.020229268313354,58.17887447785488,37.458377692622975,37.01461926333752,28.062034862014684,31.10682245028181,4.976182700227696,28.311980111797766,4.726237450444501,5.589684676968091,27.09141845914378,24.93380334765202,25.846611057118707,56.964794655117885,58.600799926425566,60.57825328153804,399.9999999999998,389.9714243616734,371.5343545064456,347.16957446998236
104,6,488,0,16.28293333333315,1.8597410746513776,129.18174357237137,11.158446447908744,22.394248042480086,33.93708997483894,35.772833826185526,56.28597843252825,91.29794545353737,69.21135786612459,66.54643061509807,55.844678099853695,55.627383632539136,1.1951195702304176,34.1152313683931,6.084245084808913,7.713953589668563,24.248056973843664,24.176633970468586,24.011038638263926,57.36573937105601,59.43003681054472,54.22030371580227,400.00000000000006,400.9499970198829,385.9175585961514,361.6945388155668
105,6,489,0,16.316299999999817,1.843004888893721,124.35845344918631,11.210561081319142,20.27305377783087,33.63168324395744,35.450906865408506,55.779449538027116,88.63684797184781,68.41496294108416,66.18642299211331,55.29117103726378,55.72653458873833,1.434467086268569,31.731305001700434,5.966713288798246,7.641188486777196,24.2409445885284,23.959063555618425,23.90592424314559,56.99913573920213,60.113659607442855,55.56590970749888,400.00000000000006,400.64908592699214,385.11305974026266,358.6716698233809
106,6,490,0,16.349666666666483,1.8341678147734068,128.15570848841065,11.156807257981873,20.25904568027634,35.280922350720516,37.8123381770929,52.16909815546859,84.55095855219027,64.61375180085908,62.0240992107457,47.71764135843182,53.28341114427997,0.5300733129379296,32.687854297838044,6.82469390407573,8.304481902693965,22.086305214969205,22.010013777279397,21.86552415868897,56.784103648474,58.14241651287739,49.82728791224431,400.0000000000001,400.67226938189776,387.2831333785342,362.89185195496884
107,6,491,0,16.38303333333315,3.650533180770263,135.03272397262435,12.906583835345522,20.407100865801755,37.22827984753056,39.01974299724515,48.326496731184754,84.04158510564422,64.30018098214256,60.65203089101419,46.230810596424135,51.2378757365276,2.7980658135873,34.10585873754599,8.546918381854198,7.586958180701458,21.97912027963196,21.903199084621296,20.93913188764418,55.339523868725735,55.62314847361188,53.2152084190191,399.99999999999994,402.9004679695188,389.8557508964409,362.1993089537293
108,6,492,0,16.416399999999815,8.16284034632085,139.25958743047693,10.95159954231047,21.9791202796319,37.22827984753062,39.40209038496363,46.2120590187308,85.80694528071196,63.98854660659657,58.901014170698886,43.50742694788789,49.916856503293275,2.5254248077280863,38.00189130414219,11.093243461278234,7.357148626418052,21.979120279631932,23.728465675006372,22.597347791493064,58.11216130234129,60.5663702261204,51.39997387060644,400.0000000000001,402.9004679695189,393.93634093336027,366.3878863853895
109,6,493,0,16.44976666666648,7.562467635418528,133.88168709578284,12.839174703412848,22.31361451596392,37.093748438986935,39.210029440780126,46.183165516491385,88.04005510911766,66.13186103970806,61.26459483051076,48.5808873845001,53.53607093577921,6.283262025608337,36.2598904461845,8.794334771189142,3.8726321898510605,22.086305214969368,23.914622459230433,22.97352554123438,59.51800423191804,63.17859027880888,51.65063462524877,399.9999999999997,400.92407977821046,389.50487213424725,363.4106264701884
110,6,494,0,16.483133333333146,7.370455035278164,124.82263278417254,13.029246839689081,24.024744096711228,35.44338332821316,36.2016163890197,48.471600151224266,92.20436303307028,68.40044363639166,63.3672176675401,53.36070746890937,56.887230886929046,8.44161543188443,35.90441654971221,6.347742152435217,2.159995593537019,20.6010481049842,22.188007849009086,22.062812133985176,60.03906119178407,64.22680775068238,57.38787938463359,400.0000000000002,400.8013193749892,388.87882097194546,362.7376016340976
111,6,495,0,16.516499999999812,7.331739871367996,124.16697059441798,12.830544774894149,23.89854810187128,36.84153689683073,37.38468467269177,44.33278243983467,88.05721762779046,64.38795567403169,59.376371815783386,51.29976518613262,54.62803714890072,9.962627408552635,33.92618554048306,6.368093688762997,0.33282719627686674,22.071459772045163,23.82815458194606,22.85413414434106,58.00068607117254,62.88215161656575,53.43877811933277,400.00000000000017,399.2686073262423,389.90279491726335,364.31167536648053
112,6,496,0,16.549866666666478,7.2967374630668935,128.08320576686643,14.59347492613393,23.784454209679296,36.89184567795273,36.89184567795296,45.93178869361779,91.28215649934417,67.7163183525519,62.71444167341656,49.46491174241305,57.767950499175186,9.00968035308233,36.480372410029645,7.463901861131944,2.8265663852807847,21.96608856953447,25.538581120734424,23.650410926841232,57.723785399405244,60.77117728353602,53.02700318950816,399.9999999999997,402.9754976360487,393.7027708847598,366.4749616391591
113,6,497,0,16.583233333333144,7.19488176275093,119.58447595304865,12.591043084813865,23.452445246437016,34.36450576784045,34.924833562279424,46.90489049287417,89.95400744043185,66.64981351966216,62.23597188566748,57.045960035727035,58.96736867804543,11.87077178443792,31.25049688368324,3.9422004902738763,1.4134500357284878,21.659462307348,23.383365728940326,22.361221268359884,54.727018570860025,59.939115577608675,53.99158357185644,400.0,401.27191466072054,388.44449674300466,368.15813464931955
114,6,498,0,16.61659999999981,9.254800991409804,122.69829008824185,12.705110613358215,23.66491076256294,36.48136611909518,36.7064229491427,49.30700135425524,94.3982721610065,70.87863289309936,65.42000101995825,61.156127582903196,64.78872625135534,14.796194576377957,30.710963742736453,3.1452988470742866,4.230648449233854,23.664910762563057,25.410221226716374,23.562053863206586,57.08052907683509,64.02455153146752,52.76048327294273,399.99999999999994,399.4890599092969,389.92436935307916,370.00066497700755
115,6,499,0,16.649966666666476,7.225114798390218,120.19879257342713,14.01878186869477,22.847819119101608,33.70708166514217,37.172908962483966,47.44301477251749,91.12208214651612,68.36402391504902,64.28218536720374,59.021455098640445,63.2412922124613,14.375578434416184,29.566992044171116,2.8413569899727236,2.2787120414632227,22.847819119101604,22.780520536629037,21.88688849701731,54.464031015714,61.384563882380064,50.84828819007233,400.00000000000006,401.22640893317345,394.2938161736693,368.1807277247419
116,6,500,0,16.68333333333314,9.105029072119684,126.7137445464967,14.681418237036107,23.743010970561212,36.601763880596984,36.82756345526823,49.30186178157512,96.513308164469,72.86299159409702,67.8853638341534,64.78759625371629,70.42995863236979,18.92957260760045,28.554779018244858,0.6084900604430459,6.118090971363586,23.743010970561095,25.49408140193515,24.49449079674315,56.99892348004539,62.3757629232328,52.84055594268104,400.00000000000006,399.79269239343483,390.15872948953887,367.94232483385883
117,6,501,0,16.716699999999808,7.0953611225359134,125.19090633314872,14.301157546785262,25.08588982356254,34.12049906205722,35.87369956598591,47.92652521386996,94.08044843002436,69.17977094472485,65.41381340110354,65.05800139552207,70.85106561139412,20.36467775694723,26.035431595900718,3.007723359680085,5.898695905028944,23.12804764790866,24.833763928875566,23.055506049156577,55.95143787767347,56.98551651889443,51.44136813838525,400.00000000000006,403.1420351335769,392.5961793989627,371.5761427915396
118,6,502,0,16.750066666666473,4.0220611778960675,119.58447595304868,12.718874210691286,28.835682279134517,34.5990784962068,36.68684250625957,52.193895987899275,97.3970163610188,68.56405224390944,66.70435606347758,67.43897318363861,73.6523760014893,18.382251296854065,26.849975353672335,4.587151177799456,7.054567459256418,23.383365728940248,23.45244524643702,23.451670202392847,56.07764276038478,61.483527522485815,55.87625963606228,400.0,403.06190637425476,395.5753910401433,370.52767902616154
119,6,503,0,16.78343333333314,8.95098767010681,131.1250955615629,14.433033939648839,26.912570104775654,36.20450454327238,39.546756110688854,50.157488578384196,100.39481399961362,73.48537371630722,69.01479608813895,68.55953112493853,71.89814085507567,20.082243376734255,30.165519228360722,1.1971782365643548,5.109084587028065,23.341320139159983,21.556832920639156,21.54920825815816,55.13764554317481,59.99380515064706,57.28632108868411,400.00000000000017,403.11257686214213,395.7146511410609,370.5362947385556
120,6,504,0,16.816799999999805,11.144161264288586,114.31118526026343,12.82462178351616,29.370618193306242,31.360309212032515,35.2409322073733,51.42918412839593,104.68588257371415,75.31645636565587,69.7691958059886,70.01600756153323,75.86095868147527,21.511888238942447,31.743357377881352,0.4992328691697594,9.83320471521938,20.236082501117366,21.985065914599357,20.17125165768897,56.19454925103673,60.098662475105584,54.96266478649846,400.0000000000003,401.61209088478876,393.0801974422183,370.08194289575613
121,6,505,0,16.85016666666647,13.00624416428647,117.58586623560035,13.138290637621395,27.93238904160019,33.6504428880762,37.346038899716845,52.157524583197755,105.9731623476542,78.0595813146272,71.53942374488145,70.48628509661182,75.88290908882539,21.04000240002233,32.778228847221044,1.8671863601751966,9.051299733775863,24.225810925277013,24.15445344796066,24.170955138120917,57.78030962127366,63.17693361348722,52.157524583197485,399.99999999999994,404.7361265735979,397.0851374647178,371.1328747953954
122,6,506,0,16.883533333333137,11.054157946614167,120.4458037876322,12.896517604383304,24.021431024352385,31.536117529151095,33.36655252813148,51.58607041753279,99.50447894297396,75.53674596853025,69.87332866331087,66.54055476325163,71.94194694610621,17.75564026066047,30.167349957432748,3.275312281092738,6.033469991486527,24.021431024352385,25.793035208766508,25.742805297009284,58.03623515620393,69.75840542537776,53.46018546002258,399.99999999999994,402.85375156288165,393.0751076096346,370.77230639084803
123,6,507,0,16.916899999999803,7.35799751213157,120.21742510702444,10.707459153723661,21.414918307447437,32.32005549594772,34.09428664990064,51.87564749039556,91.03089697361905,69.62135992611594,65.67081237738569,62.81003158650253,66.75155178727493,13.413883263918933,25.874172930876966,0.06357290646417368,4.132238920164696,23.199494833068066,23.199494833068123,22.314090168889095,55.689866062526505,59.50424045037079,53.65613563908373,400.00000000000017,399.4024198645153,392.0101714525951,368.7860961497541
124,6,508,0,16.95026666666647,10.903494167182227,116.13628930851465,10.343962806796942,22.47812906979931,34.86561690512384,36.57143122513797,47.055873136374885,89.66425299003896,67.32411013281398,61.44279104255679,56.93791520648119,59.63155230434086,12.446461072868601,30.93038460645721,4.41199179821831,3.8082455521463316,18.96393181246114,22.47812906979928,20.55059337591183,54.98735041147938,60.328182588270124,48.27182643171922,399.99999999999994,397.7310119069876,391.10728707023947,365.62083998193214
125,6,509,0,16.983633333333135,9.170839073866395,125.38250978291106,11.005006888639766,23.844181592052717,35.0417268988534,37.09374843898669,50.06303847849145,93.82983004294167,70.08345379770692,64.15159322060606,57.510136615413785,58.72386139210994,9.48860538043266,34.34160524717265,6.482651494222637,0.23253605534830513,23.9146224592306,23.844181592052717,23.741364089952867,59.10953094732179,65.16681160859014,47.68836318410544,400.0000000000003,402.75334973566265,391.3273437821456,367.31013701445073
126,6,510,0,17.0169999999998,1.75431847165554,119.92406101722895,12.28022930158973,21.124791797764257,35.47889541258103,35.78121648011431,44.7265206001428,77.36922365181805,56.5750707643569,55.06511927909787,49.5884799294588,49.85791887072446,6.964410894888488,26.551450451244705,1.7747825913804718,3.1454067708622233,19.377080858557065,22.873514399818188,20.858088474935414,56.33616819767724,63.08385646589551,45.612280263047865,400.0000000000002,402.2021401163793,394.858079539485,368.4277631994643
127,6,511,0,17.050366666666466,1.7543184716558193,116.63249626911872,10.525910829934013,21.124791797764203,35.47889541258094,35.78121648011442,45.10338802456989,75.76137607307331,55.08671739895566,52.915359326574844,47.7287412677922,48.368918125333494,5.690460955921594,26.08127938130724,1.351484477031363,2.3473151443175766,17.630682439974457,21.05182165986814,20.041092179136342,55.2804571613799,64.17180240500738,47.399074980366414,399.99999999999994,400.36914566035097,392.94384161176777,362.9743846876397
128,6,512,0,17.083733333333132,1.7543690908677532,116.43778186354086,12.405262808567231,22.874174393597524,33.745963248767886,35.47991912279254,40.005770479220246,75.76356209643815,53.357052851220764,50.3282884070494,44.536239421869254,42.84129067746744,6.633678706538376,30.362961128164102,2.0164045407539106,3.243781217734522,17.63119115676054,21.052429090413938,20.029618438155694,57.97893636022877,63.133918403547455,50.9975510824644,399.99999999999994,400.5497808758607,391.2085726951764,354.54319236515676
129,6,513,0,17.117099999999798,7.743668132079975,117.85903599547558,8.657684169264956,20.850464551503215,35.31656041728394,37.37874302403927,39.48511491226272,74.63707122728411,54.122645458521696,48.7900316509149,35.8120936848195,42.33613817588366,2.525436577186042,34.198620316061806,8.383046415937201,5.471779250569853,17.40172981361188,20.778442006235828,19.87027529133229,56.89247400272018,62.6799328254383,52.20518944083535,400.00000000000017,395.2495958798604,382.838055899462,356.78483480293477
130,6,514,0,17.150466666666464,6.242852386604261,119.8712694066218,10.388734331563288,22.57542061377981,33.61878896847622,37.37699205820979,37.37699205820978,74.53308535939544,52.20274394654042,47.98648603026879,34.574686442545726,41.22012084539358,3.011752333352888,35.43271913407466,9.588083432185044,6.466917534140521,17.40091464884676,20.777468663126832,19.849924078523486,55.536021993989266,61.87049152876608,52.05897406752352,400.00000000000006,400.26972356402825,389.71218294395766,364.12065116398537
131,6,515,0,17.18383333333313,4.876598490941694,116.79682451337894,10.344827586207058,20.761369963434976,34.86853175199414,35.165651817881354,39.31639396893578,72.59828714285278,52.18188258766058,48.507925479191044,38.96933435917026,41.46015779243669,3.8969334359171626,30.96311618081336,5.125127479048274,3.7477135989009867,17.327371760553188,18.96551724137938,17.95803346242178,54.55706810283823,59.4813227243651,44.96001658760449,400.0000000000001,398.812893645543,391.66782620990256,362.58173870367415
132,6,516,0,17.217199999999796,13.083540778447947,140.765219999729,9.530461390884726,22.506670529880836,36.29091577358699,40.347832633900595,42.621519053910866,86.30199843860979,64.23211184555392,55.43226473859397,34.031128032038964,43.05418620473313,0.8931453521195181,45.87102923834061,16.168220989649853,9.732994221814693,20.896918976428662,22.50667052988096,21.446939032304613,59.47431998600632,65.4515234963443,50.603346628027474,400.00000000000006,398.85425427993783,389.27993093508036,364.7814444066556
133,6,517,0,17.25056666666646,5.64602426971333,122.46797998047207,8.927148208441565,19.63972605857115,36.10807988825299,38.1681263029319,41.219844127415485,73.9823101309005,54.62364349869353,49.18023816307186,41.51375352895559,43.28695405657436,4.85022497260411,29.049196878929934,4.120083578878734,1.7210475709240427,17.943345829229866,21.425155700259623,19.60951171719512,53.7175453955079,58.41131149802794,50.02390247925547,400.00000000000006,401.9160358092373,392.05124150332324,366.1524006351931
134,6,518,0,17.283933333333128,7.984684095716099,124.75030847439409,8.927148208441508,17.85429641688307,34.666772925137046,36.41576233246227,41.219844127415456,73.74494466229635,56.063627953810794,50.14061774750758,36.64936858707085,41.53297778729507,1.572120769935168,32.5350950827725,9.410425034222158,6.946320848720802,17.943345829229717,19.63972605857123,19.60691045341173,56.69669585191832,63.91061172530891,48.338673450688404,400.00000000000017,400.19121983404403,387.1419186264827,358.09327521190943
135,6,519,0,17.317299999999793,0.0,141.0710404692902,11.059907834101296,18.433179723502377,39.10267914395652,41.21784290322187,40.258672198786286,69.09369516678825,50.98365598502973,48.34352599001318,36.46133912449034,38.33985628608718,0.05658184221670126,29.27544516295984,7.174577593087179,8.634389122279913,20.360112474077834,22.11981566820268,21.08239440997056,56.66105679587929,58.8224831685601,46.23017955385972,399.9999999999999,400.42450239054915,387.0133770159042,360.80094760285624
136,6,520,0,17.35066666666646,0.0,139.01982117618715,9.21570921637498,18.431418432750075,37.275236933684866,37.59286490071447,40.254825481719266,67.26836485378797,49.18115859101938,46.51600986911126,34.605841965003606,34.93199387172615,2.5810987100970806,30.079078432045094,6.135029831624934,9.643974483259967,20.35816706485627,20.274560276025035,20.16518512942855,54.68105415464686,57.301516025900014,48.23963847589814,399.99999999999994,400.23348741952327,386.6426611927921,362.3543737472548
137,6,521,0,17.384033333333125,0.0,144.1652912195818,7.3713153981602435,16.585459645860812,37.26890702713407,39.09230328227989,42.54500774374842,65.77634184811629,49.61968533057695,46.232013028654364,36.77243687581745,32.17588226634018,4.430012775800492,28.2454949915699,8.260474950364824,9.559501253043095,22.190597884263923,22.113946194480906,21.98352204532557,55.72489754822675,61.2540864262935,53.727231860506464,399.99999999999994,401.8423420987183,391.5306630839933,368.3906595687215
138,6,522,0,17.41739999999979,1.826179432930403,148.3257965639814,7.304717731721631,16.435614896373867,38.523297340179276,38.73911582065539,42.160626112886014,66.9737458045474,50.93698624711511,46.80665455442113,36.293125552612764,31.847022667905208,4.563105592199804,29.99169402052712,8.084329931968114,9.555221111871333,20.17081111887892,21.91415319516523,19.979605193685984,55.615286961341894,60.40682641102677,56.72925810385746,399.99999999999994,400.0833645959617,391.6377935379866,368.8746844643201
139,6,523,0,17.450766666666457,0.0,148.0225907194654,9.216198432639265,18.432396865278783,37.048659179038026,37.59486051933712,43.14913478867543,69.77581337880372,51.906100853359774,47.90065214661206,34.90766883811523,31.93376809774145,5.316807781221883,32.80618547360746,10.7598143023489,10.47449541212859,22.195545016708746,23.96211592486232,21.991502153908527,55.845685858902414,61.332587593909466,53.48572146243092,400.0000000000001,400.3268789448608,386.5093865242614,361.9232924584099
140,6,524,0,17.484133333333123,3.6856576990801027,142.66161671943266,9.214144247700336,22.113946194481,38.87451716832341,39.39518121667461,42.545007743748435,76.64927548154758,54.97686941014837,50.13372930886828,34.348854414730795,35.49125315445963,4.207103051116746,39.061249216112174,11.292172158088647,9.43577420602935,20.35470993605802,22.113946194480885,21.095930573549936,56.82335269824188,60.07479526516238,53.47380010849264,400.00000000000017,400.00000000000006,386.0143639658079,359.4035991257835
141,6,525,0,17.51749999999979,5.5045292431162185,136.38451691631883,9.174215405193765,22.018116972464945,33.230421533705105,35.293911356680816,44.11261949053431,79.93685040457794,58.312225333596395,52.75234871852467,41.1824992813024,41.7549371221545,0.5944546808849509,35.953499773518615,8.036146611962181,6.891270930257974,22.321829484638958,23.85296005350373,22.842471534002357,57.023615684882884,55.42739478250678,51.506499745606746,399.99999999999983,400.26503581416944,388.2633747666211,363.9192816491358
142,6,526,0,17.550866666666455,5.723345113798137,127.32352721092461,10.859283836878582,21.718567673757278,32.77833248909513,36.91446679192434,43.0203716857198,80.14726950489325,58.6189018806451,53.96488564425135,42.455839181982924,42.68789868818328,2.2045653089030566,35.797941444569005,8.392818807578465,5.03348119401187,19.990785061071715,21.79384889662061,20.625669920138193,57.418152105565696,60.8658933405419,54.41694412555648,400.00000000000006,401.99319142173516,391.87573054110237,367.5662168077419
143,6,527,0,17.58423333333312,7.565013063843147,134.74120649785215,9.173925859236297,22.017422062166943,37.10623371313347,39.22322702763698,43.18571397191536,81.06345844813886,59.17004387275465,53.916015583595026,42.068456331769994,43.025057403611186,1.5008740954749555,37.01606331440246,9.494540523388196,5.569177504454046,18.43936276854158,22.01742206216683,20.990246507409665,57.85787172445737,63.773404789405674,53.335156788667796,400.0000000000002,403.9195274837715,391.91028450289696,367.14963626775784
144,6,528,0,17.617599999999786,7.3393723241550815,127.4522736638016,9.174215405193644,23.852960053503693,35.29391135668075,37.10740485405345,43.18707699240393,83.07605383426285,59.4273921647714,54.0654887928614,42.87337523656595,46.73041835457229,3.533764937595265,36.686499714908564,8.83998610571939,3.8904856883934826,22.094436497570783,23.85296005350379,22.85242309801356,55.44778170220462,60.397282119530416,55.31983424614102,399.9999999999999,402.0986502912163,388.2633747666213,363.512005898573
145,6,529,0,17.650966666666452,9.008186531350965,126.57704179585016,9.008186531350965,23.42128498151232,34.278487539136066,38.21849869506953,42.824429892172894,83.57733130554796,60.428752314296126,54.001261211461156,45.250594730491116,46.7145845600071,5.4566893645592245,35.86775082313932,8.18503404683895,0.26617996900290564,19.899734469787006,21.619647675242316,19.76386269846455,57.16214834337063,59.95703801790086,55.966870458579734,399.9999999999999,398.30855734584526,388.05946019300217,360.1562650411798
146,6,530,0,17.684333333333118,8.96824918784393,129.5904249619208,8.968249187844064,21.523798050825594,37.837084774275525,38.049058896571374,42.63456992855663,81.42854194783071,60.16084446952948,53.58470067495773,45.499029729120025,45.17012108047584,5.152902162093142,34.16264497251507,6.950936108014844,1.9405610270009674,19.730148213256783,21.523798050825594,20.551308729454263,55.64037972898416,57.61383162084951,53.92893921438426,399.9999999999998,400.2412157491889,386.8383362821602,361.09427809753987
147,6,531,0,17.717699999999784,5.4725246432507415,123.46578359704554,8.65282121203648,19.036206666480258,33.06238342801431,33.28806784609967,42.81179498017384,74.91564434057172,56.04998103796804,51.97600896272809,41.78572651128263,45.17135040771916,2.784230177990594,30.136507446569908,6.949438524264451,4.4993159676328105,19.11470682082374,20.7667709088876,19.851561169072795,53.30130252745158,55.56209743197985,53.67539658362098,399.99999999999994,399.7940508651418,388.298665978826,363.34019504138183
148,6,532,0,17.75106666666645,0.0,129.26894120229423,10.434683982658985,17.477879361904346,34.955758723808465,35.171403944566016,39.65790081901159,66.65595397315847,49.800646038516085,47.59228280878108,37.24139712463693,38.08036364850966,0.4630659385011313,27.408055724699807,6.107022553645152,6.521057981010927,20.941705679499727,22.608481962427977,20.788936721418168,55.502538605295456,56.232548437756236,52.20239709959684,400.00000000000006,398.6366437017806,389.53824295094523,363.2750636320428
149,6,533,0,17.784433333333116,2.491788680238018,132.72137625903744,10.571764038481412,17.619606730802264,35.414971227525314,35.63344937153663,41.8813270875809,71.02690544369182,53.58794181035704,51.0152805884328,39.462567123288636,40.98673008522917,0.6958135261033931,29.301480710351143,6.008294574606452,6.505304236108827,21.143528076962614,24.73029652988045,22.685729882797318,57.04566448132829,57.642076075131115,49.36635240305707,400.00000000000006,403.73513190560533,392.4389182433123,367.3761945821841
150,6,534,0,17.81779999999978,1.7777075487433318,128.5984351627923,10.666245292459818,17.86573975559797,35.73147951119618,37.710871880487296,42.2556260491465,71.66168229532292,54.38739288302004,51.32120747525926,39.80954878425962,41.11856682939003,0.6545090225652075,29.60690813839028,6.044583326043266,6.506589694912805,21.406433581625667,23.178470655028665,22.060804113521044,55.20976107991123,57.21178867834601,48.12960571678963,399.99999999999983,398.77748753431723,387.56470871928747,362.05928584289813
151,6,535,0,17.851166666666447,2.5253561965245757,140.4243381987422,12.49987544031852,21.428357897688848,36.11347659118502,38.17383089979196,38.547889348223215,73.56115955820545,52.27548325392133,49.94185359101766,33.82911489422145,38.847300270339474,0.18545467694343643,35.91275273517476,8.934551789218744,10.832734953228623,19.642661406214728,23.21405438916289,22.227288486609552,58.42913233584329,64.77822774649695,51.908203647545605,400.00000000000006,404.0451536633697,396.4165773477465,369.2291850916217
152,6,536,0,17.884533333333113,3.524194878827629,134.65929724372634,8.810487197069037,17.620974394138187,35.4177201968091,37.37973145562904,41.88457798621889,71.27243059891806,53.90981537053777,49.89970006625117,39.623347770449755,41.23617930786088,1.0570585076275165,28.769427424088803,5.514140256283554,5.753885484817715,21.21846297374929,22.907266712379652,21.053990069446854,52.624077663229286,52.07920214383364,47.57663086417303,400.0,402.0054520350964,392.3309058506863,365.4472840864301
153,6,537,0,17.91789999999978,5.672018811508476,130.14780570606158,8.968249187844027,19.73014821325674,36.27432306167191,38.34385401982222,42.634569928556594,75.86523943494232,56.32174734019922,51.76936464409232,40.49923940766678,44.59242465593559,2.468113056205425,31.630671369751212,8.125360960316584,6.4170939461340595,21.598404160320232,23.317447888394412,22.32394393534082,55.18589867245754,61.77492858430469,53.92893921438425,400.0000000000002,400.18092544284434,388.62643101751064,364.8655884478037
154,6,538,0,17.951266666666445,3.9392524146169516,127.62205131376747,8.808436179613548,21.14024683107255,37.37102972552207,37.66057163886834,41.46519289881591,74.32566590780854,53.318330770637694,50.18288766038313,41.26396909624373,44.03576333672822,3.0735621618274536,30.42267710725241,5.353586456419521,5.577118250006947,19.45847152013717,21.213523469614678,19.223734248520998,54.687053301170465,60.27534814085675,51.08892984175877,400.00000000000006,401.85394931286294,390.76907427624695,362.75360410315994
155,6,539,0,17.98463333333311,6.525817855056089,140.5354580841135,12.669553556553831,19.991398994103797,38.692017160726046,40.471404281469404,40.83402241606139,77.91139516200077,58.171924588122664,54.30735402934306,37.89296594900918,43.14512784739827,1.69727758190038,36.64903286781191,11.106940267225013,9.094532971421245,20.23570214073482,21.71923466837804,21.627849838419024,59.22227184794082,64.18694698978658,59.97419698231128,400.00000000000017,398.59710580719525,387.21215653243115,363.23846287235705
156,6,540,0,18.017999999999777,10.859617334189078,145.92172332687116,10.859617334188943,21.719234668378043,38.39454529048016,40.471404281469646,40.83402241606146,83.74745252991038,62.19969004249477,55.02657949366392,36.13218035100624,40.72145976361867,0.3805743903143366,43.63173451308023,18.27876409950227,9.17855882522474,19.991398994103772,23.529170890742815,21.625580061382948,59.29125133806701,64.30587859867757,59.83748789870722,400.00000000000017,402.21327808506453,390.8163227667753,365.0332213543789
157,6,541,0,18.051366666666443,8.968609865470894,148.17489813857142,12.556053811659242,23.38727320252064,38.05058912214593,40.46821227866718,42.636284570420436,86.5645095032369,63.69607499395412,57.08217889496905,37.675862030249846,42.22294882700419,0.16239595702677434,44.98368009646197,16.23959570269392,9.094173593508458,21.5992727870713,23.318385650224183,21.43626632755587,55.53941730321321,54.40264560402454,52.048854272814054,399.99999999999994,400.5787202865545,391.0560736028056,365.7961632317238
158,6,542,0,18.08473333333311,9.049681111824322,147.31813527129808,10.859617334188963,19.909298446013167,39.98279798820731,41.98115757595549,39.071153222386194,78.35163525925303,58.62070211410541,52.42989463613549,36.00156775140681,37.95889183807469,0.12095823007496165,39.7952576946675,14.28406735158137,7.290482412700953,21.79451820318826,23.59868114820853,22.54221560488213,56.34454280947125,61.53475049996109,52.519346974632285,399.99999999999983,400.3274528811661,390.2123434572055,366.17116687572224
159,6,543,0,18.11809999999977,3.6363636363636043,148.39081747447796,11.059568236905848,20.082474576704104,41.97598683860085,42.445881927013694,41.460924549059555,74.89938154198535,55.297841184529226,51.69518358448022,32.899910042370266,37.75417395777288,3.528886239624285,38.26141726578692,12.571998117981366,10.619384093583449,20.32789070454356,21.818181818181838,20.824246774166,56.342186793382666,55.08771409614377,52.75861137653422,399.99999999999983,398.51791543871605,386.84141581756137,362.8582584184618
160,6,544,0,18.15146666666644,5.749358173884891,135.14049531846268,9.090533456791619,19.9991736049416,36.543492228157376,38.56786711140314,43.21590270671747,76.89968051129092,57.08970812664584,52.6040594630241,39.13654714406732,40.511674009698254,0.927664949036739,35.50228328489993,9.702283996395863,8.305329720199438,21.817280296299753,21.817280296299753,20.83426338483673,54.721318287884515,56.27106443803996,54.664273477385095,400.00000000000017,400.24783661685126,388.3477595088081,365.81463260235756
161,6,545,0,18.184833333333103,3.686479373055644,131.07754218343564,7.599871920884857,18.432396865278765,38.88318378407512,39.10101845088068,46.99357564917135,75.93163190501939,57.614141437025374,54.55276081437705,46.98090846108278,44.11378892964535,0.3265638076347841,29.219158313625826,6.6253708091323915,5.440885133982647,20.35924777890737,22.11887623833465,21.132552839822665,56.14683499401792,61.78144442066525,59.012463561023864,400.0,398.2933459783898,385.9816083265133,361.13388674684217
162,6,546,0,18.21819999999977,3.6865967999191263,125.83127711116451,11.212346439432254,24.0336707250443,38.88442234527226,40.71979257991278,45.189015742404216,83.13255348111532,59.444587229999385,56.301682284559774,47.0739300750231,47.3668745896116,3.9322167535143535,34.95053400974666,6.985599963263326,3.5153341750615255,20.359896289956275,22.11958079951404,21.120172792156723,53.82292100727278,53.22576488138088,51.64526075222431,399.99999999999966,398.5789154444927,386.6755026658143,360.3259419682385
163,6,547,0,18.25156666666644,3.6199095022624257,123.55509984344611,11.009524941716148,25.403925516051167,38.39493834497086,38.69241326051042,44.038099766865024,83.33657508214552,58.172520108554515,55.38080020594248,48.19305594424645,47.79740029681375,5.3963034135974794,34.586897846418196,5.264418197786654,3.6048625654989337,21.794741319080984,23.52941176470587,22.53039103436845,52.39140198089467,52.9848854520439,50.80785103210211,399.99999999999994,396.8797858588074,383.4456527067126,356.0646105981544
164,6,548,0,18.284933333333104,5.801367833719127,117.92626918647335,11.00732153939386,23.919652351485013,35.049097122280955,37.10155025807401,46.44718706627307,86.30204952739743,62.617159856193005,58.93446389015139,50.14472722193807,51.89602406125425,5.874603321756695,34.649075441153514,6.539652754408394,1.8288859397921442,20.26330670581095,23.91965235148496,22.789027225531527,55.69788998457983,61.25105274722148,58.73437278175764,400.00000000000017,398.1657565759745,385.78441799079064,360.9224847059879
165,6,549,0,18.31829999999977,3.669377337422558,125.24354075845454,12.842820680978917,23.921413563721227,38.919623970355794,38.91962397035603,46.450606988644616,86.40585055199888,62.80962269434771,59.78126122894287,51.97743999675754,53.152447170921846,7.415847165244486,32.96671071664673,4.855218323433405,3.658041202586787,22.09257712692545,22.016264024535293,21.03373691487468,57.81922094755555,61.543771990189384,51.502165185017994,400.00000000000006,400.1135891566291,386.26623888763453,359.8329193832582
166,6,550,0,18.35166666666644,3.636213382716534,116.86905210910605,10.908640148149978,27.332136738692487,34.734879566857444,38.86668183818865,46.0307848541036,87.4394025591863,60.43666680901491,57.42281672857939,51.37772805449674,53.05753331676465,7.481764227337862,34.347597073214956,2.873351106510995,1.812421467183981,21.892903678326384,23.705211030436335,23.48964529572652,57.25704647243447,60.89294075721182,52.850331978917595,399.99999999999983,400.1858918519646,384.58865989421747,358.38844498355076
167,6,551,0,18.3850333333331,2.5826077213769714,124.51544367077071,12.913038606885097,27.39269149395644,36.70575232559979,38.73911582065532,44.16938784878035,86.00510258438429,58.69398653064567,56.97615473763574,51.49313975036114,52.39325432284659,8.573042452575692,33.33717020290908,1.6245970332664683,2.733274738401178,23.740332628095555,23.74033262809561,22.777289486676523,56.64135602469918,59.84664206330615,51.16562407698759,400.0,398.21181473494937,384.2317980864871,355.9738549582599
168,6,552,0,18.418399999999767,3.603603603603535,124.7934743850291,12.612612612612745,23.42342342342348,32.48244392309885,34.65834966066916,45.93711273507008,85.16253908538009,61.92014514392645,58.64935762296602,50.74231330833766,52.506695097552324,7.351590788394105,32.18363078474738,2.809941368008367,2.1237928944249234,23.492621280009548,25.22522522522523,23.361721838674555,55.48000514974717,60.08700204380739,52.28330857134051,399.9999999999999,398.6911465106563,386.9471623941223,359.36800299664156
169,6,553,0,18.45176666666644,3.636213382716626,122.67842462352576,12.726746839508248,25.45349367901651,34.971980473371644,36.768932319761305,46.35280748514829,87.74130903380708,62.48047376990814,59.17416335890914,49.40025446330469,55.016935140869236,7.540504374210855,34.16445530250928,4.4004702946273255,3.6928569809184637,20.08164477381642,21.892903678326302,21.692770648389455,59.57219584787049,62.09306827795848,51.03668689908837,400.0000000000002,400.1858918519647,386.4022112648184,360.1962571857239
170,6,554,0,18.4851333333331,5.446084715153375,114.30292628886691,10.333219218068312,22.388641639148116,31.190426578804168,33.43913754746731,45.59774878868862,82.95229101184282,60.6694815020386,57.14338918963301,46.30864088279725,51.71205992505213,4.811722328950168,33.11268776720749,6.408187045980185,4.499127838902496,20.66643843613668,24.172273845775344,23.159902485863768,55.75346011781318,59.22549177512991,51.694791508321984,400.0000000000002,399.5511430986428,386.15774648702114,356.125638485219
171,6,555,0,18.518499999999765,10.429953219139213,120.74795075789326,8.691627682615959,22.664992037454148,35.15545831602557,36.87545324355878,46.02461021367773,87.1939653190312,64.9026600785709,58.268784112300864,45.583897233741936,50.3089899961642,3.543819571816698,38.18713987200613,11.514653624314064,5.3985288804310585,19.121580901755056,22.66499203745433,21.599635489904642,53.102093895446615,56.215355949192144,52.149766095695576,399.99999999999994,398.11070563375523,386.5693627984938,356.31857457861673
172,6,556,0,18.55186666666643,10.384843419692187,130.37471380170547,10.52808940605299,20.7696868393846,38.23478155915421,38.70202637020542,44.498916046367235,85.67058737562391,65.17586710488777,57.849500135718245,45.2326204428316,48.18762647616552,4.277564913421543,37.03718236161876,12.356794892200014,2.772393300936983,20.841679037362237,20.769686839384544,19.85498435880595,55.1933149372158,57.373600287653176,48.46260262523057,400.0000000000001,399.8501872606629,391.713454987442,361.66831392055826
173,6,557,0,18.585233333333097,6.9802473990759335,124.34101432664568,10.614796832827867,22.68580404699708,35.29169182036149,37.01835202684801,44.49052212199245,84.41483051736219,61.96812667697596,56.81626853423904,47.14424904017062,49.8169248686562,5.487748319964112,34.459992444325394,7.579883907016324,3.6475452905150405,20.940742197228072,22.752822816482936,20.844680744294806,56.13714598765682,61.97540917037304,47.116669943762936,399.9999999999999,399.6229737576504,391.2831831975265,360.8524617527813
174,6,558,0,18.618599999999763,3.8874913230075627,115.58342652486944,10.431233832222647,20.934781460701128,33.44146483331687,33.75632080809482,46.03026121869799,80.44383455779445,60.02367171951294,56.495966664735306,45.29212517426049,50.57981825680565,3.5106814728374047,31.162715789754316,4.334174657823951,5.4610600688582736,20.862467664445198,22.66777489608567,22.472695600817246,56.82102976407208,59.68158503823588,52.185136766324085,400.0000000000002,396.42119740860704,382.95637362701865,352.4263358496254
175,6,559,0,18.65196666666643,1.7465750223982202,120.96844675215192,10.624001102599054,21.031548321165353,35.10572347611848,35.105723476118705,44.21974764720901,77.1662066639642,56.568542494923776,54.21583053328902,47.62208640278129,49.11500960214153,5.34423232234758,27.748898596804565,2.661297877120319,3.54839716949391,21.03154832116524,22.70547529117779,21.771796657337006,53.377413519155425,58.040093946142974,50.680780065670305,400.00000000000017,398.356968744351,386.76680381573794,358.1841717021566
176,6,560,0,18.68533333333309,2.46965342621019,126.17004715459872,10.477852109122573,21.028341192433157,35.10037015772718,37.04480139315191,42.81128364929305,75.59721687151706,55.140232505198355,52.401185151370214,47.61482444758633,48.71812115218734,7.019995698883122,26.068088804789454,0.9843137266537951,1.8712777440781565,21.0283411924331,24.51061040632723,22.50941610073312,53.49907353879183,58.29084255975522,48.92781732199637,400.0000000000002,398.2196494214935,386.41198550785646,357.63105753842535
177,6,561,0,18.71869999999976,1.8263126702634838,126.85973239427801,12.784188691843152,21.991716749422505,34.891654573708266,36.934887972644525,44.17261042993855,78.72233855425345,57.085053702911836,56.084799954399045,44.276063043423164,50.719141466933365,4.111348711175083,30.516177591550672,4.122069307553602,5.526467433143921,24.02139273095176,23.812203905265275,23.63355471651971,58.598779805169784,59.81020719594625,52.99454623235441,400.00000000000006,398.34135997418474,382.68114844043515,361.8219939492337
178,6,562,0,18.752066666666423,1.7467082368765192,129.83342365457415,8.906499384386946,19.213790605642618,36.846850622865624,37.05327717149526,44.223120368413305,73.54865515862048,54.40091887853847,52.684736157805446,44.7207644130209,46.56935164662809,2.6761524486522603,27.062457291994065,3.8046504691683367,4.492496881673333,22.774289078066214,24.516218386206823,22.564586610222875,54.51182819102189,55.67256901212414,54.14795534317426,399.99999999999994,396.74892536036964,386.91066009057926,359.94906181879327
179,6,563,0,18.78543333333309,0.0,129.4406302437573,12.17345280821571,17.477383800307468,40.337304570672856,40.598873899697,44.029601139470195,73.22680814923852,56.0831509866193,54.926365580726156,42.75926650770532,46.45907943173427,1.818193779808439,27.790880506491362,4.756902330894377,6.797084886144489,22.674629379125946,22.6746293791259,22.46843534292401,50.8882840465003,51.723384677923946,55.67723623537933,400.0,395.15055215562427,381.8702533157799,358.3739340502931
180,6,564,0,18.81879999999976,4.028583487619642,132.51529224921057,12.611461143891214,21.694586020133066,38.005580611119385,38.514606597866575,45.18483376669312,82.95361116124072,61.493658092492154,58.87922688860397,44.71718981850131,50.018657558922314,2.7782240763929167,34.9270044020725,7.38911986665903,6.209835459471265,25.28718461432325,25.287184614323145,25.06244969870386,57.6468215621735,60.84470090058369,56.111675022620226,399.9999999999997,396.6221771419334,380.86629699366324,356.40101942786305
181,6,565,0,18.852166666666424,5.355222083991299,136.83497740411752,10.710444167982576,21.495137738272646,39.63507559872782,41.67297278283883,46.71985831013838,83.9744055570273,62.70668049115945,59.035065334167825,45.0577530707036,50.117602835488015,1.8817623092172653,35.60712458441208,8.677015092502074,6.774344313182382,21.716362822618485,25.05470792545116,23.908835562111108,54.173846035356405,58.35554005583924,57.23382728266399,400.0,395.08249473594446,381.4298464910064,357.3939325260749
182,6,566,0,18.88553333333309,5.4018991013599225,138.02765410673544,10.952823148734476,21.68249297803931,39.9805415911952,40.263378660785754,47.12707646161684,84.6489060911221,63.124965641059134,59.77122551896662,47.16282048892867,53.071361758235184,3.956612457124834,34.026867131274116,6.752618593493253,5.064463945119883,23.477382409498286,25.2088624730128,25.032168145410196,57.29174837916844,59.87673518449003,57.732686957994545,400.00000000000017,395.03278824087647,379.36992084296696,356.54807523047316
183,6,567,0,18.91889999999976,7.232405706795689,130.76108571919087,12.278812270298504,21.339742626953573,37.21042037676255,37.49871792680168,43.993006437212365,84.21583991333038,63.172535415077505,59.12644800352268,47.95628192666004,51.438563118059506,6.370404612752964,34.29065321560472,7.67238511754897,4.0351062470072065,22.870874995874534,24.55762454059678,23.575146997559784,56.84281553082462,55.32383827522915,54.63163355250683,399.99999999999994,396.8181137304789,385.17528477304984,359.3883693165379
184,6,568,0,18.95226666666642,7.038630134333038,129.42756653060795,12.31760273508268,19.673569311058845,37.327973236881455,39.070737839202195,44.30704457425085,82.72262172130915,63.56724785078131,59.01264075207587,49.53047775772882,52.581972976212,7.802816632497297,31.06790769422139,7.9461754682649826,2.539499376455751,24.885315491254225,26.394863003748778,24.601400209415658,56.432181708257986,56.3195426230119,56.74725033793395,400.00000000000006,397.187877815903,385.55377531662947,362.1005811098492
185,6,569,0,18.985633333333087,10.503609184253536,130.49909571435194,12.254210714962493,24.757244270396605,35.403724933996024,35.403724933996024,43.904863027374795,91.03127959686402,66.61493137109706,60.50303313027598,52.02933363232796,53.29834176970189,9.558496776670836,37.804161769830785,8.043874161095573,0.4809950198110755,22.82505141909819,24.508421429924905,23.486884478007937,55.03811099029508,53.810038599287964,56.26488876784503,399.99999999999983,395.5972139219598,380.654203989906,354.80249313177757
186,6,570,0,19.01899999999976,8.860580253654533,128.37754679074598,10.632696304385316,23.105566440445983,35.619091792074954,37.59225829564005,46.10908387990043,88.60580253654445,65.59223701966205,60.55726331236315,54.85217828035445,54.685454334213546,9.180237284382997,33.28226774837617,6.8877830249457475,0.7919387441692152,23.308547497123104,24.809624710232477,23.773792695028305,55.456552585115105,56.102607876411184,55.39103000866738,400.0,395.3368097634451,376.13137085528365,351.9067321778226
187,6,571,0,19.05236666666642,8.896624627039,130.48652378224565,12.45527447785473,24.974015425336997,35.76398837981736,37.74518162070319,46.262448060602935,92.5420034331986,67.61434716549667,62.77969462320698,56.983134399780965,55.01819873082309,10.021171911685656,36.15481630882664,7.859742675831853,0.19649356689592423,24.974015425336873,24.910548955709345,23.97221516128718,54.035730896344035,54.42871803013554,59.147501174150264,399.99999999999983,395.1744063138511,379.83065431741824,353.3382702134872
188,6,572,0,19.085733333333085,7.054758754902753,127.76711516458244,12.345827821079766,23.19771600900169,35.449724011892954,35.66841654895793,47.61962159559361,90.01731185552917,67.02020817157613,63.062961431128315,58.698955328194415,57.96137683192387,11.032945006712907,31.418795111967256,4.824992663102989,1.0244145781534826,26.689467994863815,26.455345330885354,25.400359465315546,54.3656816626052,56.49646398516444,58.866033231250604,399.99999999999994,393.45699434634787,374.1558663469936,350.015760950918
189,6,573,0,19.11909999999975,8.77987151191063,132.64290954692558,12.416613368037057,24.833226736073996,37.04231848884069,37.53844306888902,47.44381306300338,93.13287763465613,68.48299779290215,63.70555573594493,58.14476495173062,59.39289864964735,11.836975273332314,34.12072812394308,5.992056492844199,1.547482836847962,24.8332267360741,24.583640233349477,24.435007679540547,54.93817756521287,54.03505643419999,58.60851957009108,400.0,393.483241671357,376.1967478092374,351.97102142493765
190,6,574,0,19.152466666666417,7.052085783767964,127.71870559840742,14.104171567536266,21.44808158297672,33.912394621658,34.23168446493714,45.83855759449261,88.22156496913986,66.99481494579685,63.08942401375111,56.59611624354966,56.75819568867166,11.112571956179295,31.331982735152906,6.3920081170001595,0.9826066360524237,26.504023918274033,26.44532168913029,27.163502005920577,55.41091030109476,55.745199156658884,60.356132192959016,399.9999999999999,393.671279998854,376.350367392466,351.8497902859066
191,6,575,0,19.185833333333083,7.131895888420789,127.02691304206363,12.10817178894527,20.828813681835694,34.767320136590065,34.981802862748154,46.702948328789105,86.5561032489864,65.75283120807977,61.98134572820459,57.52702110249709,57.2539977996729,10.976547970954584,28.945526086464724,4.697012005995816,0.8645737922769285,26.17569822945299,25.946082404882823,25.881597910325468,57.436013334889026,55.07992335125698,59.21671885587931,399.9999999999998,391.58628167010744,372.68145289273747,348.64000651126497
192,6,576,0,19.21919999999975,8.686051920887113,125.84887275758724,12.283932429995632,21.1340764642391,34.91749657740589,35.43227859254736,45.16746998861351,87.0167276821238,66.03684867406784,61.383907773898954,56.87411101652981,54.60401107574171,10.945124714513895,31.071992939536813,6.79003107289293,1.114781220922623,26.28876340619152,27.79536614683903,26.81555555055911,56.04309228820563,55.17153606093876,59.7004171192609,400.00000000000006,391.7476824125377,372.7723189367358,347.15097214496143
193,6,577,0,19.25256666666641,8.719668456605275,128.27103544335708,12.331473390728258,22.9378664333104,35.26887622773684,36.99442017218445,45.37580076707915,89.00898154053333,66.26948027020087,61.45851016554559,56.72015560014859,56.96032563091842,12.038522792339222,31.872564500083513,5.854144500015309,0.2902054538469656,26.390505505142734,26.159005369816192,25.968384576991127,57.010361053995496,56.52001390784028,61.65736695364097,399.9999999999998,393.46869857409104,374.6536223359612,350.22252832520604
194,6,578,0,19.28593333333308,6.97898563453618,131.79477612446783,12.337220169960103,21.22575615862309,38.54270793360778,38.739657135906775,47.14045207910317,87.30708239441554,66.30036352809377,62.303291324679776,58.78162595587514,57.75531204839501,11.762362331807367,28.706603706284,4.517793573123527,2.082813518121611,24.48868281465868,27.915942538144776,25.959704718616536,54.69649412806177,53.75067542901138,63.197402794253364,400.00000000000017,391.7140260884194,374.1820099365035,351.8855494024079
195,6,579,0,19.319299999999743,10.432317796423474,129.41494745744515,10.432317796423474,21.152437265415962,38.40957210250806,38.605840994649036,48.71518838713204,90.56376202938178,69.57051591002306,64.12767630094118,59.93991237068474,59.472346494976705,11.130100736967961,30.72720961447851,6.545922259915301,2.8867110587204934,24.5892088578138,26.138687557834686,26.11253771074945,54.085174448773046,53.4448124885638,54.34715819761721,399.9999999999999,389.9735344628957,372.500138698208,348.51246073244187
196,6,580,0,19.35266666666641,10.329294659324578,128.33337462990758,12.173190497470758,19.015131427524175,36.519571492412055,38.49500836312553,46.48182596696086,87.86649039793146,68.88348039802088,63.557783210642015,58.35841589580821,61.24695329293809,13.546244345161085,27.909247540545266,5.448379159414117,1.5339129626137264,27.759145300532953,27.544785758199005,27.411223851384932,54.58339633197272,53.49770468960321,60.646439220724425,399.9999999999999,391.6363417654916,372.82967085790153,347.207050467716
197,6,581,0,19.38603333333308,10.423262305064656,125.8488727575871,12.283932429995561,21.13407646423914,36.64649320068433,36.851797289987125,46.90468037279105,90.48515060472234,69.51012710497086,64.10239732819673,59.40751661075433,60.057889697153314,13.08875836377888,30.6488316965507,6.198868479739986,2.825058094045403,26.28876340619144,26.05815576266167,25.049525905834628,54.590690939612045,52.619247521465184,61.19815192754905,399.99999999999983,390.0221088757009,371.26344150164186,348.8723315612644
198,6,582,0,19.419399999999744,8.853979028379289,130.04201635109493,12.395570639731229,19.798098978814114,35.59255519489054,37.564251668703335,49.6138938356834,90.46669785004987,70.85396371710115,66.28572933168152,59.879858510591134,62.08139884051229,11.445971252322238,29.435409596355385,6.054235907283669,0.8969238381159812,24.854303525218015,26.56193708513834,26.4490609080824,55.4869701670907,51.94004407999529,56.91393917413793,399.99999999999994,396.9822470320289,377.6115661039303,356.49334653601704
199,6,583,0,19.45276666666641,10.350887121171391,126.68976550404308,12.076034974700194,20.987329445336176,34.67504271201189,34.88895617043491,48.42720797061315,91.69286615767533,70.8151655463734,65.61854823148758,59.6660228632619,63.14503262239373,12.98092947699206,30.285483799148096,5.479943117707762,2.493625492094452,27.65622398212225,29.32751350998601,28.37001744332548,56.29761746063423,51.571794955455005,62.32059312199488,400.00000000000017,394.8440982774494,379.081368708432,355.17103351684295
200,6,584,0,19.48613333333308,10.667509564920895,130.3833662478635,10.814654578849925,23.181218004385027,37.50522679921035,37.71534175864,51.559629563784455,96.07341234233695,72.91632740003686,67.46590650335008,63.31571570569463,64.63162986104885,12.6024086416611,31.986836391685983,6.630182859669048,3.644069968672966,25.143561172426576,24.954271947005086,24.9517568688309,53.95248036952091,51.92799705359141,58.91324714942492,399.9999999999998,391.5055135770508,373.6378874744878,350.46642962803827
201,6,585,0,19.51949999999974,10.361589402632267,126.64426479034503,12.088520969737713,19.30768188268933,34.71089491119287,36.63375065235974,48.38491211534928,89.94976334289431,70.82525126122907,65.54719048096399,61.424222163688,63.245533410640064,14.00007931036157,27.589863229926323,4.613321345301415,3.3524135589500474,25.961474073463275,25.96147407346322,25.888638438817452,54.679366227173546,53.29837198497921,58.94379460678455,400.00000000000017,391.52246623368063,374.3101763352261,346.782306805207
202,6,586,0,19.552866666666407,10.229450465505657,124.87799477809673,10.229450465505543,17.13411747512473,37.66265779964786,37.66265779964786,47.73743550569297,85.26246792542182,68.19633643670417,62.89797344028784,60.258058497801926,60.968035622485786,13.014580672899001,24.514210157212233,5.28482972387792,4.244863231383533,23.929529871158483,25.630393439305156,24.714203713461302,52.60830497128046,52.12832043628305,56.49398669947202,400.0000000000001,389.7981431771836,371.0986847304932,345.47014782133914
203,6,587,0,19.58623333333308,10.503609184253467,129.96963770394265,12.254210714962555,17.59332764576849,36.80428953178749,38.67205180784142,49.04809363947315,89.28067806615499,71.79600838415007,66.34514709696202,62.229170496457755,66.06542053187923,15.285058734882114,25.015547105976907,4.8452637166128625,5.784345756533867,24.570863369164012,24.508421429925008,24.47607444474579,52.83835009724925,50.760381328062635,63.0459643272953,399.9999999999999,394.87998633096413,379.16590498719654,358.3605763307712
204,6,588,0,19.61959999999974,10.511766624552703,131.68875260599145,12.263727728644794,19.35104288276751,36.83287292529933,38.70208576553504,50.80687201867153,92.87046498110813,73.58236637186901,68.25354553812224,63.92384085599451,66.60461595123718,14.511591977832609,27.571518951260146,3.798607729296691,4.901266164698541,26.337750521198362,26.33775052119829,26.1704346090296,53.46375991833065,52.02726911257798,59.59243610359619,400.00000000000017,393.20502323952854,375.7211196218488,351.24963271336924
205,6,589,0,19.652966666666405,8.712375283259997,130.03617218331192,11.960461578984882,18.87251658172661,37.62883473534369,37.74503316345303,47.841846315939556,87.14050578974711,68.36684936802189,64.00389727944918,61.693649888634184,63.943629956210714,15.006563486424511,24.26764215743094,2.6115840070083323,5.484326414717316,25.686451962717346,25.686451962717452,25.583478714808166,53.09551177325318,53.07542266550689,58.09367052649804,400.0,393.22424634025583,377.85618193299325,355.72910847056835
206,6,590,0,19.68633333333307,10.29578386390755,130.5937651477069,12.011747841225567,18.953441621964963,37.7901865588753,39.61610473007569,48.04699136490193,89.24662494895651,70.35452307003504,65.1787743407258,63.35320694614086,66.40250633050232,16.851391334629056,24.364303304651003,2.5176781101141614,7.161841317217409,27.455423637086827,27.455423637086827,26.586079007401224,52.17912959686913,51.03564232773351,54.937652668630605,400.00000000000006,393.19546305002956,379.54237270193164,357.33276054075617
207,6,591,0,19.719699999999737,8.50871259623037,131.13358875416918,11.912197634722526,20.491693494253752,37.4769914331156,37.47699143311583,49.35053305813594,90.2084062661899,69.77144328908884,65.47679357572883,64.8949765446389,65.40220164866605,15.828406922726913,25.04796910768937,1.7752878640947074,4.639617863306398,25.58279965150508,25.526137788691003,26.33095025316959,52.96026821459043,54.48194352667167,52.75401809662808,399.99999999999983,396.6849052171627,384.83468860870795,362.87040679379857
208,6,592,0,19.753066666666403,8.504403763705325,127.668068512231,11.906165269187461,22.111449785633965,39.120257313044505,37.45801299450933,49.32554182949095,91.8475606480177,69.73611086238374,65.4655744940539,65.8630063226123,67.94575033556379,17.592646892008474,24.917466415818808,0.22638521879900964,7.913421092687713,23.872998994761204,25.56984446022648,25.48594485413645,53.98029772698061,53.38666537546311,56.12906484045516,399.99999999999994,396.6700433329492,384.7037332219407,357.6746380595441
209,6,593,0,19.78643333333307,5.33243282071613,126.51470790526805,11.803843228309225,20.305299232417614,35.45165607704775,35.451656077047744,47.21537291323712,84.31316591649491,64.10018993175035,61.49581107659378,63.928190933718156,63.514383572132715,16.527062307225037,20.55411443582534,0.9537755041420724,5.3340778194616405,25.293949774948466,25.293949774948466,24.43986648973771,54.53173596698451,53.643564068947285,59.01921614154646,400.00000000000006,394.9457648057936,385.0001725246587,361.5255745905288
210,6,594,0,19.81979999999973,5.037572072342056,131.01992297782604,11.754334835464773,16.87565758648993,36.98033892979077,38.65787279820749,48.69653003263985,82.2974766633998,65.48843694044669,62.942432553791036,63.73229837407382,63.238632236397166,14.809984130303746,18.808679845485813,0.8885990478182748,3.6531294188082484,25.18786036171025,25.243771330310818,25.15228971463256,52.6741768901137,53.36530948286122,62.152743182631724,399.99999999999994,393.44695645365937,381.80084831844107,360.114961984641
211,6,595,0,19.8531666666664,3.3304435769745075,128.31935896666283,11.656552519410832,16.652217884872538,34.969657558232385,34.96965755823216,46.655936704875565,78.28313717988338,61.635705063284405,59.849540678776805,60.0986646409761,60.48729802200711,13.756625192649267,17.862188089694882,1.5694809618560157,4.4892137988326795,23.372501581045555,26.643548615796117,24.962221012376972,49.90451210777786,53.750986084136116,59.97110800622194,399.9999999999999,393.3449850911545,380.035572539134,358.4097361886263
212,6,596,0,19.886533333333063,3.3589437782465152,134.39973136870051,11.756303223862691,16.878483594857578,40.34229916361929,38.66434647020769,47.055193907674585,78.93517878879277,62.16315132059069,60.384877241695904,62.07354793277807,61.457679798383424,14.810635296491,17.135040835980362,2.513139322610641,5.3838794974501525,23.51260644772549,25.247998668335665,23.4774892845449,52.666658847749886,55.12019802832219,58.80550368045071,399.9999999999998,395.10803204371325,385.0425102308616,365.09880210964127
213,6,597,0,19.91989999999973,3.3029663636494973,128.9109308483417,11.560382272773298,19.886490929227428,36.33263000014458,37.984113181969505,47.92147766162576,82.57415909123739,62.77808719038237,61.006181350024065,62.9629647466391,63.28909531274161,15.323195234604327,19.394885938671905,3.1773023333926176,6.191539383734039,23.120764545546482,23.120764545546482,22.250999078175766,52.852917197461295,53.07033757486295,61.104877727515415,399.9999999999999,395.2016852404728,383.65628510100606,360.6629046713091
214,6,598,0,19.9532666666664,5.0181100721622,127.3014074327276,13.381626859099432,23.417847003423947,36.79947386252349,38.508523167761794,46.83569400684784,88.65327794153342,65.23543093810946,62.71625720318019,62.84143935328626,67.24785103702271,18.216506483446665,23.59433165200676,1.191734069010522,6.869996397825389,25.09055036081135,28.485111748532773,27.56510945337385,53.53790195739737,51.975628724072635,56.871914151172525,399.99999999999994,394.98473445997064,381.67337476998085,361.69091779306495
215,6,599,0,19.986633333333064,5.240974256643418,126.13229651114732,13.258732647440649,21.54544055209113,34.84361136878438,36.49916219862735,46.43515022012596,86.24548255881335,64.721257726629,62.196757804080676,64.57813188409432,67.45747445703,19.583473800856893,20.224423346202002,2.5243551324367672,6.8729512785484985,24.91530718632311,26.56920673977895,25.652772957164586,52.00566003309109,51.04916609619113,61.32163849441313,400.00000000000006,393.47467211571114,381.8940823432008,358.8479420221915
216,6,600,0,20.01999999999973,5.039170822268653,126.08001369201281,13.43778885938296,21.900916363173764,35.3141665287673,36.992075201410834,47.032261007840475,87.36177728153027,65.5092206894921,62.9499748072713,65.69643130182129,66.26260859002872,18.976872089829044,21.370709396109646,3.272902043234012,6.262715442364424,25.251782824137756,25.251782824137745,24.310858120835803,53.79677531458486,52.316768017340905,58.81431741617967,400.0000000000002,395.16725061273917,385.10022018515446,363.3797757102305
217,6,601,0,20.053366666666395,4.975784696041174,126.15138035081755,13.26875918944286,21.625431705467854,36.526763658930314,36.63955887437967,46.470265490675956,86.31070326854312,64.70646159177028,62.21687774611519,64.93997610607835,65.41355842955022,18.706501777138328,21.133611184931624,1.5391425512834758,6.1565702051341304,26.537518378885892,26.58929895178944,26.49101121920694,51.32448430626255,53.45560476188581,61.39042060421249,399.99999999999994,396.7510154332425,383.4942567818948,358.7207574467687
218,6,602,0,20.08673333333306,4.9765120342293265,126.16982060135733,13.270698757944979,21.62859281537852,34.99321212263747,36.5321029796052,48.10628299755033,87.93402728775379,66.35349378972464,63.82454631402044,66.60724916815667,67.08090071779696,18.76844265449398,21.077493958989976,1.5985739800357806,6.157470145323032,24.937793447036487,24.93779344703646,24.837103134259394,54.706753983446106,56.77897951312195,63.03581910023832,400.0,393.5676813727681,381.96868640338175,358.8613862475503
219,6,603,0,20.120099999999727,4.953563009307293,123.93810689603485,13.209501358152696,19.81425203722904,34.714232795677574,34.831842052278475,49.53563009307272,87.51294649776175,67.6986944605327,65.1660366313169,64.80972469407726,64.63400921817839,15.228674577912443,22.71610624538596,0.23428730119860575,4.4319347810079535,23.175523338149294,24.767815046536388,24.746596189107663,52.26559210906606,53.798221537740574,56.237425582303175,400.00000000000017,393.4818672984145,376.9086781398812,353.90926508560955
220,6,604,0,20.1534666666664,3.31810271211115,124.52835500012294,10.091615424455444,21.63138318150479,34.84007847716752,36.536816089863706,53.0896433937793,87.99230531080651,66.38278914485225,64.72112776439019,65.00563780003779,65.56484718044862,12.229026187405111,22.70684405194504,1.6923441775589936,4.586497988457154,26.59661652018337,28.203873052945223,27.32767945849764,53.1935659752196,53.33091564760116,58.09049336069301,400.0,395.2026092484543,378.78725781765195,355.6914796481718
221,6,605,0,20.18683333333306,2.32666302915804,121.84474602770487,11.516394438175954,18.1718191694257,36.23175411746392,36.34363833885162,52.672074539229385,83.92128733210383,65.89017683011102,64.8275659923018,64.50658929646596,64.39959706452072,11.919907295358712,19.312097866123736,1.4443951312613308,2.874200412711957,23.03278887635185,24.732767257049154,23.766865341663788,50.432247512390745,50.24744274812167,51.02770394062178,400.00000000000006,390.33196276817904,374.0721382888424,351.29529932233487
222,6,606,0,20.220199999999725,3.331483023263966,125.03051791724612,11.660190581423382,18.623556264761113,35.020209798623995,35.13885568271052,51.63798686058965,85.01811519440878,66.629660465277,64.93550551315786,64.8960969223441,66.19658041919399,13.930936852617947,19.46784386193292,1.783238734316683,4.48272720505031,23.37979624299669,26.70386787299678,26.615577020754984,53.90110008534151,52.95529390581447,58.324744360018386,400.0000000000002,393.5417877871919,376.987886827482,352.3584719937829
223,6,607,0,20.25356666666639,5.265893660958919,119.94221601244405,11.77489618818933,21.711835777403817,35.00928324523225,35.00928324523202,53.313109972820044,91.58719836679882,69.95913637663769,67.36879522926944,68.40889572905968,67.45794670068011,14.739709939884392,23.595422766669344,0.8320803998323072,5.408522598909258,24.9783268273088,26.643548615796092,25.764775237660615,53.25314558925936,53.55031716062791,58.282762597053924,399.99999999999994,391.7555917586585,375.207394989446,348.81130155160025
224,6,608,0,20.286933333333057,3.3314830232639876,119.94495592908524,11.66019058142336,20.058183956136123,30.029582159289074,31.692893709058982,56.63521139548544,91.63092499311753,71.62688500017278,69.91709351275921,71.74924051098031,69.15862405650654,13.854380392462076,21.16326787998912,1.728719345095783,4.4572393370701775,26.703867872996824,26.70386787299674,26.605532484920104,53.34896850734066,53.605075076984406,56.659702298855066,400.0,393.5417877871919,375.32449889030494,350.5822016777025
225,6,609,0,20.32029999999972,3.373605998720348,124.86900290066131,11.807620995521555,16.95216034090387,30.409273528998817,32.049256987844096,59.062197247525894,91.0873619654516,74.2384977131558,72.42611060627308,70.92099608827078,69.83731363530916,11.438870336818013,20.65017118699211,0.8428641300812387,1.9265465830430912,18.554832992962364,20.311797852586466,18.512908571428852,54.123918067364514,55.869850908247145,59.06219724752584,399.99999999999994,393.46284469334574,378.69009094555116,355.38741561307717
226,6,610,0,20.35366666666639,6.71889442969148,125.9904682164465,11.758065251960016,18.55315365307772,33.63643902571752,33.63643902571752,55.45632356272593,92.38479840825796,73.9269240306628,70.46514507740858,70.3633903552751,68.22654119047286,13.940396932281487,23.04744456322453,1.62807555413508,4.426330412804759,13.437788859383032,15.210544190835643,15.085137556282746,57.644050088594895,60.2896728640643,57.13529913035436,400.00000000000006,395.0922741050343,381.9220186102895,358.5531260768906
227,6,611,0,20.38703333333305,6.630789392605208,127.68574562196225,11.603881437059025,18.30986566756501,34.85109094628138,34.851090946281836,54.729123352141755,91.17335414832128,72.95751835662591,69.53973013001632,66.29705012541524,65.69730680168027,11.369710298263726,25.133311320927646,2.393890724399853,1.9872850811896114,16.576973481512958,16.659652166382486,16.543767108113116,56.80280835645834,57.82948760556394,59.70012366816325,400.0,396.7753229906146,383.6307083576855,358.9249728145403
228,6,612,0,20.42039999999972,6.772308561174243,128.77407163038245,11.971863269735458,20.316925683523184,37.24769708645947,38.940774226753035,52.51269194462738,91.42616557585433,71.10923989233115,67.68143549365209,64.68326664064375,65.24727860309088,12.571529794544631,26.404665294562847,3.3098596743604958,4.764416840671515,20.387348514036624,22.010002823816745,21.150448591766235,57.52922016960429,57.944807931407354,60.97428747653589,399.99999999999994,393.2351623392959,378.0152558016541,354.34288466277724
229,6,613,0,20.453766666666382,8.424133487518068,126.46305151109725,11.913523829289437,20.288000026864186,35.381360647575875,37.21903825064565,52.22962762261219,92.72671454807873,72.4671363526168,68.2388237527478,64.97750091013194,64.05138480520594,12.343235613503225,28.206708249494113,5.282845093153242,3.121907514992472,21.902747067547036,21.902747067547036,21.036777114582947,52.67907736622203,53.744608798771196,62.42959309376077,399.9999999999999,393.3772686720099,374.88435190034636,351.2368686328168
230,6,614,0,20.48713333333305,11.60388143705919,114.57315261120348,10.083379315909493,19.96131940077698,31.539843060810615,33.31930433276486,53.046315140841386,94.54689577249323,74.61479725286037,68.79542273898335,65.36550767979043,66.5482370105467,12.970598327292691,28.582625493273895,5.953070964805988,3.8241581694450133,23.266891028226418,24.86546022226946,23.969981103324812,55.351732679388306,54.48439783683375,53.07221034137861,400.0,391.80966453695316,377.11794921085755,352.3104138926726
231,6,615,0,20.52049999999972,5.310956435855142,114.25347401445588,11.875659616112406,23.572511274617803,31.954131957238076,35.428498313195036,53.76933579666102,94.0504257909021,70.55781022336902,67.90168164341526,67.74191298072492,65.66492036574994,13.101030340611942,27.240556988711432,1.0384963074875486,3.834447904569288,21.833134558602286,23.512606447725474,22.647207936362634,52.64377435648328,51.76504671168607,53.84796513790621,400.00000000000006,396.7856748292075,378.4182244266629,353.2644463589008
232,6,616,0,20.553866666666384,4.9340954053508295,113.59140662314579,9.868190810701442,26.315175495204016,29.650223303372513,31.42192011995368,51.01217301921137,92.11779787049096,65.80849425756757,63.33369723199411,64.6034584391769,64.72296537632354,13.6536675690013,27.42684207514924,1.5934258286216618,4.491469054427171,23.025778558303507,23.084443057352555,22.970229210723232,50.60122897016464,50.1929136015803,52.65604313301281,400.00000000000006,393.42686267654346,375.5102700873136,350.9726415656343
233,6,617,0,20.58723333333305,3.3284540214431053,115.02445575589165,11.649589075050931,21.698865462198377,30.002279105843808,30.140433078749727,53.28126154470819,89.92987549301084,68.25359987347186,66.5615535868144,66.03098322433857,66.46144597125294,12.978952357543221,23.670445699507013,0.6256725972590402,3.909202387675009,21.69886546219849,25.018817893070864,24.005806211638003,53.20719767091572,51.935830953285176,55.14596444392205,399.99999999999994,395.01471952530954,378.3985273242224,351.8177475146587
234,6,618,0,20.620599999999715,3.316049712849005,114.70368864060053,11.60617399497141,26.580160479237698,31.67652040471506,33.32588716758613,51.42550593226747,92.90858826285915,66.3417163303671,64.66823755135465,65.3921727363338,68.19866119317066,15.376184990549746,26.106292800788538,3.1486222086421094,4.655994100653402,23.271487825894024,24.870372846367612,23.14609207864777,52.10349947781299,51.210976647016764,56.470291768725005,400.0,393.4552723043357,376.988331457238,354.03392871253567
235,6,619,0,20.65396666666638,6.655352939475067,113.33657660792427,11.646867644081354,26.673356025357528,30.133392048590668,29.99527034948407,49.94286998463235,94.89714171882014,68.23765532304317,64.90217421301634,65.34279999073158,67.22547376824241,16.34321066434859,28.61063288483058,0.8912657776514834,5.407679999233096,25.012973310450903,25.01297331045093,24.900363552023578,51.072533326089115,49.159816881915845,55.0074080037373,399.99999999999994,395.0170631398573,380.17520393575234,355.39600275803014
236,6,620,0,20.687333333333047,3.3854568453276905,120.48136500023952,11.96939746372793,25.447288066001047,28.826126322127568,30.51609561674842,54.1673095252427,94.85322699037235,69.4225052896226,67.71344176984996,65.20220153872822,67.9735702400061,12.481164096910106,28.25895630599007,0.15507658797764634,2.9764699950546856,22.264366277319866,23.698197917293655,23.671690784199996,51.475422267417,50.454918269112454,57.65225264425513,399.99999999999966,393.32904340982077,374.7396421876583,349.5064059408586
