,video_id,frame_seq,gap,time_seconds,m1,m3,m4,m5,m6,m7,m8,m9,m10,m11,m12,m13,m14,m15,m16,m17,e1,e2,e3,b1,b2,b3,m_0_16,m_1_15,m_2_14,m_3_13
0,6,175,1,5.839166666666672,3.1622776601683795,30.265491900843113,4.0,6.082762530298219,8.06225774829855,9.055385138137417,6.324555320336759,19.4164878389476,13.341664064126334,11.5,14.0,10.0,6.0,7.0,1.0,3.0,4.0,4.0,3.5,9.0,12.0,10.0,76.4198926981712,75.32595834106593,72.3394774656273,68.26419266350405
1,6,176,0,5.8725333333333385,3.0,29.154759474226502,3.1622776601683795,6.082762530298219,7.0,9.0,6.082762530298219,18.24828759089466,12.165525060596439,10.5,13.0,10.0,5.5,6.5,0.5,2.5,4.0,4.0,4.0,9.0,11.0,10.0,75.4254598925323,73.33484846919642,70.34912934784623,67.26812023536856
2,6,177,0,5.905900000000005,3.0,28.071337695236398,3.0,5.0990195135927845,8.06225774829855,9.055385138137417,6.324555320336759,17.26267650163207,12.165525060596439,10.5,11.0,9.0,4.0,7.0,1.0,2.0,4.0,4.0,4.0,8.0,9.0,9.0,68.26419266350405,67.11929677819934,64.07027391856539,59.033888572581766
3,6,178,0,5.939266666666672,1.0,26.076809620810597,3.0,5.0990195135927845,8.06225774829855,8.0,6.324555320336759,15.297058540778355,10.198039027185569,9.5,11.0,9.0,4.0,5.0,0.0,2.0,3.0,3.0,3.5,8.0,8.0,9.0,69.18092222571191,68.11754546370561,65.12296062065974,62.12889826803627
4,6,179,0,5.972633333333339,2.0,26.019223662515376,3.0,5.0,7.0,8.0,5.385164807134504,15.132745950421556,10.198039027185569,9.0,10.0,9.0,4.5,5.5,0.5,1.5,3.0,3.0,3.5,9.0,9.0,8.06225774829855,69.18092222571191,68.18357573492314,65.27633568147036,61.204574992397426
5,6,180,0,6.006000000000006,2.0,26.019223662515376,3.0,5.0,8.06225774829855,7.0,5.385164807134504,15.132745950421556,10.198039027185569,9.0,10.0,9.0,4.5,5.5,0.5,2.5,3.0,3.1622776601683795,3.5,7.0,8.0,9.0,66.18912297349165,65.19202405202648,62.20128616033595,59.21148537234985
6,6,181,0,6.039366666666672,2.0,24.020824298928627,2.0,5.0,6.0,7.0,6.324555320336759,15.132745950421556,10.198039027185569,9.0,10.0,9.0,3.5,5.5,0.5,1.5,3.1622776601683795,2.0,2.0,7.0,8.0,8.0,64.19501538281614,63.198101237299845,60.207972893961475,58.215118311311535
7,6,182,0,6.072733333333339,2.0,24.020824298928627,3.0,4.0,7.0,8.0,5.385164807134504,14.142135623730951,10.198039027185569,9.0,10.0,9.0,4.5,4.5,0.5,1.5,3.0,3.0,3.0,8.0,8.0,8.0,62.12889826803627,61.204574992397426,58.215118311311535,56.22277118748239
8,6,183,0,6.106100000000006,1.0,24.08318915758459,3.0,5.0990195135927845,7.0710678118654755,7.0710678118654755,5.385164807134504,14.317821063276353,9.219544457292887,8.5,10.0,8.0,4.0,5.0,0.0,2.0,3.0,2.0,2.0,7.0,8.0,7.0,61.29437168288782,59.30430001273095,57.3149195236284,54.45181356024793
9,6,184,0,6.139466666666673,1.0,21.02379604162864,3.0,5.0,6.0,7.0710678118654755,5.385164807134504,14.142135623730951,9.219544457292887,8.5,10.0,9.0,4.5,4.5,0.5,1.5,3.1622776601683795,2.0,2.5,7.0,8.0,7.0,58.215118311311535,57.21887800367987,54.3323108288245,52.3450093132096
10,6,185,0,6.172833333333339,1.0,22.02271554554524,3.0,4.0,6.082762530298219,6.0,5.385164807134504,13.152946437965905,9.219544457292887,8.5,10.0,9.0,4.5,3.5,1.5,2.5,2.0,3.0,3.0,6.0,7.0,7.0,57.3149195236284,56.32051136131489,54.3323108288245,52.23983154643591
11,6,186,0,6.206200000000006,1.0,21.0,3.0,5.0990195135927845,5.0,6.082762530298219,4.123105625617661,13.152946437965905,8.06225774829855,7.5,8.0,8.0,4.0,5.0,0.0,1.0,3.1622776601683795,3.0,2.5,7.0,7.0,7.0,56.22277118748239,55.226805085936306,52.23983154643591,50.24937810560445
12,6,187,0,6.239566666666673,1.0,19.1049731745428,2.0,5.0990195135927845,6.0,6.0,4.123105625617661,12.165525060596439,7.0710678118654755,6.5,9.0,7.0,4.0,4.0,1.0,2.0,3.0,2.0,2.5,6.0,6.0,7.0710678118654755,55.14526271584895,53.23532661682466,51.35172830587107,49.36598018878993
13,6,188,0,6.27293333333334,2.0,20.0,2.0,4.0,6.0,6.0,4.47213595499958,12.165525060596439,8.246211251235321,7.0,8.0,8.0,4.0,4.0,0.0,2.0,3.0,2.0,2.0,6.0,6.0,7.0,53.150729063673246,52.23983154643591,50.24937810560445,48.25971404805462
14,6,189,0,6.306300000000007,1.0,17.029386365926403,2.23606797749979,4.0,5.0,5.0990195135927845,5.0990195135927845,12.165525060596439,8.246211251235321,7.5,10.0,9.0,4.5,2.5,1.5,2.5,2.0,2.0,2.0,6.0,6.0,6.0,52.23983154643591,50.35871324805669,49.36598018878993,46.389654018972806
15,6,256,1,8.541866666666666,20.0,81.02468759581859,5.0990195135927845,11.0,20.024984394500787,22.0,20.024984394500787,56.0,45.0,35.0,26.0,28.0,7.0,29.0,17.0,3.0,9.0,9.055385138137417,8.5,30.0,23.0,34.132096331752024,177.0706073858674,177.00282483621552,174.0028735394907,164.04877323527901
16,6,268,1,8.942266666666656,9.055385138137417,65.49045732013177,4.123105625617661,6.082762530298219,16.1245154965971,17.029386365926403,11.180339887498949,30.4138126514911,24.331050121192877,19.5,12.0,20.0,5.0,14.0,7.0,1.0,5.0990195135927845,5.0990195135927845,5.0,24.0,7.0,19.4164878389476,143.75326083258076,143.75326083258076,144.3606594609487,139.90353819685905
17,6,298,1,9.943266666666633,1.0,26.019223662515376,2.0,5.0990195135927845,7.0,8.06225774829855,6.082762530298219,14.142135623730951,9.055385138137417,8.5,8.0,9.0,2.5,5.5,0.5,0.5,3.0,3.1622776601683795,3.0,10.0,8.0,7.0,66.48308055437865,67.1863081289633,68.0294054067798,65.0
18,6,323,1,10.77743333333328,4.0,40.311288741492746,4.123105625617661,8.06225774829855,10.04987562112089,11.045361017187261,11.180339887498949,27.294688127912362,19.235384061671343,17.0,14.0,9.0,0.5,15.5,6.5,2.5,2.0,2.8284271247461903,2.5,12.0,20.0,20.223748416156685,116.40017182117903,114.27160627207444,110.0272693471941,101.83319694480774
19,6,324,0,10.810799999999944,5.0990195135927845,37.33630940518894,4.0,8.06225774829855,10.04987562112089,11.045361017187261,10.198039027185569,27.294688127912362,19.235384061671343,16.5,14.0,9.0,1.5,15.5,6.5,1.5,2.0,2.23606797749979,1.5,11.0,19.0,18.24828759089466,111.30588483993108,110.16805344563369,106.06601717798213,98.85848471426213
20,6,325,0,10.844166666666611,5.0,38.2099463490856,4.123105625617661,7.0710678118654755,9.055385138137417,10.04987562112089,10.198039027185569,26.30589287593181,19.235384061671343,16.5,13.0,9.0,1.0,15.0,7.0,2.0,2.23606797749979,1.4142135623730951,1.5,11.0,18.0,17.11724276862369,109.32977636490436,107.35455276791944,103.0970416646375,95.03683496413377
21,6,326,0,10.877533333333275,4.0,34.36568055487916,4.0,8.06225774829855,8.06225774829855,10.04987562112089,10.44030650891055,26.30589287593181,18.24828759089466,16.0,14.0,9.0,1.5,14.5,6.5,1.5,2.23606797749979,2.8284271247461903,2.0,10.0,18.0,17.11724276862369,104.39348638684312,104.23531071570709,98.99494936611666,91.92388155425118
22,6,327,0,10.910899999999945,3.0,36.22154055254967,4.123105625617661,8.06225774829855,9.055385138137417,10.0,9.055385138137417,24.186773244895647,16.1245154965971,14.5,11.0,7.0,0.0,15.0,7.0,3.0,2.0,2.8284271247461903,1.5,10.0,17.0,16.1245154965971,101.43470806385751,100.12991560967181,96.0260381354974,89.80534505250787
23,6,328,0,10.944266666666609,4.0,34.23448553724738,4.123105625617661,7.0710678118654755,9.055385138137417,9.055385138137417,9.219544457292887,24.331050121192877,17.26267650163207,15.0,12.0,8.0,1.0,14.0,6.0,2.0,1.4142135623730951,2.8284271247461903,2.0,9.0,16.0,16.1245154965971,99.29753269845128,98.15294188153507,94.04786015641186,87.96590248499699
24,6,329,0,10.977633333333277,4.0,33.24154027718932,3.1622776601683795,7.0710678118654755,8.06225774829855,9.055385138137417,9.055385138137417,23.194827009486403,16.1245154965971,14.0,11.0,7.0,0.0,14.0,7.0,3.0,2.0,2.23606797749979,1.0,10.0,16.0,14.035668847618199,96.0260381354974,95.03683496413377,90.93404203047393,84.71717653463199
25,6,330,0,11.01099999999994,4.0,32.2490309931942,3.1622776601683795,7.0710678118654755,9.055385138137417,9.055385138137417,8.06225774829855,22.20360331117452,15.132745950421556,13.0,10.0,6.0,0.0,14.0,7.0,2.0,1.4142135623730951,2.23606797749979,2.0,9.0,15.0,16.1245154965971,93.2148056909416,91.0823802938856,86.97700845625813,80.75270893288967
26,6,331,0,11.044366666666606,3.0,30.265491900843113,3.1622776601683795,7.0710678118654755,8.06225774829855,8.06225774829855,9.055385138137417,22.20360331117452,15.132745950421556,13.5,11.0,7.0,0.0,13.0,6.0,2.0,1.4142135623730951,2.8284271247461903,2.0,8.0,15.0,15.033296378372908,89.26925562588724,87.29833904490967,85.0,78.91767862779544
27,6,332,0,11.077733333333272,4.0,29.427877939124322,3.0,6.082762530298219,8.06225774829855,8.06225774829855,8.246211251235321,21.213203435596427,15.132745950421556,13.0,11.0,6.0,0.5,12.5,5.5,1.5,2.23606797749979,2.23606797749979,1.0,8.0,15.0,14.035668847618199,88.11923740024082,86.14522621712709,82.03657720797473,76.94153624668537
28,6,333,0,11.111099999999938,3.1622776601683795,29.274562336608895,3.0,7.0710678118654755,8.06225774829855,8.06225774829855,8.246211251235321,21.37755832643195,14.317821063276353,12.5,11.0,7.0,1.0,12.0,5.0,1.0,2.23606797749979,2.23606797749979,2.0,8.0,14.0,13.038404810405298,84.17244204607586,83.18653737234169,79.07591289387686,73.97972695272672
29,6,334,0,11.144466666666604,4.123105625617661,27.459060435491963,2.0,6.0,7.280109889280518,7.0710678118654755,8.246211251235321,20.223748416156685,14.317821063276353,12.0,11.0,6.0,0.5,11.5,5.5,0.5,1.0,1.4142135623730951,1.0,8.0,14.0,13.152946437965905,83.18653737234169,80.89499366462674,77.92945527847606,71.84705978674423
30,6,335,0,11.17783333333327,3.0,28.160255680657446,3.0,6.082762530298219,8.06225774829855,8.06225774829855,8.246211251235321,20.223748416156685,14.142135623730951,12.5,10.0,7.0,0.5,11.5,5.5,1.5,1.4142135623730951,1.4142135623730951,1.5,8.0,14.0,14.142135623730951,79.90619500389191,78.77182237323191,75.8023746329889,70.57619995437555
31,6,336,0,11.211199999999936,3.0,28.160255680657446,3.0,6.082762530298219,7.0710678118654755,8.06225774829855,7.280109889280518,19.235384061671343,13.152946437965905,11.5,9.0,6.0,0.5,11.5,5.5,1.5,1.0,1.4142135623730951,1.0,8.0,13.0,13.152946437965905,79.07591289387686,77.92945527847606,73.97972695272672,68.73136110975832
32,6,337,0,11.244566666666602,4.0,27.16615541441225,2.23606797749979,5.0990195135927845,7.0710678118654755,7.0,7.0710678118654755,18.24828759089466,13.152946437965905,11.0,8.0,5.0,0.5,11.5,6.5,1.5,1.0,1.4142135623730951,1.0,8.0,14.0,12.165525060596439,76.11832893594026,74.96665925596525,71.84705978674423,67.60177512462228
33,6,338,0,11.277933333333268,3.0,26.1725046566048,2.0,5.0990195135927845,6.0,7.0,8.246211251235321,18.24828759089466,13.152946437965905,11.5,9.0,6.0,0.5,10.5,4.5,2.5,2.0,1.4142135623730951,1.0,7.0,12.0,12.041594578792296,72.83543093852057,72.69112738154499,70.57619995437555,64.4980619863884
34,6,339,0,11.311299999999934,4.0,26.1725046566048,2.0,5.0990195135927845,8.0,7.0,6.324555320336759,17.26267650163207,12.165525060596439,10.0,8.0,5.0,0.5,10.5,5.5,1.5,1.0,1.4142135623730951,1.0,7.0,12.0,12.041594578792296,71.84705978674423,70.8590149522275,67.7421582177598,63.63961030678928
35,6,340,0,11.3446666666666,3.0,26.1725046566048,3.0,5.0990195135927845,6.0,7.0,6.082762530298219,17.11724276862369,12.041594578792296,10.5,8.0,5.0,0.5,10.5,4.5,1.5,1.0,1.4142135623730951,1.0,7.0,12.0,12.041594578792296,70.8590149522275,69.87131027825369,66.61080993352356,61.66036003787198
36,6,341,0,11.378033333333263,3.0,24.186773244895647,2.0,5.0990195135927845,6.0,6.082762530298219,7.0710678118654755,17.11724276862369,12.041594578792296,10.5,9.0,6.0,0.5,9.5,4.5,1.5,1.4142135623730951,1.4142135623730951,1.0,7.0,13.0,12.041594578792296,68.8839603971781,68.06614430096654,64.93843238021688,60.67124524847005
37,6,353,1,11.778433333333256,1.4142135623730951,50.24937810560445,4.123105625617661,8.06225774829855,14.035668847618199,16.0312195418814,16.1245154965971,29.427877939124322,21.37755832643195,20.5,14.0,19.0,0.5,12.5,2.5,2.5,3.0,3.0,3.0,13.0,8.0,16.1245154965971,118.51160280748886,118.3427226321923,114.21471008587291,108.2266141020775
38,6,354,0,11.811799999999922,1.0,51.24451190127583,4.123105625617661,8.06225774829855,15.132745950421556,15.033296378372908,16.1245154965971,28.442925306655784,20.396078054371138,20.0,14.0,19.0,0.5,11.5,2.5,3.5,4.123105625617661,5.0,4.5,13.0,8.0,13.0,111.28791488746656,110.22250223978767,105.11898020814318,101.1236866416568
39,6,355,0,11.845166666666588,0.0,48.093658625644196,4.123105625617661,7.0710678118654755,13.038404810405298,14.035668847618199,15.132745950421556,26.30589287593181,19.235384061671343,19.0,14.0,17.0,0.5,10.5,2.5,2.5,3.0,4.0,3.5,11.0,6.0,14.035668847618199,105.30432089900205,104.17293314484334,101.1236866416568,96.08329719571451
40,6,356,0,11.878533333333252,1.0,41.19465984809196,4.0,7.0710678118654755,12.041594578792296,13.038404810405298,14.142135623730951,25.317977802344327,18.24828759089466,18.0,13.0,17.0,1.0,10.0,2.0,2.0,3.0,4.123105625617661,4.0,12.0,8.0,12.0,100.31948963187563,99.18165152889924,95.13148795220224,88.05112151472007
41,6,357,0,11.91189999999992,0.0,43.104524124504614,4.123105625617661,6.082762530298219,13.0,13.038404810405298,13.152946437965905,23.345235059857504,17.26267650163207,17.0,12.0,15.0,0.5,9.5,2.5,2.5,3.1622776601683795,3.0,3.5,11.0,6.0,14.142135623730951,93.43446901438462,92.26592003551474,90.19977827023745,86.14522621712709
42,6,358,0,11.945266666666583,1.0,40.19950248448356,3.0,7.0,12.041594578792296,13.038404810405298,13.152946437965905,23.194827009486403,16.278820596099706,16.0,11.0,15.0,0.0,10.0,2.0,3.0,2.0,2.0,2.0,10.0,6.0,12.0,91.26883367283708,91.19758768739445,89.1403387922662,84.1486779456457
43,6,359,0,11.978633333333253,1.0,40.11234224026316,4.0,6.082762530298219,11.045361017187261,12.0,11.180339887498949,21.37755832643195,15.297058540778355,15.0,11.0,14.0,1.5,8.5,1.5,2.5,2.23606797749979,2.0,2.5,9.0,5.0,11.045361017187261,87.36704184073076,86.14522621712709,83.15046602394962,78.10249675906654
44,6,360,0,12.011999999999915,1.0,38.118237105091836,3.0,6.082762530298219,11.045361017187261,11.045361017187261,12.165525060596439,21.37755832643195,15.297058540778355,15.0,11.0,14.0,0.5,8.5,1.5,2.5,2.0,2.0,2.0,9.0,4.0,12.041594578792296,83.2946576918352,83.2946576918352,80.15609770940699,76.16429609731846
45,6,361,0,12.045366666666585,1.0,35.12833614050059,3.1622776601683795,5.0990195135927845,10.04987562112089,10.04987562112089,11.045361017187261,20.223748416156685,15.132745950421556,14.5,11.0,14.0,1.5,7.5,1.5,1.5,2.0,2.0,2.5,9.0,5.0,10.04987562112089,79.30952023559341,78.23042886243178,76.10519036176179,72.06247289678588
46,6,362,0,12.078733333333249,1.0,20.024984394500787,2.0,2.0,6.0,6.0,5.0,10.0,8.0,7.5,8.0,7.0,2.5,2.5,0.5,0.5,3.0,3.0,3.0,7.0,7.0,9.0,55.0,56.00892785976178,54.00925846556311,53.03772242470448
47,6,363,0,12.112099999999916,1.4142135623730951,33.06055050963308,2.0,5.0,10.04987562112089,10.04987562112089,10.198039027185569,18.24828759089466,13.341664064126334,12.5,9.0,11.0,0.0,8.0,2.0,2.0,2.0,2.0,2.0,8.0,4.0,9.0,73.17103251970687,73.10950690573696,70.06425622241343,66.03029607687671
48,6,364,0,12.14546666666658,1.0,31.144823004794873,3.0,5.0,9.055385138137417,9.055385138137417,9.055385138137417,17.11724276862369,12.165525060596439,12.0,9.0,12.0,1.5,6.5,0.5,1.5,1.0,2.0,2.0,8.0,4.0,9.055385138137417,69.35416353759881,69.18092222571191,68.18357573492314,65.12296062065974
49,6,365,0,12.178833333333246,1.0,30.14962686336267,3.0,4.0,9.0,9.055385138137417,10.04987562112089,17.11724276862369,13.152946437965905,13.0,9.0,12.0,0.5,6.5,1.5,1.5,1.0,2.0,1.5,7.0,4.0,10.04987562112089,67.36467917239716,67.1863081289633,65.12296062065974,62.07253821135398
50,6,366,0,12.212199999999912,1.0,29.068883707497267,2.0,4.123105625617661,8.06225774829855,9.055385138137417,9.219544457292887,16.278820596099706,12.165525060596439,11.5,9.0,11.0,1.0,6.0,1.0,1.0,2.0,2.0,2.0,7.0,4.0,9.055385138137417,64.28063471995279,64.1248781675256,62.07253821135398,59.07622195096772
51,6,367,0,12.245566666666578,1.0,29.068883707497267,3.0,4.0,8.0,8.0,8.06225774829855,15.132745950421556,11.180339887498949,11.0,8.0,10.0,1.0,6.0,1.0,1.0,1.0,1.0,1.5,7.0,4.0,8.0,62.20128616033595,62.07253821135398,60.07495318350236,57.0350769263968
52,6,368,0,12.278933333333244,1.0,28.160255680657446,2.0,4.123105625617661,8.06225774829855,8.0,9.219544457292887,16.278820596099706,12.165525060596439,11.5,8.0,11.0,0.5,6.5,1.5,1.5,2.0,1.0,1.5,7.0,3.0,8.06225774829855,60.29925372672534,61.204574992397426,59.135437767890075,56.08029957123981
53,6,369,0,12.31229999999991,1.0,27.16615541441225,2.23606797749979,3.0,7.0,8.0,8.06225774829855,14.142135623730951,11.180339887498949,10.5,7.0,10.0,0.5,5.5,1.5,1.5,1.0,1.0,1.0,6.0,4.0,8.0,58.137767414994535,59.07622195096772,57.07889277132134,55.08175741568164
54,6,370,0,12.345666666666576,0.0,25.179356624028344,2.0,4.0,8.0,7.0710678118654755,8.246211251235321,14.142135623730951,10.198039027185569,10.0,7.0,10.0,0.5,5.5,1.5,0.5,2.0,1.4142135623730951,1.5,7.0,4.0,8.246211251235321,56.22277118748239,57.14017850864661,55.08175741568164,53.08483775994799
55,6,371,0,12.379033333333242,1.0,24.186773244895647,2.0,4.0,7.0710678118654755,8.06225774829855,7.280109889280518,13.341664064126334,9.486832980505138,9.0,6.0,9.0,0.5,5.5,1.5,1.5,1.0,1.0,1.5,6.0,3.0,7.0710678118654755,55.226805085936306,55.14526271584895,54.08326913195984,52.03844732503075
56,6,372,0,12.412399999999908,0.0,24.08318915758459,2.0,3.1622776601683795,7.0,6.0,7.0710678118654755,12.165525060596439,9.055385138137417,9.0,7.0,9.0,1.0,4.0,0.0,0.0,2.0,2.0,2.0,7.0,4.0,5.0990195135927845,54.3323108288245,54.147945482723536,53.08483775994799,51.0098029794274
57,6,441,1,14.714699999999851,8.0,78.00640999302557,9.055385138137417,14.0,20.024984394500787,22.0,24.0,55.00909015790027,41.012193308819754,37.0,34.0,33.0,9.5,21.5,6.5,2.5,9.0,10.0,10.0,28.0,30.0,29.0,201.0024875467963,201.0024875467963,196.01020381602586,184.04347312523745
58,6,442,0,14.74806666666652,11.045361017187261,73.00684899377592,8.0,15.0,19.026297590440446,20.024984394500787,28.0,62.00806399170998,47.01063709417264,41.5,40.0,41.0,12.5,21.5,4.5,4.5,10.0,11.0,10.5,29.0,31.0,30.01666203960727,212.0,209.02152999152983,202.06187171260194,189.16923639957952
59,6,443,0,14.781433333333185,10.04987562112089,71.00704190430693,9.0,14.0,18.0,20.024984394500787,29.0,62.00806399170998,48.010415536631214,43.0,43.0,44.0,14.5,18.5,2.5,6.5,12.0,12.0,12.0,28.0,31.0,30.01666203960727,216.0092590608097,214.02102700435768,206.11889772653063,193.31321734428818
60,6,444,0,14.81479999999985,9.0,71.00704190430693,8.06225774829855,15.033296378372908,19.026297590440446,21.02379604162864,30.0,62.03224967708329,47.01063709417264,42.5,43.0,44.0,13.5,18.5,2.5,5.5,11.045361017187261,11.0,11.0,28.0,32.0,31.016124838541646,215.00232556881798,213.08449028495716,205.29490982486632,194.57903278616635
61,6,445,0,14.848166666666517,8.0,71.02816342831905,8.06225774829855,14.0,20.0,21.02379604162864,30.01666203960727,60.03332407921454,46.04345773288535,42.0,42.0,44.0,13.0,17.0,2.0,6.0,12.041594578792296,12.0,12.5,29.0,33.0,35.05709628591621,218.0022935659164,215.05813167606567,207.24140512938047,194.4350791395421
62,6,446,0,14.881533333333184,8.0,70.00714249274856,7.0710678118654755,14.0,19.026297590440446,20.024984394500787,31.0,60.00833275470999,46.010868281309364,42.0,43.0,44.0,12.5,16.5,1.5,5.5,12.041594578792296,12.0,12.0,29.0,32.0,34.058772731852805,218.00917411888886,215.14878572745886,208.34586628968668,197.6486782146544
63,6,447,0,14.914899999999848,9.0,72.02777242147643,7.0710678118654755,12.0,19.026297590440446,19.026297590440446,30.01666203960727,58.034472514187634,46.04345773288535,41.5,42.0,44.0,13.0,15.0,1.0,6.0,8.06225774829855,9.0,9.0,30.0,33.0,30.066592756745816,229.01964981197574,226.01991062736045,220.18401395196702,207.4728897952694
64,6,448,0,14.948266666666514,10.0,72.02777242147643,7.0,14.0,19.026297590440446,21.02379604162864,29.068883707497267,60.03332407921454,46.04345773288535,41.0,42.0,44.0,14.0,17.0,2.0,7.0,4.123105625617661,6.0,5.5,31.0,35.0,28.071337695236398,231.00216449202375,229.0785891348207,224.37691503361035,213.84573879317773
65,6,449,0,14.98163333333318,10.04987562112089,72.02777242147643,8.06225774829855,13.0,19.0,20.024984394500787,29.017236257093817,60.00833275470999,47.01063709417264,42.0,42.0,44.0,14.0,17.0,3.0,7.0,5.0,7.0710678118654755,7.0,31.0,34.0,28.160255680657446,232.0021551624036,231.17525819170183,225.5681715136247,214.13313615599057
66,6,450,0,15.014999999999846,7.0710678118654755,69.02897942168927,8.06225774829855,13.0,20.0,21.0,29.068883707497267,57.0350769263968,44.04543109109048,40.5,42.0,44.0,14.0,14.0,0.0,7.0,7.0,7.0,7.0,31.0,33.0,31.064449134018133,229.0349318335524,228.21919288263203,222.64994947226015,211.25576915199264
67,6,451,0,15.048366666666512,9.0,72.06247289678588,8.0,12.0,20.024984394500787,21.02379604162864,29.068883707497267,58.034472514187634,46.04345773288535,41.5,42.0,45.0,14.5,14.5,1.5,7.5,9.0,10.0,10.0,32.0,34.0,32.0624390837628,225.17992805754247,224.57070156189118,219.10727965998757,207.51144546747295
68,6,452,0,15.081733333333178,8.0,71.06335201775947,8.0,11.0,20.0,21.02379604162864,30.01666203960727,57.0087712549569,46.010868281309364,42.0,42.0,45.0,13.5,13.5,0.5,6.5,10.04987562112089,10.0,10.0,31.0,33.0,30.066592756745816,221.18318200080222,220.5810508633958,216.22673285234646,205.7790076757102
69,6,453,0,15.115099999999844,10.04987562112089,71.11258679024411,7.0,11.0,20.024984394500787,20.024984394500787,31.016124838541646,59.0,48.0,43.0,42.0,46.0,13.0,15.0,2.0,7.0,10.0,10.0,10.0,32.0,32.0,30.01666203960727,218.38727069131113,218.91550881561588,213.4689672996991,203.08126452235814
70,6,454,0,15.14846666666651,10.0,72.17340230306452,7.0,12.041594578792296,20.024984394500787,21.095023109728988,30.0,59.00847396772772,47.0,42.0,40.0,45.0,12.5,16.5,2.5,5.5,10.0,11.0,10.5,33.0,32.0,29.017236257093817,218.2292372712694,217.66488003350472,212.24985276791125,201.9504889818294
71,6,455,0,15.181833333333175,10.04987562112089,73.33484846919642,8.0,12.041594578792296,19.1049731745428,20.09975124224178,29.017236257093817,59.00847396772772,47.0,42.0,39.0,46.0,13.5,16.5,2.5,5.5,11.0,13.0,12.5,32.0,30.0,30.14962686336267,217.74526401279087,219.4288039433292,214.40149253211834,202.05444810743464
72,6,456,0,15.21519999999984,11.045361017187261,72.24956747275377,8.0,13.038404810405298,20.09975124224178,21.213203435596427,29.017236257093817,61.00819617067857,48.0,42.5,40.0,46.0,14.0,18.0,3.0,6.0,11.0,11.0,11.0,34.0,32.0,31.016124838541646,218.74185699129464,220.42232191862965,216.23366990364843,205.00975586542216
73,6,457,0,15.248566666666507,12.041594578792296,71.25307010929424,7.0,12.041594578792296,18.027756377319946,20.09975124224178,29.0,60.03332407921454,48.010415536631214,42.0,39.0,45.0,13.0,18.0,4.0,6.0,10.0,11.045361017187261,11.0,33.0,30.0,32.01562118716424,222.81157959136684,222.64321233758733,218.50629281556172,206.52602741543257
74,6,458,0,15.281933333333171,11.180339887498949,70.45565981523414,8.0,12.041594578792296,20.09975124224178,21.213203435596427,29.0,60.07495318350236,48.041648597857254,42.5,39.0,47.0,14.0,17.0,3.0,6.0,10.04987562112089,11.045361017187261,11.0,34.0,32.0,29.017236257093817,218.58636736997119,221.30521909796886,216.23366990364843,205.99514557387025
75,6,459,0,15.31529999999984,13.0,69.35416353759881,7.0710678118654755,12.041594578792296,19.1049731745428,21.213203435596427,29.017236257093817,61.00819617067857,49.0,42.5,40.0,47.0,14.5,17.5,3.5,6.5,11.0,12.0,12.0,34.0,32.0,27.018512172212592,217.66488003350472,217.55918734909818,213.41274563624359,203.39370688396434
76,6,460,0,15.348666666666505,14.0,70.34912934784623,7.0,13.152946437965905,19.235384061671343,21.213203435596427,28.0,62.03224967708329,49.0,42.0,40.0,47.0,15.5,18.5,3.5,7.5,12.0,13.0,12.5,35.0,33.0,30.066592756745816,220.7351353998724,222.64321233758733,218.65955272980872,205.92231544929754
77,6,461,0,15.38203333333317,13.0,70.34912934784623,8.0,14.035668847618199,20.09975124224178,22.20360331117452,29.0,64.00781202322104,50.0,43.5,41.0,48.0,15.5,19.5,2.5,7.5,12.041594578792296,14.035668847618199,13.0,33.0,31.0,27.073972741361768,215.02790516581794,215.82400237230334,212.5770448566825,201.61349161204464
78,6,462,0,15.415399999999837,1.0,66.37017402418047,7.0,13.038404810405298,19.1049731745428,19.235384061671343,32.01562118716424,53.03772242470448,40.01249804748511,39.5,39.0,46.0,10.5,10.5,4.5,3.5,11.045361017187261,12.041594578792296,11.5,33.0,31.0,29.068883707497267,214.75567512873786,217.68095920406083,212.5770448566825,202.7856010667424
79,6,463,0,15.448766666666502,1.0,70.45565981523414,7.0,11.045361017187261,19.1049731745428,20.223748416156685,31.0,49.040799340956916,38.01315561749642,38.0,37.0,45.0,10.0,8.0,5.0,3.0,11.0,11.045361017187261,10.5,33.0,31.0,28.071337695236398,214.75567512873786,217.68095920406083,214.7091055358389,204.74862636901864
80,6,464,0,15.482133333333168,0.0,70.34912934784623,7.0710678118654755,13.038404810405298,19.1049731745428,20.09975124224178,31.016124838541646,51.0098029794274,38.0,38.0,38.0,45.0,10.5,9.5,5.5,3.5,11.0,12.041594578792296,12.0,33.0,31.0,27.018512172212592,215.83790213954546,217.8072542409917,214.7091055358389,202.98029461009264
81,6,465,0,15.515499999999834,1.4142135623730951,69.26037828369117,7.0,10.04987562112089,19.1049731745428,20.09975124224178,32.01562118716424,50.00999900019995,40.0,39.5,39.0,45.0,10.0,8.0,5.0,3.0,11.0,11.0,11.5,33.0,30.0,28.071337695236398,214.67417171145672,216.44860821913363,212.27576404290716,201.42740627829173
82,6,466,0,15.5488666666665,7.0710678118654755,67.36467917239716,8.0,14.035668847618199,19.1049731745428,20.223748416156685,30.01666203960727,59.00847396772772,45.0,41.5,39.0,46.0,12.5,16.5,0.5,5.5,12.041594578792296,12.041594578792296,12.0,35.0,29.0,30.01666203960727,217.83020910791964,218.79899451322896,214.7091055358389,201.80436070610565
83,6,467,0,15.582233333333166,11.0,66.37017402418047,7.0,16.0312195418814,18.110770276274835,19.235384061671343,29.017236257093817,63.0317380372777,47.01063709417264,41.5,39.0,46.0,13.5,20.5,2.5,6.5,12.041594578792296,12.041594578792296,12.0,35.0,29.0,31.0,219.65882636488797,220.42232191862965,215.24404753674375,201.24611797498108
84,6,468,0,15.615599999999832,10.0,61.5223536610881,7.0,15.033296378372908,16.278820596099706,18.439088914585774,29.068883707497267,61.07372593840988,46.04345773288535,41.0,40.0,48.0,15.0,17.0,1.0,7.0,12.0,13.038404810405298,12.5,34.0,28.0,30.01666203960727,220.7351353998724,221.53103620034824,215.5411793602327,201.80436070610565
85,6,469,0,15.648966666666498,2.23606797749979,57.42821606144492,8.0,11.045361017187261,16.0312195418814,17.029386365926403,9.0,30.066592756745816,19.026297590440446,18.0,15.0,22.0,9.5,11.5,0.5,1.5,12.041594578792296,11.0,11.5,31.0,24.0,32.01562118716424,192.50974001333023,188.76705220985997,179.12007146045917,166.33099530754933
86,6,470,0,15.682333333333164,6.082762530298219,63.63961030678928,7.0,15.033296378372908,18.24828759089466,19.4164878389476,28.071337695236398,56.142675390472796,41.10960958218893,38.0,36.0,45.0,12.5,15.5,3.5,4.5,12.041594578792296,13.0,12.5,34.0,27.0,30.01666203960727,225.31977276750482,228.06358762415363,224.1539649437413,207.5090359478353
87,6,471,0,15.71569999999983,6.0,67.60177512462228,7.0,14.035668847618199,18.24828759089466,19.4164878389476,29.154759474226502,56.142675390472796,42.1070065428546,39.0,37.0,46.0,12.5,14.5,2.5,4.5,12.041594578792296,12.041594578792296,12.0,36.0,31.0,31.016124838541646,226.71568097509268,228.72035327010144,222.76669409945464,208.86598574205422
88,6,472,0,15.749066666666495,4.0,68.59300255857006,7.0,13.038404810405298,19.4164878389476,20.615528128088304,29.068883707497267,53.08483775994799,40.049968789001575,38.0,37.0,46.0,12.5,11.5,4.5,4.5,12.041594578792296,12.041594578792296,12.0,36.0,28.0,30.01666203960727,220.51077071199947,222.29934772733816,216.3792966066763,203.57799488156869
89,6,473,0,15.78243333333316,2.0,70.71067811865476,6.0,13.152946437965905,19.235384061671343,20.223748416156685,29.068883707497267,50.15974481593781,37.05401462729781,36.0,34.0,44.0,10.0,11.0,5.0,3.0,11.045361017187261,12.0,12.0,36.0,30.0,31.0,227.3719419805355,229.0589443789524,225.1443981093023,211.26523613694707
90,6,474,0,15.815799999999829,1.0,71.34423592694787,6.082762530298219,13.038404810405298,20.09975124224178,21.213203435596427,28.0178514522438,48.010415536631214,35.0,34.5,33.0,40.0,8.5,11.5,3.5,2.5,13.038404810405298,12.0,12.0,36.0,28.0,31.016124838541646,219.65882636488797,220.42232191862965,215.10230124292022,202.05444810743464
91,6,475,0,15.849166666666491,1.0,72.44308110509934,6.0,12.041594578792296,21.095023109728988,21.213203435596427,29.0,48.010415536631214,36.0,35.5,32.0,40.0,7.0,12.0,3.0,2.0,12.041594578792296,12.0,12.0,36.0,29.0,31.064449134018133,218.38727069131113,219.0091322296858,212.72047386182646,201.40009930484146
92,6,476,0,15.88253333333316,2.23606797749979,70.34912934784623,5.0,13.038404810405298,20.09975124224178,20.396078054371138,29.017236257093817,49.01020301937138,36.0,35.0,33.0,40.0,7.5,12.5,2.5,2.5,12.041594578792296,13.038404810405298,12.5,35.0,25.0,31.016124838541646,217.5890622251036,219.31712199461307,216.0925727552893,203.03940504246953
93,6,477,0,15.915899999999825,3.0,69.35416353759881,6.082762530298219,14.142135623730951,19.1049731745428,20.223748416156685,28.071337695236398,51.0098029794274,37.013511046643494,35.5,33.0,40.0,8.5,14.5,2.5,2.5,12.041594578792296,13.0,12.5,37.0,29.0,29.068883707497267,227.14092541856036,226.71568097509268,221.53103620034824,208.31946620515328
94,6,478,0,15.94926666666649,4.123105625617661,67.36467917239716,6.0,13.0,20.09975124224178,20.223748416156685,29.068883707497267,52.009614495783374,39.01281840626232,37.0,33.0,40.0,7.5,15.5,0.5,2.5,13.152946437965905,13.038404810405298,13.0,36.0,29.0,30.066592756745816,216.27991122617004,214.84180226389836,209.3800372528384,196.30588376307014
95,6,479,0,15.982633333333157,3.0,69.35416353759881,6.0,14.035668847618199,21.213203435596427,21.213203435596427,27.073972741361768,50.00999900019995,36.05551275463989,34.5,31.0,38.0,7.5,15.5,1.5,1.5,14.142135623730951,14.0,14.0,36.0,28.0,30.066592756745816,216.27991122617004,217.91970998512272,211.72859986312668,200.5691900566984
96,6,480,0,16.015999999999824,2.0,67.36467917239716,5.0,14.035668847618199,19.1049731745428,20.223748416156685,28.0178514522438,49.0,35.014282800023196,34.0,31.0,38.0,6.5,14.5,2.5,1.5,13.038404810405298,14.0,13.5,36.0,28.0,29.068883707497267,214.23351745233518,214.84180226389836,209.61870145576228,196.46119209655632
97,6,481,0,16.04936666666649,2.0,66.37017402418047,5.0,13.0,19.1049731745428,20.223748416156685,28.0178514522438,48.010415536631214,35.014282800023196,34.0,30.0,37.0,5.5,14.5,1.5,1.5,12.165525060596439,12.041594578792296,11.5,36.0,27.0,28.160255680657446,219.18485349129398,217.74526401279087,210.48990474604713,197.144616969371
98,6,482,0,16.082733333333156,4.0,65.49045732013177,5.0,14.0,19.235384061671343,19.235384061671343,28.0178514522438,51.0098029794274,37.013511046643494,35.0,30.0,38.0,6.0,17.0,0.0,1.0,14.035668847618199,14.0,14.0,37.0,26.0,28.160255680657446,220.38375620721234,219.10727965998757,211.85844330590177,196.78668654154427
99,6,483,0,16.116099999999822,5.0,62.51399843235114,6.0,14.0,18.24828759089466,20.396078054371138,28.0,53.0,39.0,36.5,31.0,39.0,7.0,18.0,0.0,1.0,13.038404810405298,14.035668847618199,13.5,38.0,29.0,31.064449134018133,218.05733191066977,217.45114393812693,210.1547049199708,194.03092537015846
100,6,484,0,16.149466666666488,5.0,63.788713735268246,5.0,16.0312195418814,17.26267650163207,19.4164878389476,29.068883707497267,55.00909015790027,39.05124837953327,36.5,31.0,41.0,7.0,19.0,1.0,2.0,13.038404810405298,13.0,13.0,37.0,28.0,29.154759474226502,219.1118435867856,219.58369702689677,212.24985276791125,195.1665955024066
101,6,485,0,16.182833333333154,4.123105625617661,63.953107821277925,6.082762530298219,14.035668847618199,19.235384061671343,20.223748416156685,29.154759474226502,53.03772242470448,39.11521443121589,37.0,28.0,39.0,4.5,19.5,1.5,1.5,13.038404810405298,13.038404810405298,12.5,37.0,25.0,29.154759474226502,222.02026934494066,222.44100341438852,214.13313615599057,197.9898987322333
102,6,486,0,16.21619999999982,2.0,63.387695966961914,7.0,14.0,18.110770276274835,18.439088914585774,30.14962686336267,53.08483775994799,39.11521443121589,38.0,32.0,39.0,5.5,17.5,0.5,0.5,13.152946437965905,14.0,13.0,36.0,25.0,29.274562336608895,213.08449028495716,212.52999788265186,203.3051893090779,188.09572031282372
103,6,487,0,16.249566666666485,0.0,66.48308055437865,6.0,10.04987562112089,16.0312195418814,16.0312195418814,12.041594578792296,28.0,18.027756377319946,18.0,11.0,19.0,3.0,13.0,1.0,3.0,13.038404810405298,12.0,12.5,32.0,23.0,29.154759474226502,192.50974001333023,187.6832437912346,178.80995498014084,167.08381130438698
104,6,488,0,16.28293333333315,1.0,69.46221994724903,6.0,12.041594578792296,18.24828759089466,19.235384061671343,30.265491900843113,49.09175083453431,37.21558813185679,36.5,28.0,36.0,2.0,17.0,1.0,4.0,13.038404810405298,13.0,13.0,36.0,25.0,29.154759474226502,215.08370463612533,215.59452683219953,207.51144546747295,194.48650338776724
105,6,489,0,16.316299999999817,1.0,67.47592163134935,6.082762530298219,11.0,18.24828759089466,19.235384061671343,30.265491900843113,48.093658625644196,37.12142238654117,36.5,28.0,36.0,2.0,16.0,1.0,4.0,13.152946437965905,13.0,13.0,36.0,26.0,30.14962686336267,217.03686322834653,217.38905216224666,208.95932618574363,194.61243536834948
106,6,490,0,16.349666666666483,1.0,69.87131027825369,6.082762530298219,11.045361017187261,19.235384061671343,20.615528128088304,28.442925306655784,46.09772228646444,35.22782990761707,34.5,24.0,35.0,1.5,16.5,1.5,4.5,12.041594578792296,12.0,12.0,36.0,25.0,27.16615541441225,218.08255317654368,218.44907873461037,211.1492363235065,197.85095400325974
107,6,491,0,16.38303333333315,2.0,73.97972695272672,7.0710678118654755,11.180339887498949,20.396078054371138,21.37755832643195,26.476404589747453,46.04345773288535,35.22782990761707,34.0,23.0,35.0,3.0,17.0,2.0,4.0,12.041594578792296,12.0,11.5,36.0,23.0,29.154759474226502,219.14607000811125,220.7351353998724,213.5883891975404,198.4363877921587
108,6,492,0,16.416399999999815,4.47213595499958,76.2954782408499,6.0,12.041594578792296,20.396078054371138,21.587033144922902,25.317977802344327,47.01063709417264,35.05709628591621,33.0,21.0,35.0,3.0,19.0,3.0,4.0,12.041594578792296,13.0,12.5,38.0,25.0,28.160255680657446,219.14607000811125,220.7351353998724,215.82400237230334,200.73116349984124
109,6,493,0,16.44976666666648,4.123105625617661,72.99315036357864,7.0,12.165525060596439,20.223748416156685,21.37755832643195,25.179356624028344,48.0,36.05551275463989,34.0,24.0,36.0,5.0,18.0,2.0,2.0,12.041594578792296,13.038404810405298,12.5,38.0,27.0,28.160255680657446,218.08255317654368,218.58636736997119,212.3605424743495,198.13379318026495
110,6,494,0,16.483133333333146,4.0,67.7421582177598,7.0710678118654755,13.038404810405298,19.235384061671343,19.6468827043885,26.30589287593181,50.039984012787215,37.12142238654117,35.0,27.0,37.0,6.0,18.0,1.0,1.0,11.180339887498949,12.041594578792296,12.0,38.0,28.0,31.144823004794873,217.0829334609241,217.51781536232843,211.0473880435387,196.86035659827502
111,6,495,0,16.516499999999812,4.0,67.7421582177598,7.0,13.038404810405298,20.09975124224178,20.396078054371138,24.186773244895647,48.041648597857254,35.12833614050059,33.0,26.0,36.0,7.0,17.0,1.0,0.0,12.041594578792296,13.0,12.5,37.0,27.0,29.154759474226502,218.2292372712694,217.83020910791964,212.72047386182646,198.75864761061342
112,6,496,0,16.549866666666478,4.0,70.21395872616783,8.0,13.038404810405298,20.223748416156685,20.223748416156685,25.179356624028344,50.039984012787215,37.12142238654117,35.0,25.0,38.0,6.5,18.5,1.5,1.5,12.041594578792296,14.0,13.0,37.0,26.0,29.068883707497267,219.27608168699112,220.90722034374522,215.82400237230334,200.89798406156294
113,6,497,0,16.583233333333144,4.0,66.48308055437865,7.0,13.038404810405298,19.1049731745428,19.4164878389476,26.076809620810597,50.00999900019995,37.05401462729781,35.0,30.0,38.0,8.0,16.0,0.0,1.0,12.041594578792296,13.0,12.5,35.0,27.0,30.01666203960727,222.3803048833237,223.0874268084152,215.95601403989656,204.67779557147864
114,6,498,0,16.61659999999981,5.0990195135927845,67.60177512462228,7.0,13.038404810405298,20.09975124224178,20.223748416156685,27.16615541441225,52.009614495783374,39.05124837953327,36.5,32.0,41.0,9.5,15.5,0.5,2.5,13.038404810405298,14.0,13.0,36.0,29.0,29.068883707497267,220.38375620721234,220.10224896624752,214.83249288690016,203.85534086699815
115,6,499,0,16.649966666666476,4.123105625617661,68.59300255857006,8.0,13.038404810405298,19.235384061671343,21.213203435596427,27.073972741361768,52.0,39.01281840626232,37.0,32.0,41.0,9.5,15.5,0.5,1.5,13.038404810405298,13.0,12.5,35.0,29.0,29.017236257093817,228.26519664635694,228.96506283710622,225.00888871331284,210.10711553871752
116,6,500,0,16.68333333333314,5.0,69.58448102845921,8.06225774829855,13.038404810405298,20.09975124224178,20.223748416156685,27.073972741361768,53.0,40.01249804748511,37.5,34.0,43.0,11.5,14.5,1.5,3.5,13.038404810405298,14.0,13.5,35.0,29.0,29.017236257093817,219.65882636488797,219.5449840010015,214.2545215392198,202.05444810743464
117,6,501,0,16.716699999999808,4.0,70.57619995437555,8.06225774829855,14.142135623730951,19.235384061671343,20.223748416156685,27.018512172212592,53.03772242470448,39.0,37.0,35.0,44.0,12.5,13.5,3.5,3.5,13.038404810405298,14.0,13.0,35.0,27.0,29.0,225.49944567559362,227.27076362788065,221.32555207205516,209.4755355644186
118,6,502,0,16.750066666666473,2.23606797749979,66.48308055437865,7.0710678118654755,16.0312195418814,19.235384061671343,20.396078054371138,29.017236257093817,54.147945482723536,38.118237105091836,37.0,36.0,44.0,11.0,14.0,4.0,4.0,13.0,13.038404810405298,13.0,34.0,30.0,31.064449134018133,222.3803048833237,224.08257406590099,219.92044015961773,205.99514557387025
119,6,503,0,16.78343333333314,5.0,73.24616030891995,8.06225774829855,15.033296378372908,20.223748416156685,22.090722034374522,28.0178514522438,56.08029957123981,41.048751503547585,38.5,37.0,43.0,12.0,16.0,2.0,3.0,13.038404810405298,12.041594578792296,12.0,33.0,30.0,32.0,223.4390297150433,225.17770760001977,221.04524423746375,206.9806754264755
120,6,504,0,16.816799999999805,6.082762530298219,62.39390995922599,7.0,16.0312195418814,17.11724276862369,19.235384061671343,28.071337695236398,57.14017850864661,41.10960958218893,38.0,37.0,44.0,12.5,16.5,1.5,5.5,11.045361017187261,12.0,11.0,33.0,29.0,30.0,218.33002542023394,219.20994502987313,214.55302374937528,202.0
121,6,505,0,16.85016666666647,7.0,63.28506932918696,7.0710678118654755,15.033296378372908,18.110770276274835,20.09975124224178,28.071337695236398,57.0350769263968,42.01190307520001,38.5,37.0,43.0,12.0,17.0,0.0,5.0,13.038404810405298,13.0,13.0,33.0,31.0,28.071337695236398,215.2812114421507,217.83020910791964,213.71242359769354,199.7448372299019
122,6,506,0,16.883533333333137,6.0,65.37583651472461,7.0,13.038404810405298,17.11724276862369,18.110770276274835,28.0,54.00925846556311,41.0,38.0,35.0,42.0,10.5,15.5,0.5,3.5,13.038404810405298,14.0,14.0,34.0,34.0,29.017236257093817,217.1128738697915,218.66183937761065,213.3541656495134,201.2486024796197
123,6,507,0,16.916899999999803,4.123105625617661,67.36467917239716,6.0,12.0,18.110770276274835,19.1049731745428,29.068883707497267,51.0098029794274,39.01281840626232,37.0,34.0,41.0,8.5,13.5,1.5,2.5,13.0,13.0,12.5,34.0,29.0,30.066592756745816,224.1428116179504,223.80795338861395,219.66565503054863,206.65188119153427
124,6,508,0,16.95026666666647,6.324555320336759,67.36467917239716,6.0,13.038404810405298,20.223748416156685,21.213203435596427,27.294688127912362,52.009614495783374,39.05124837953327,36.0,32.0,39.0,8.5,16.5,0.5,2.5,11.0,13.038404810405298,12.0,35.0,30.0,28.0,232.01939574095957,230.70327262524907,226.86119103980744,212.07781590727495
125,6,509,0,16.983633333333135,5.0,68.3593446428504,6.0,13.0,19.1049731745428,20.223748416156685,27.294688127912362,51.15662224971465,38.2099463490856,35.5,30.0,37.0,6.5,17.5,1.5,0.5,13.038404810405298,13.0,13.0,36.0,30.0,26.0,218.08255317654368,219.58369702689677,213.3541656495134,200.25983121934362
126,6,510,0,17.0169999999998,1.0,68.3593446428504,7.0,12.041594578792296,20.223748416156685,20.396078054371138,25.495097567963924,44.10215414239989,32.2490309931942,32.0,27.0,34.0,5.5,13.5,1.5,1.5,11.045361017187261,13.038404810405298,12.0,36.0,30.0,26.0,228.00877176108818,229.2640399190418,225.07776433935007,210.01190442448734
127,6,511,0,17.050366666666466,1.0,66.48308055437865,6.0,12.041594578792296,20.223748416156685,20.396078054371138,25.709920264364882,43.18564576337837,31.400636936215164,31.0,26.0,34.0,5.0,13.0,2.0,1.0,10.04987562112089,12.0,11.5,36.0,30.0,27.018512172212592,228.00877176108818,228.21919288263203,223.98660674245681,206.90335908341362
128,6,512,0,17.083733333333132,1.0,66.37017402418047,7.0710678118654755,13.038404810405298,19.235384061671343,20.223748416156685,22.80350850198276,43.18564576337837,30.4138126514911,29.5,24.0,31.0,5.5,15.5,1.5,1.5,10.04987562112089,12.0,11.5,38.0,29.0,29.068883707497267,228.0021929719098,228.31557108528537,222.9910312097776,202.09156340629363
129,6,513,0,17.117099999999798,4.47213595499958,68.06614430096654,5.0,12.041594578792296,20.396078054371138,21.587033144922902,22.80350850198276,43.104524124504614,31.25699921617557,29.0,19.0,31.0,3.0,18.0,2.0,3.0,10.04987562112089,12.0,11.5,38.0,29.0,30.14962686336267,231.00865784641059,228.26519664635694,221.09726366465958,206.0509645694482
130,6,514,0,17.150466666666464,3.605551275463989,69.2314957226839,6.0,13.038404810405298,19.4164878389476,21.587033144922902,21.587033144922902,43.04648650006177,30.14962686336267,28.5,18.0,31.0,3.5,18.5,2.5,3.5,10.04987562112089,12.0,11.5,38.0,28.0,30.066592756745816,231.01947969814148,231.17525819170183,225.07776433935007,210.2974084481309
131,6,515,0,17.18383333333313,2.8284271247461903,67.7421582177598,6.0,12.041594578792296,20.223748416156685,20.396078054371138,22.80350850198276,42.1070065428546,30.265491900843113,29.0,21.0,31.0,4.0,16.0,0.0,2.0,10.04987562112089,11.0,10.5,37.0,27.0,26.076809620810597,232.0,231.3114783144148,227.16733920174352,210.2974084481309
132,6,516,0,17.217199999999796,7.0,75.31268153505093,5.0990195135927845,12.041594578792296,19.4164878389476,21.587033144922902,22.80350850198276,46.17358552246078,34.36568055487916,30.5,16.0,30.0,1.0,23.0,6.0,5.0,11.180339887498949,12.041594578792296,11.5,37.0,28.0,27.073972741361768,214.00934559032697,213.39634486091836,208.27385817716058,195.1665955024066
133,6,517,0,17.25056666666646,3.1622776601683795,68.59300255857006,5.0,11.0,20.223748416156685,21.37755832643195,23.08679276123039,41.43669871020132,30.59411708155671,28.5,22.0,31.0,4.5,14.5,0.5,0.5,10.04987562112089,12.0,11.0,35.0,26.0,28.0178514522438,224.03571143904713,225.10886255321003,219.58369702689677,205.0780339285512
134,6,518,0,17.283933333333128,4.47213595499958,69.87131027825369,5.0,10.0,19.4164878389476,20.396078054371138,23.08679276123039,41.30375285612676,31.400636936215164,29.0,19.0,30.0,2.5,16.5,2.5,3.5,10.04987562112089,11.0,11.0,37.0,29.0,27.073972741361768,224.03571143904713,224.1428116179504,216.8340379184043,200.5642041840966
135,6,519,0,17.317299999999793,0.0,76.53103945458993,6.0,10.0,21.213203435596427,22.360679774997898,21.840329667841555,37.48332962798263,27.65863337187866,27.0,18.0,27.0,1.5,14.5,1.5,4.5,11.045361017187261,12.0,11.5,35.0,26.0,25.079872407968907,217.0,217.23029254687293,209.95475703112803,195.73451407454945
136,6,520,0,17.35066666666646,0.0,75.4254598925323,5.0,10.0,20.223748416156685,20.396078054371138,21.840329667841555,36.49657518178932,26.68332812825267,26.0,17.0,25.0,0.0,15.0,1.0,5.0,11.045361017187261,11.0,11.0,34.0,25.0,26.1725046566048,217.02073633641555,217.14741536569116,209.77368757782756,196.596032513375
137,6,521,0,17.384033333333125,0.0,78.23042886243178,4.0,9.0,20.223748416156685,21.213203435596427,23.08679276123039,35.6931365951495,26.92582403567252,26.0,18.0,24.0,1.0,14.0,2.0,5.0,12.041594578792296,12.0,12.0,35.0,27.0,29.154759474226502,217.05759604307792,218.05733191066977,212.46176126540982,199.90497742677644
138,6,522,0,17.41739999999979,1.0,81.2219182240853,4.0,9.0,21.095023109728988,21.213203435596427,23.08679276123039,36.6742416417845,27.892651361962706,26.5,18.0,24.0,1.0,15.0,2.0,5.0,11.045361017187261,12.0,11.0,35.0,27.0,31.064449134018133,219.03652663425797,219.0821763631172,214.4574549881631,201.9925741209315
139,6,523,0,17.450766666666457,0.0,80.30566605165541,5.0,10.0,20.09975124224178,20.396078054371138,23.40939982143925,37.8549864614954,28.160255680657446,27.0,17.0,24.0,1.5,16.5,3.5,5.5,12.041594578792296,13.0,12.0,35.0,27.0,29.017236257093817,217.00921639414304,217.18655575334307,209.69024774652732,196.3517252279694
140,6,524,0,17.484133333333123,2.0,77.41446893184762,5.0,12.0,21.095023109728988,21.37755832643195,23.08679276123039,41.593268686170845,29.832867780352597,28.0,17.0,25.0,1.0,20.0,4.0,5.0,11.045361017187261,12.0,11.5,35.0,27.0,29.017236257093817,217.05759604307792,217.05759604307792,209.46837470128995,195.02820308868152
141,6,525,0,17.51749999999979,3.0,74.33034373659252,5.0,12.0,18.110770276274835,19.235384061671343,24.041630560342615,43.56604182158393,31.78049716414141,29.5,21.0,28.0,1.5,18.5,2.5,3.5,12.165525060596439,13.0,12.5,35.0,25.0,28.071337695236398,218.0022935659164,218.14673960433146,211.6057655169159,198.33809518093088
142,6,526,0,17.550866666666455,3.1622776601683795,70.34912934784623,6.0,12.0,18.110770276274835,20.396078054371138,23.769728648009426,44.28317965096906,32.38826948140329,30.5,22.0,29.0,2.5,18.5,2.5,2.5,11.045361017187261,12.041594578792296,11.5,36.0,28.0,30.066592756745816,221.00904958847272,222.11033294288674,216.52020690919358,203.08865059377396
143,6,527,0,17.58423333333312,4.123105625617661,73.43704787094863,5.0,12.0,20.223748416156685,21.37755832643195,23.53720459187964,44.181444068749045,32.2490309931942,30.0,21.0,29.0,2.0,19.0,3.0,3.0,10.04987562112089,12.0,11.5,36.0,29.0,29.068883707497267,218.00917411888886,220.14540649307222,213.60009363293827,200.10497245196083
144,6,528,0,17.617599999999786,4.0,69.46221994724903,5.0,13.0,19.235384061671343,20.223748416156685,23.53720459187964,45.27692569068709,32.38826948140329,30.0,22.0,30.0,3.0,19.0,3.0,2.0,12.041594578792296,13.0,12.5,34.0,28.0,30.14962686336267,218.0022935659164,219.14607000811125,211.6057655169159,198.11612756158948
145,6,529,0,17.650966666666452,5.0,70.25667228100119,5.0,13.0,19.026297590440446,21.213203435596427,23.769728648009426,46.389654018972806,33.54101966249684,30.5,24.0,30.0,4.0,19.0,3.0,0.0,11.045361017187261,12.0,11.0,35.0,29.0,31.064449134018133,222.02026934494066,221.0814329607984,215.39266468475662,199.90497742677644
146,6,530,0,17.684333333333118,5.0,72.24956747275377,5.0,12.0,21.095023109728988,21.213203435596427,23.769728648009426,45.39823785126467,33.54101966249684,30.5,24.0,30.0,4.0,18.0,2.0,1.0,11.0,12.0,11.5,35.0,27.0,30.066592756745816,223.00896842952304,223.14345161801185,215.67104580819372,201.3181561608391
147,6,531,0,17.717699999999784,3.1622776601683795,71.34423592694787,5.0,11.0,19.1049731745428,19.235384061671343,24.73863375370596,43.289721643826724,32.38826948140329,30.5,23.0,30.0,2.5,16.5,2.5,2.5,11.045361017187261,12.0,11.5,34.0,28.0,31.016124838541646,231.1384866265244,231.01947969814148,224.37691503361035,209.95475703112803
148,6,532,0,17.75106666666645,0.0,74.33034373659252,6.0,10.04987562112089,20.09975124224178,20.223748416156685,22.80350850198276,38.3275357934736,28.635642126552707,28.0,20.0,27.0,1.5,14.5,1.5,3.5,12.041594578792296,13.0,12.0,36.0,27.0,30.01666203960727,230.0021739027699,229.21823662178366,223.98660674245681,208.88513590009222
149,6,533,0,17.784433333333116,1.4142135623730951,75.32595834106593,6.0,10.0,20.09975124224178,20.223748416156685,23.769728648009426,40.311288741492746,30.4138126514911,29.5,21.0,28.0,1.5,15.5,1.5,3.5,12.0,14.035668847618199,13.0,36.0,28.0,28.0178514522438,227.01982292302142,229.13969538253298,222.72853431924702,208.50419660045213
150,6,534,0,17.81779999999978,1.0,72.3394774656273,6.0,10.04987562112089,20.09975124224178,21.213203435596427,23.769728648009426,40.311288741492746,30.59411708155671,29.5,21.0,28.0,1.5,15.5,1.5,3.5,12.041594578792296,13.038404810405298,12.5,35.0,27.0,27.073972741361768,225.00888871331284,224.32119828495925,218.01376103356412,203.66639388961548
151,6,535,0,17.851166666666447,1.4142135623730951,78.63841300535,7.0,12.0,20.223748416156685,21.37755832643195,21.587033144922902,41.19465984809196,29.274562336608895,28.5,17.0,27.0,1.0,19.0,3.0,6.0,11.0,13.0,12.5,37.0,31.0,29.068883707497267,224.0022321317357,226.2675407565124,221.9954954497951,206.77040407176264
152,6,536,0,17.884533333333113,2.0,76.4198926981712,5.0,10.0,20.09975124224178,21.213203435596427,23.769728648009426,40.44749683231337,30.59411708155671,29.0,21.0,29.0,2.0,15.0,1.0,3.0,12.041594578792296,13.0,12.0,34.0,24.0,27.0,227.00220263248548,228.1403077055872,222.64994947226015,207.39334608419819
153,6,537,0,17.91789999999978,3.1622776601683795,72.56031973468694,5.0,11.0,20.223748416156685,21.37755832643195,23.769728648009426,42.2965719651132,31.400636936215164,29.5,21.0,30.0,2.5,16.5,2.5,3.5,12.041594578792296,13.0,12.5,35.0,29.0,30.066592756745816,223.00896842952304,223.10983842045155,216.6679487141557,203.42074623793906
154,6,538,0,17.951266666666445,2.23606797749979,72.44308110509934,5.0,12.0,21.213203435596427,21.37755832643195,23.53720459187964,42.190046219457976,30.265491900843113,29.0,22.0,30.0,3.0,16.0,1.0,3.0,11.045361017187261,12.041594578792296,11.0,35.0,29.0,29.0,227.05505940189926,228.1074308302998,221.81523843054606,205.91260281974002
155,6,539,0,17.98463333333311,3.605551275463989,77.64663547121665,7.0,11.045361017187261,21.37755832643195,22.360679774997898,22.561028345356956,43.04648650006177,32.14031735997639,30.5,19.0,29.0,2.0,19.0,4.0,5.0,11.180339887498949,12.0,12.0,37.0,30.0,33.13608305156178,221.00226243185838,220.22715545545242,213.9369065869655,200.6913052426537
156,6,540,0,18.017999999999777,6.0,80.62257748298549,6.0,12.0,21.213203435596427,22.360679774997898,22.561028345356956,46.2709412050371,34.36568055487916,31.0,18.0,28.0,1.0,23.0,8.0,5.0,11.045361017187261,13.0,12.0,37.0,30.0,33.06055050963308,221.00226243185838,222.22511109233358,215.92822881689185,201.6829194552677
157,6,541,0,18.051366666666443,5.0,82.60750571225353,7.0,13.038404810405298,21.213203435596427,22.561028345356956,23.769728648009426,48.25971404805462,35.510561809129406,32.5,19.0,29.0,1.0,24.0,7.0,5.0,12.041594578792296,13.0,12.0,35.0,25.0,29.017236257093817,223.0,223.32263655975405,218.01376103356412,203.93136100168604
158,6,542,0,18.08473333333311,5.0,81.39410298049853,6.0,11.0,22.090722034374522,23.194827009486403,21.587033144922902,43.289721643826724,32.38826948140329,29.5,18.0,26.0,1.0,21.0,6.0,4.0,12.041594578792296,13.038404810405298,12.5,35.0,29.0,29.017236257093817,221.00226243185838,221.18318200080222,215.59452683219953,202.3116407921205
159,6,543,0,18.11809999999977,2.0,81.61494961096282,6.082762530298219,11.045361017187261,23.08679276123039,23.345235059857504,22.80350850198276,41.19465984809196,30.4138126514911,29.0,16.0,26.0,1.0,20.0,5.0,6.0,11.180339887498949,12.0,11.5,35.0,25.0,29.017236257093817,220.0,219.18485349129398,212.76277869965884,199.5720421301541
160,6,544,0,18.15146666666644,3.1622776601683795,74.33034373659252,5.0,11.0,20.09975124224178,21.213203435596427,23.769728648009426,42.2965719651132,31.400636936215164,29.5,20.0,27.0,0.5,18.5,3.5,4.5,12.0,12.0,11.5,34.0,26.0,30.066592756745816,220.00909072126996,220.14540649307222,213.60009363293827,201.20636172845033
161,6,545,0,18.184833333333103,2.0,71.11258679024411,4.123105625617661,10.0,21.095023109728988,21.213203435596427,25.495097567963924,41.19465984809196,31.25699921617557,30.0,24.0,28.0,1.0,15.0,2.0,3.0,11.045361017187261,12.0,11.5,34.0,29.0,32.01562118716424,217.00921639414304,216.08331726442927,209.40391591371923,195.92345444075858
162,6,546,0,18.21819999999977,2.0,68.26419266350405,6.082762530298219,13.038404810405298,21.095023109728988,22.090722034374522,24.515301344262525,45.09988913511872,32.2490309931942,31.0,24.0,30.0,3.0,18.0,2.0,2.0,11.045361017187261,12.0,11.5,33.0,24.0,28.0178514522438,217.00230413523263,216.23135757794242,209.77368757782756,195.47889911701466
163,6,547,0,18.25156666666644,2.0,68.26419266350405,6.082762530298219,14.035668847618199,21.213203435596427,21.37755832643195,24.331050121192877,46.04345773288535,32.14031735997639,31.0,25.0,31.0,4.0,18.0,1.0,2.0,12.041594578792296,13.0,12.5,33.0,24.0,28.071337695236398,221.0,219.27608168699112,211.85372312045877,196.72569735548024
164,6,548,0,18.284933333333104,3.1622776601683795,64.28063471995279,6.0,13.038404810405298,19.1049731745428,20.223748416156685,25.317977802344327,47.042533945356304,34.132096331752024,32.5,26.0,32.0,4.0,18.0,2.0,1.0,11.045361017187261,13.038404810405298,12.5,34.0,29.0,32.01562118716424,218.03669415949233,217.03686322834653,210.28789789238942,196.73586353280888
165,6,549,0,18.31829999999977,2.0,68.26419266350405,7.0,13.038404810405298,21.213203435596427,21.213203435596427,25.317977802344327,47.095647357266465,34.23448553724738,33.0,27.0,33.0,5.0,17.0,1.0,2.0,12.041594578792296,12.0,11.5,35.0,29.0,28.071337695236398,218.02064122463267,218.08255317654368,210.535032714273,196.12750954417385
166,6,550,0,18.35166666666644,2.0,64.28063471995279,6.0,15.033296378372908,19.1049731745428,21.37755832643195,25.317977802344327,48.093658625644196,33.24154027718932,32.0,27.0,33.0,5.0,18.0,0.0,1.0,12.041594578792296,13.038404810405298,13.0,35.0,29.0,29.068883707497267,220.00909072126996,220.11133546457802,211.53250341259616,197.12178976460214
167,6,551,0,18.3850333333331,1.4142135623730951,68.18357573492314,7.0710678118654755,15.0,20.09975124224178,21.213203435596427,24.186773244895647,47.095647357266465,32.14031735997639,31.5,27.0,32.0,5.5,17.5,0.5,1.5,13.0,13.0,12.5,34.0,29.0,28.0178514522438,219.03652663425797,218.05733191066977,210.40199618824911,194.92819190666086
168,6,552,0,18.418399999999767,2.0,69.26037828369117,7.0,13.0,18.027756377319946,19.235384061671343,25.495097567963924,47.265209192385896,34.36568055487916,33.0,27.0,33.0,5.0,17.0,0.0,1.0,13.038404810405298,14.0,13.0,34.0,29.0,29.017236257093817,222.0,221.27358631341428,214.75567512873786,199.44924166313595
169,6,553,0,18.45176666666644,2.0,67.47592163134935,7.0,14.0,19.235384061671343,20.223748416156685,25.495097567963924,48.25971404805462,34.36568055487916,33.0,26.0,34.0,5.0,18.0,1.0,2.0,11.045361017187261,12.041594578792296,12.0,36.0,30.0,28.071337695236398,220.00909072126996,220.11133546457802,212.52999788265186,198.11612756158948
170,6,554,0,18.4851333333331,3.1622776601683795,66.37017402418047,6.0,13.0,18.110770276274835,19.4164878389476,26.476404589747453,48.16637831516918,35.22782990761707,33.5,26.0,33.0,3.5,18.5,2.5,2.5,12.0,14.035668847618199,13.5,35.0,31.0,30.01666203960727,232.26062946612367,232.0,224.22310318073826,206.7849124090053
171,6,555,0,18.518499999999765,6.0,69.46221994724903,5.0,13.038404810405298,20.223748416156685,21.213203435596427,26.476404589747453,50.15974481593781,37.33630940518894,34.0,25.0,33.0,3.0,21.0,5.0,3.0,11.0,13.038404810405298,12.5,34.0,28.0,30.0,230.10649708341572,229.01964981197574,222.3803048833237,204.9780476051033
172,6,556,0,18.55186666666643,6.0,75.32595834106593,6.082762530298219,12.0,22.090722034374522,22.360679774997898,25.709920264364882,49.49747468305833,37.656340767525464,34.0,25.0,32.0,3.5,20.5,5.5,1.5,12.041594578792296,12.0,11.5,35.0,29.0,28.0,231.10603626906848,231.01947969814148,226.3183598385248,208.95932618574363
173,6,557,0,18.585233333333097,4.0,71.25307010929424,6.082762530298219,13.0,20.223748416156685,21.213203435596427,25.495097567963924,48.373546489791295,35.510561809129406,33.0,26.0,32.0,4.0,19.0,3.0,2.0,12.0,13.038404810405298,12.0,35.0,32.0,27.0,229.21823662178366,229.00218339570478,224.22310318073826,206.7849124090053
174,6,558,0,18.618599999999763,2.23606797749979,66.48308055437865,6.0,12.041594578792296,19.235384061671343,19.4164878389476,26.476404589747453,46.2709412050371,34.52535300326414,33.0,25.0,33.0,3.0,17.0,1.0,3.0,12.0,13.038404810405298,13.0,36.0,30.0,30.01666203960727,230.07824755939012,228.01973598791838,220.27482833950864,202.71408436514716
175,6,559,0,18.65196666666643,1.0,69.26037828369117,6.082762530298219,12.041594578792296,20.09975124224178,20.09975124224178,25.317977802344327,44.181444068749045,32.38826948140329,31.5,26.0,32.0,4.0,15.0,0.0,2.0,12.041594578792296,13.0,12.5,34.0,29.0,29.017236257093817,229.01964981197574,228.07893370497854,221.44299492194375,205.0780339285512
176,6,560,0,18.68533333333309,1.4142135623730951,72.24956747275377,6.0,12.041594578792296,20.09975124224178,21.213203435596427,24.515301344262525,43.289721643826724,31.575306807693888,30.5,26.0,32.0,5.0,14.0,1.0,1.0,12.041594578792296,14.035668847618199,13.0,34.0,29.0,28.0178514522438,229.05457864884517,228.0350850198276,221.27358631341428,204.79257799051214
177,6,561,0,18.71869999999976,1.0,69.46221994724903,7.0,12.041594578792296,19.1049731745428,20.223748416156685,24.186773244895647,43.104524124504614,31.25699921617557,31.0,23.0,31.0,3.0,16.0,1.0,3.0,13.152946437965905,13.038404810405298,13.0,35.0,29.0,29.017236257093817,219.02054698132775,218.11235636707977,209.53758612716717,198.11612756158948
178,6,562,0,18.752066666666423,1.0,74.33034373659252,5.0990195135927845,11.0,21.095023109728988,21.213203435596427,25.317977802344327,42.1070065428546,31.144823004794873,30.5,24.0,31.0,2.5,14.5,0.5,2.5,13.038404810405298,14.035668847618199,13.0,35.0,27.0,31.0,229.00218339570478,227.14092541856036,221.50846484954022,206.0728026693479
179,6,563,0,18.78543333333309,0.0,74.43117626371358,7.0,10.04987562112089,23.194827009486403,23.345235059857504,25.317977802344327,42.1070065428546,32.2490309931942,32.0,23.0,31.0,2.0,15.0,1.0,4.0,13.038404810405298,13.038404810405298,13.0,33.0,25.0,32.01562118716424,230.00869548780108,227.2201575564985,219.58369702689677,206.0728026693479
180,6,564,0,18.81879999999976,2.23606797749979,73.55270219373317,7.0,12.041594578792296,21.095023109728988,21.37755832643195,25.079872407968907,46.04345773288535,34.132096331752024,33.0,23.0,32.0,2.5,18.5,2.5,3.5,14.035668847618199,14.035668847618199,14.0,36.0,29.0,31.144823004794873,222.02026934494066,220.14540649307222,211.4000946073582,197.82062582046393
181,6,565,0,18.852166666666424,3.0,76.6550715869472,6.0,12.041594578792296,22.20360331117452,23.345235059857504,26.1725046566048,47.042533945356304,35.12833614050059,33.5,23.0,33.0,2.0,19.0,3.0,4.0,12.165525060596439,14.035668847618199,13.5,35.0,27.0,32.0624390837628,224.0803427344755,221.32555207205516,213.67732682715777,200.21238722916223
182,6,566,0,18.88553333333309,3.0,76.6550715869472,6.082762530298219,12.041594578792296,22.20360331117452,22.360679774997898,26.1725046566048,47.01063709417264,35.05709628591621,33.5,24.0,34.0,3.0,18.0,2.0,3.0,13.038404810405298,14.0,14.0,36.0,28.0,32.0624390837628,222.14409737825582,219.3855054464629,210.68697159530296,198.01262586006985
183,6,567,0,18.91889999999976,4.123105625617661,74.54528824815154,7.0,12.165525060596439,21.213203435596427,21.37755832643195,25.079872407968907,48.010415536631214,36.013886210738214,34.0,25.0,34.0,4.5,18.5,2.5,2.5,13.038404810405298,14.0,13.5,37.0,26.0,31.144823004794873,228.0350850198276,226.2211307548435,219.58369702689677,204.88289338058462
184,6,568,0,18.95226666666642,4.0,73.55270219373317,7.0,11.180339887498949,21.213203435596427,22.20360331117452,25.179356624028344,47.01063709417264,36.124783736376884,34.0,26.0,35.0,5.5,16.5,2.5,1.5,14.142135623730951,15.0,14.0,37.0,26.0,32.2490309931942,227.31695933211847,225.71885167172013,219.10727965998757,205.7790076757102
185,6,569,0,18.985633333333087,6.0,74.54528824815154,7.0,14.142135623730951,20.223748416156685,20.223748416156685,25.079872407968907,52.0,38.05259518088089,35.0,27.0,36.0,6.5,20.5,2.5,0.5,13.038404810405298,14.0,13.5,37.0,24.0,32.14031735997639,228.49288829195538,225.97787502319778,217.44194627532195,202.6746160721663
186,6,570,0,19.01899999999976,5.0,72.44308110509934,6.0,13.038404810405298,20.09975124224178,21.213203435596427,26.019223662515376,50.0,37.013511046643494,34.5,28.0,36.0,6.0,18.0,2.0,0.0,13.152946437965905,14.0,13.5,37.0,25.0,31.25699921617557,225.71885167172013,223.0874268084152,212.24985276791125,198.57995870681412
187,6,571,0,19.05236666666642,5.0,73.33484846919642,7.0,14.035668847618199,20.09975124224178,21.213203435596427,26.0,52.009614495783374,38.0,35.5,29.0,36.0,6.5,19.5,2.5,0.5,14.035668847618199,14.0,13.5,36.0,24.0,33.24154027718932,224.8043593883357,222.0923231451281,213.4689672996991,198.57995870681412
188,6,572,0,19.085733333333085,4.0,72.44308110509934,7.0,13.152946437965905,20.09975124224178,20.223748416156685,27.0,51.03920062069938,38.0,36.0,30.0,38.0,7.0,17.0,1.0,0.0,15.132745950421556,15.0,14.5,37.0,25.0,33.37663853655727,226.79726629745784,223.0874268084152,212.14381914163798,198.45654436173174
189,6,573,0,19.11909999999975,5.0,75.53806987208503,7.0710678118654755,14.142135623730951,21.095023109728988,21.37755832643195,27.018512172212592,53.03772242470448,39.0,36.5,30.0,39.0,7.5,18.5,1.5,0.5,14.142135623730951,14.0,14.0,37.0,24.0,33.37663853655727,227.79376637651873,224.08257406590099,214.23818520515897,200.44201156444225
190,6,574,0,19.152466666666417,4.0,72.44308110509934,8.0,12.165525060596439,19.235384061671343,19.4164878389476,26.0,50.039984012787215,38.0,36.0,29.0,37.0,7.0,17.0,2.0,1.0,15.033296378372908,15.0,15.5,37.0,25.0,34.23448553724738,226.88322987827902,223.29352879114074,213.4689672996991,199.5720421301541
191,6,575,0,19.185833333333083,4.123105625617661,73.43704787094863,7.0,12.041594578792296,20.09975124224178,20.223748416156685,27.0,50.039984012787215,38.01315561749642,36.0,30.0,38.0,7.0,16.0,1.0,0.0,15.132745950421556,15.0,15.0,39.0,25.0,34.23448553724738,231.24878378058554,226.38462845343543,215.45533179756774,201.55644370746373
192,6,576,0,19.21919999999975,5.0,72.44308110509934,7.0710678118654755,12.165525060596439,20.09975124224178,20.396078054371138,26.0,50.08991914547278,38.01315561749642,35.5,29.0,37.0,7.0,17.0,2.0,0.0,15.132745950421556,16.0,15.5,39.0,24.0,34.36568055487916,230.25420734483876,225.50388023269133,214.5809870421888,199.83242980057065
193,6,577,0,19.25256666666641,5.0,73.55270219373317,7.0710678118654755,13.152946437965905,20.223748416156685,21.213203435596427,26.019223662515376,51.03920062069938,38.0,35.5,29.0,38.0,7.5,17.5,1.5,0.5,15.132745950421556,15.0,15.0,39.0,25.0,35.35533905932738,229.36651891677653,225.6213642366343,214.83249288690016,200.8233054204616
194,6,578,0,19.28593333333308,4.0,75.53806987208503,7.0710678118654755,12.165525060596439,22.090722034374522,22.20360331117452,27.018512172212592,50.039984012787215,38.0,36.0,30.0,39.0,7.5,15.5,0.5,0.5,14.035668847618199,16.0,15.0,38.0,23.0,36.22154055254967,229.2596780945136,224.51057881534223,214.46211786700232,201.6829194552677
195,6,579,0,19.319299999999743,6.0,74.43117626371358,6.0,12.165525060596439,22.090722034374522,22.20360331117452,28.0178514522438,52.08646657242167,40.01249804748511,37.0,31.0,39.0,7.0,17.0,2.0,1.0,14.142135623730951,15.033296378372908,15.0,37.0,24.0,31.25699921617557,230.05434140654683,224.28776159211185,214.23818520515897,200.44201156444225
196,6,580,0,19.35266666666641,6.0,74.54528824815154,7.0710678118654755,11.045361017187261,21.213203435596427,22.360679774997898,27.0,51.03920062069938,40.01249804748511,37.0,31.0,40.0,8.5,15.5,1.5,0.5,16.1245154965971,16.0,16.0,37.0,25.0,35.22782990761707,232.34887561595818,227.4906591488978,216.566387050253,201.6829194552677
197,6,581,0,19.38603333333308,6.0,72.44308110509934,7.0710678118654755,12.165525060596439,21.095023109728988,21.213203435596427,27.0,52.08646657242167,40.01249804748511,37.0,31.0,39.0,8.0,17.0,2.0,1.0,15.132745950421556,15.0,14.5,37.0,24.0,35.22782990761707,230.25420734483876,224.51057881534223,213.71242359769354,200.8233054204616
198,6,582,0,19.419399999999744,5.0,73.43704787094863,7.0,11.180339887498949,20.09975124224178,21.213203435596427,28.0178514522438,51.088159097779204,40.01249804748511,37.5,31.0,39.0,7.0,16.0,2.0,0.0,14.035668847618199,15.0,15.0,36.0,24.0,32.14031735997639,225.88713996153035,224.18296099391677,213.243991709028,201.3181561608391
199,6,583,0,19.45276666666641,6.0,73.43704787094863,7.0,12.165525060596439,20.09975124224178,20.223748416156685,28.071337695236398,53.150729063673246,41.048751503547585,38.0,32.0,40.0,8.0,17.0,2.0,1.0,16.0312195418814,17.0,16.5,37.0,25.0,36.124783736376884,231.8641843838759,228.87551201471948,219.73848092675985,205.87860500790265
200,6,584,0,19.48613333333308,6.0,73.33484846919642,6.082762530298219,13.038404810405298,21.095023109728988,21.213203435596427,29.0,54.037024344425184,41.012193308819754,38.0,33.0,40.0,7.5,17.5,2.5,1.5,14.142135623730951,14.035668847618199,14.0,35.0,24.0,33.13608305156178,224.98222151983475,220.20445045457188,210.1547049199708,197.12178976460214
201,6,585,0,19.51949999999974,6.0,73.33484846919642,7.0,11.180339887498949,20.09975124224178,21.213203435596427,28.0178514522438,52.08646657242167,41.012193308819754,38.0,33.0,40.0,8.5,15.5,1.5,1.5,15.033296378372908,15.033296378372908,15.0,36.0,26.0,34.132096331752024,231.62469643800938,226.71568097509268,216.74870241826133,200.80836635957178
202,6,586,0,19.552866666666407,6.0,73.24616030891995,6.0,10.04987562112089,22.090722034374522,22.090722034374522,28.0,50.00999900019995,40.0,37.0,33.0,39.0,8.0,14.0,2.0,2.0,14.035668847618199,15.033296378372908,14.5,35.0,26.0,33.13608305156178,234.61670869739862,228.63289352147035,217.66488003350472,202.63267258761604
203,6,587,0,19.58623333333308,6.0,74.24284477308234,7.0,10.04987562112089,21.02379604162864,22.090722034374522,28.0178514522438,51.0,41.012193308819754,38.0,34.0,40.0,9.0,14.0,2.0,3.0,14.035668847618199,14.0,14.0,33.0,26.0,36.013886210738214,228.49288829195538,225.5681715136247,216.59178193089414,204.70710783946902
204,6,588,0,19.61959999999974,6.0,75.16648189186454,7.0,11.045361017187261,21.02379604162864,22.090722034374522,29.0,53.009433122794285,42.0,39.0,35.0,40.0,8.5,15.5,1.5,2.5,15.033296378372908,15.033296378372908,15.0,33.0,27.0,34.0147027033899,228.31557108528537,224.43707358633955,214.4574549881631,200.48940121612415
205,6,589,0,19.652966666666405,5.0990195135927845,76.10519036176179,7.0,11.045361017187261,22.02271554554524,22.090722034374522,28.0,51.0,40.01249804748511,37.5,35.0,39.0,9.0,14.0,1.0,3.0,15.033296378372908,15.033296378372908,15.0,33.0,29.0,34.0,234.10467744152402,230.13908837917995,221.14474897677312,208.19462048765814
206,6,590,0,19.68633333333307,6.0,76.10519036176179,7.0,11.045361017187261,22.02271554554524,23.08679276123039,28.0,52.009614495783374,41.0,38.0,36.0,40.0,10.0,14.0,1.0,4.0,16.0,16.0,15.5,32.0,28.0,32.01562118716424,233.10512649875378,229.13969538253298,221.18318200080222,208.24024587000469
207,6,591,0,19.719699999999737,5.0,77.05841939723393,7.0,12.041594578792296,22.02271554554524,22.02271554554524,29.0,53.009433122794285,41.0,38.5,37.0,40.0,9.5,14.5,0.5,2.5,15.033296378372908,15.0,15.5,33.0,30.0,31.0,235.05318547086316,233.10512649875378,226.14154859291116,213.23461257497573
208,6,592,0,19.753066666666403,5.0,75.05997601918082,7.0,13.0,23.0,22.02271554554524,29.0,54.0,41.0,38.5,38.0,41.0,10.5,14.5,0.5,4.5,14.035668847618199,15.033296378372908,15.0,33.0,30.0,33.0,235.17227727774377,233.21449354617735,226.17913254763357,210.28789789238942
209,6,593,0,19.78643333333307,3.1622776601683795,75.02666192761077,7.0,12.041594578792296,21.02379604162864,21.02379604162864,28.0,50.0,38.01315561749642,36.5,37.0,39.0,10.0,12.0,1.0,3.0,15.0,15.0,14.5,34.0,30.0,35.0,237.21087664776252,234.21357774475842,228.31557108528537,214.39449619801343
210,6,594,0,19.81979999999973,3.0,78.02563681252464,7.0,10.04987562112089,22.02271554554524,23.021728866442675,29.0,49.01020301937138,39.0,37.5,37.0,39.0,9.0,11.0,1.0,2.0,15.0,15.033296378372908,15.0,33.0,30.0,37.013511046643494,238.20999139414786,234.30749027719963,227.3719419805355,214.4574549881631
211,6,595,0,19.8531666666664,2.0,77.05841939723393,7.0,10.0,21.0,21.0,28.0178514522438,47.01063709417264,37.013511046643494,36.0,35.0,38.0,8.5,10.5,1.5,2.5,14.035668847618199,16.0,15.0,32.0,30.0,36.013886210738214,240.20824298928628,236.21176939348302,228.21919288263203,215.23243250030885
212,6,596,0,19.886533333333063,2.0,80.02499609497022,7.0,10.04987562112089,24.020824298928627,23.021728866442675,28.0178514522438,47.0,37.013511046643494,36.0,36.0,38.0,9.0,10.0,2.0,3.0,14.0,15.033296378372908,14.0,33.0,31.0,35.014282800023196,238.17010727629108,235.25730594393875,229.2640399190418,217.38905216224666
213,6,597,0,19.91989999999973,2.0,78.05767098754612,7.0,12.041594578792296,22.0,23.0,29.017236257093817,50.0,38.01315561749642,37.0,37.0,40.0,9.5,11.5,2.5,3.5,14.0,14.0,13.5,34.0,30.0,37.0,242.20652344641752,239.30106560565082,232.31013753170566,218.38727069131113
214,6,598,0,19.9532666666664,3.0,76.10519036176179,8.0,14.0,22.0,23.021728866442675,28.0,53.0,39.0,37.5,37.0,41.0,11.0,14.0,1.0,4.0,15.0,17.029386365926403,16.5,33.0,30.0,34.0,239.13385373049965,236.13555429032706,228.17756243767704,216.23135757794242
215,6,599,0,19.986633333333064,3.1622776601683795,76.10519036176179,8.0,13.0,21.02379604162864,22.02271554554524,28.0178514522438,52.03844732503075,39.05124837953327,37.5,38.0,42.0,12.0,12.0,2.0,4.0,15.033296378372908,16.0312195418814,15.5,33.0,29.0,37.0,241.3503677229434,237.41314201197878,230.4256930118688,216.52020690919358
216,6,600,0,20.01999999999973,3.0,75.05997601918082,8.0,13.038404810405298,21.02379604162864,22.02271554554524,28.0,52.009614495783374,39.0,37.5,38.0,41.0,11.5,12.5,2.5,3.5,15.033296378372908,15.033296378372908,14.5,34.0,29.0,35.014282800023196,238.1344158243407,235.25730594393875,229.2640399190418,216.33307652783935
217,6,601,0,20.053366666666395,3.0,76.05918747922567,8.0,13.038404810405298,22.02271554554524,22.090722034374522,28.0178514522438,52.03844732503075,39.01281840626232,37.5,38.0,41.0,11.5,12.5,1.5,3.5,16.0,16.0312195418814,16.0,33.0,30.0,37.013511046643494,241.16799124261908,239.2091135387613,231.21634890292685,216.27991122617004
218,6,602,0,20.08673333333306,3.0,76.05918747922567,8.0,13.038404810405298,21.095023109728988,22.02271554554524,29.0,53.009433122794285,40.0,38.5,39.0,42.0,11.5,12.5,1.5,3.5,15.033296378372908,15.033296378372908,15.0,35.0,32.0,38.0,241.13274352522097,237.25513693068902,230.2628932329306,216.33307652783935
219,6,603,0,20.120099999999727,3.0,75.05997601918082,8.0,12.0,21.02379604162864,21.095023109728988,30.0,53.0,41.0,39.5,38.0,41.0,9.5,13.5,0.5,2.5,14.035668847618199,15.0,15.0,34.0,30.0,34.058772731852805,242.24987100099764,238.30232898568156,228.26519664635694,214.3361845326169
220,6,604,0,20.1534666666664,2.0,75.05997601918082,6.082762530298219,13.038404810405298,21.0,22.02271554554524,32.0,53.03772242470448,40.01249804748511,39.0,38.0,41.0,7.5,13.5,1.5,2.5,16.0312195418814,17.0,16.5,34.0,30.0,35.014282800023196,241.1016383187804,238.20999139414786,228.31557108528537,214.39449619801343
221,6,605,0,20.18683333333306,1.4142135623730951,74.06078584514209,7.0,11.045361017187261,22.02271554554524,22.090722034374522,32.01562118716424,51.0098029794274,40.049968789001575,39.5,38.0,41.0,7.5,11.5,1.5,1.5,14.0,15.033296378372908,14.5,33.0,28.0,31.016124838541646,243.13165157996193,237.25513693068902,227.3719419805355,213.52751579129094
222,6,606,0,20.220199999999725,2.0,75.05997601918082,7.0,11.180339887498949,21.02379604162864,21.095023109728988,31.0,51.03920062069938,40.0,39.0,38.0,41.0,8.5,11.5,1.5,2.5,14.035668847618199,16.0312195418814,16.0,34.0,30.0,35.014282800023196,240.13329631685815,236.25621684941964,226.3183598385248,211.53250341259616
223,6,607,0,20.25356666666639,3.1622776601683795,72.02777242147643,7.0710678118654755,13.038404810405298,21.02379604162864,21.02379604162864,32.01562118716424,55.0,42.01190307520001,40.5,40.0,42.0,9.0,14.0,1.0,3.0,15.0,16.0,15.5,34.0,30.0,35.0,240.20824298928628,235.25730594393875,225.31977276750482,209.46837470128995
224,6,608,0,20.286933333333057,2.0,72.00694410957877,7.0,12.041594578792296,18.027756377319946,19.026297590440446,34.0,55.00909015790027,43.0,42.0,42.0,43.0,8.5,12.5,1.5,2.5,16.0312195418814,16.0312195418814,16.0,34.0,30.0,34.0147027033899,240.13329631685815,236.25621684941964,225.31977276750482,210.4661492972207
225,6,609,0,20.32029999999972,2.0,74.02702209328699,7.0,10.04987562112089,18.027756377319946,19.0,35.014282800023196,54.0,44.01136216933077,43.0,41.0,43.0,7.0,12.0,0.0,1.0,11.0,12.041594578792296,11.0,34.0,31.0,35.014282800023196,237.1349826575573,233.25951213187426,224.50167037240502,210.68697159530296
226,6,610,0,20.35366666666639,4.0,75.0066663703967,7.0,11.045361017187261,20.024984394500787,20.024984394500787,33.015148038438355,55.0,44.01136216933077,42.0,41.0,42.0,8.5,13.5,0.5,2.5,8.0,9.055385138137417,9.0,36.0,34.0,34.0147027033899,238.1344158243407,235.2126697267815,227.3719419805355,213.45959805077868
227,6,611,0,20.38703333333305,4.0,77.02596964660685,7.0,11.045361017187261,21.02379604162864,21.02379604162864,33.015148038438355,55.0,44.01136216933077,42.0,39.0,41.0,7.0,15.0,1.0,1.0,10.0,10.04987562112089,10.0,36.0,33.0,36.013886210738214,241.29857024027308,239.35329536064467,231.42385356743154,216.52020690919358
228,6,612,0,20.42039999999972,4.0,76.05918747922567,7.0710678118654755,12.0,22.0,23.0,31.016124838541646,54.0,42.0,40.0,37.0,40.0,7.5,15.5,1.5,2.5,12.041594578792296,13.0,12.5,36.0,32.0,36.013886210738214,236.25621684941964,232.26062946612367,223.27113561766106,209.28927349484493
229,6,613,0,20.453766666666382,5.0,75.05997601918082,7.0710678118654755,12.041594578792296,21.0,22.090722034374522,31.0,55.036351623268054,43.01162633521314,40.5,37.0,40.0,7.5,16.5,2.5,1.5,13.0,13.0,12.5,34.0,29.0,37.05401462729781,237.41314201197878,233.4823333787805,222.50617968946392,208.47062143141417
230,6,614,0,20.48713333333305,7.0,69.1158447825099,6.082762530298219,12.041594578792296,19.026297590440446,20.09975124224178,32.0,57.0350769263968,45.0111097397076,41.5,38.0,42.0,8.0,17.0,3.0,2.0,14.035668847618199,15.0,14.5,36.0,30.0,32.01562118716424,241.29857024027308,236.35777964771967,227.49505489130968,212.52999788265186
231,6,615,0,20.52049999999972,3.1622776601683795,68.0294054067798,7.0710678118654755,14.035668847618199,19.026297590440446,21.095023109728988,32.01562118716424,56.0,42.01190307520001,40.5,39.0,41.0,8.0,16.0,0.0,2.0,13.0,14.0,13.5,34.0,28.0,32.0624390837628,238.17010727629108,236.25621684941964,225.31977276750482,210.34257771549724
232,6,616,0,20.553866666666384,3.0,69.06518659932803,6.0,16.0,18.027756377319946,19.1049731745428,31.016124838541646,56.00892785976178,40.01249804748511,38.5,38.0,41.0,8.5,16.5,1.5,2.5,14.0,14.035668847618199,14.0,33.0,28.0,32.01562118716424,243.20567427590993,239.2091135387613,228.31557108528537,213.39634486091836
233,6,617,0,20.58723333333305,2.0,69.1158447825099,7.0,13.038404810405298,18.027756377319946,18.110770276274835,32.01562118716424,54.037024344425184,41.012193308819754,40.0,38.0,42.0,8.0,14.0,1.0,2.0,13.038404810405298,15.033296378372908,14.5,35.0,28.0,33.13608305156178,240.3518254559345,237.35627229968034,227.3719419805355,211.4000946073582
234,6,618,0,20.620599999999715,2.0,69.18092222571191,7.0,16.0312195418814,19.1049731745428,20.09975124224178,31.016124838541646,56.0357029044876,40.01249804748511,39.0,38.0,43.0,9.5,15.5,2.5,2.5,14.035668847618199,15.0,14.0,34.0,28.0,34.058772731852805,241.25090673404733,237.30360300678117,227.3719419805355,213.52751579129094
235,6,619,0,20.65396666666638,4.0,68.11754546370561,7.0,16.0312195418814,18.110770276274835,18.027756377319946,30.01666203960727,57.0350769263968,41.012193308819754,39.0,38.0,42.0,10.0,17.0,1.0,3.0,15.033296378372908,15.033296378372908,15.0,33.0,27.0,33.06055050963308,240.40798655618744,237.41314201197878,228.49288829195538,213.60009363293827
236,6,620,0,20.687333333333047,2.0,71.17583859709698,7.0710678118654755,15.033296378372908,17.029386365926403,18.027756377319946,32.0,56.0357029044876,41.012193308819754,40.0,37.0,42.0,7.5,16.5,0.5,1.5,13.152946437965905,14.0,14.0,33.0,27.0,34.058772731852805,236.30488780387088,232.36393868240398,221.38202275704322,206.47518010647187
237,6,621,0,20.72069999999972,3.0,73.17103251970687,6.082762530298219,14.035668847618199,19.026297590440446,20.09975124224178,33.0,56.0357029044876,42.01190307520001,40.5,36.0,41.0,5.5,17.5,1.5,0.5,14.035668847618199,15.033296378372908,14.5,33.0,27.0,33.13608305156178,240.40798655618744,235.47823678633233,226.63847863944022,211.68372634664195
238,6,622,0,20.75406666666638,4.0,72.17340230306452,6.0,10.198039027185569,18.027756377319946,19.1049731745428,33.015148038438355,53.08483775994799,43.01162633521314,41.0,36.0,41.0,5.5,14.5,2.5,0.5,14.035668847618199,15.033296378372908,15.0,33.0,26.0,32.0624390837628,238.6063704095094,234.61670869739862,224.57070156189118,208.54016399725018
239,6,623,0,20.787433333333045,4.0,76.16429609731846,6.0,10.198039027185569,20.024984394500787,21.095023109728988,31.0,51.03920062069938,41.0,39.0,35.0,40.0,6.5,13.5,1.5,1.5,14.035668847618199,13.0,13.0,34.0,26.0,39.11521443121589,235.47823678633233,231.5534495532295,223.57325421436258,209.53758612716717
240,6,624,0,20.82079999999971,7.0,72.17340230306452,6.082762530298219,11.045361017187261,19.026297590440446,19.1049731745428,29.017236257093817,53.009433122794285,42.0,38.5,35.0,40.0,8.5,15.5,2.5,2.5,13.038404810405298,14.035668847618199,14.0,33.0,25.0,33.06055050963308,236.4148895480147,232.36393868240398,225.37524265100637,209.40391591371923
241,6,625,0,20.854166666666377,5.0,72.17340230306452,8.0,13.038404810405298,19.026297590440446,20.09975124224178,27.018512172212592,53.03772242470448,40.01249804748511,37.5,35.0,40.0,10.5,15.5,0.5,2.5,14.035668847618199,15.033296378372908,14.5,34.0,26.0,32.14031735997639,235.61409125941512,231.5534495532295,223.64704335179573,209.6115454835444
242,6,626,0,20.88753333333304,4.0,71.11258679024411,6.082762530298219,12.041594578792296,20.024984394500787,20.09975124224178,27.0,49.040799340956916,37.013511046643494,35.0,35.0,39.0,10.0,12.0,2.0,4.0,13.0,14.0,14.0,33.0,24.0,33.06055050963308,230.70327262524907,225.71885167172013,216.6679487141557,200.63897926375125
243,6,627,0,20.92089999999971,3.0,73.10950690573696,6.082762530298219,14.142135623730951,21.02379604162864,22.02271554554524,26.019223662515376,49.16299421312742,35.05709628591621,33.5,32.0,36.0,8.0,15.0,1.0,3.0,13.038404810405298,13.0,13.5,34.0,27.0,33.13608305156178,236.4148895480147,232.36393868240398,225.37524265100637,211.3409567499873
244,6,628,0,20.95426666666637,2.23606797749979,75.16648189186454,6.082762530298219,14.142135623730951,23.08679276123039,23.08679276123039,26.0,48.16637831516918,34.058772731852805,33.0,31.0,36.0,7.5,14.5,1.5,2.5,13.038404810405298,13.038404810405298,13.0,34.0,26.0,33.13608305156178,237.68256141332708,234.69128658729537,226.71568097509268,212.76277869965884
245,6,629,0,20.98763333333304,4.123105625617661,76.16429609731846,6.0,15.132745950421556,22.02271554554524,24.020824298928627,25.019992006393608,50.15974481593781,35.05709628591621,33.0,30.0,35.0,7.5,17.5,0.5,2.5,13.038404810405298,13.0,13.5,34.0,26.0,32.0624390837628,235.54405108174564,232.48440807933767,223.4390297150433,208.40585404445815
246,6,630,0,21.020999999999702,4.123105625617661,74.16872656315464,6.0,17.11724276862369,21.095023109728988,22.090722034374522,25.019992006393608,52.15361924162119,35.05709628591621,33.0,32.0,37.0,9.5,17.5,0.5,3.5,14.142135623730951,14.0,13.5,33.0,26.0,33.13608305156178,234.54637068179076,229.55827146935917,221.5784285529618,205.47749268472205
247,6,631,0,21.05436666666637,4.47213595499958,72.24956747275377,6.0,16.1245154965971,20.09975124224178,21.02379604162864,26.019223662515376,52.23983154643591,36.124783736376884,34.0,33.0,39.0,10.0,16.0,2.0,4.0,14.035668847618199,15.0,14.5,33.0,26.0,33.13608305156178,235.61409125941512,233.69424468736923,224.8043593883357,209.77368757782756
248,6,632,0,21.08773333333304,5.0990195135927845,74.24284477308234,6.0,13.038404810405298,21.095023109728988,22.090722034374522,27.0,51.03920062069938,38.01315561749642,35.5,34.0,40.0,10.0,14.0,1.0,4.0,12.0,13.038404810405298,13.0,33.0,24.0,35.12833614050059,234.61670869739862,229.78685776170926,221.90313201935658,207.96393918177256
249,6,633,0,21.121099999999704,5.0,74.33034373659252,6.082762530298219,12.165525060596439,20.09975124224178,20.09975124224178,27.018512172212592,50.15974481593781,38.05259518088089,35.5,32.0,39.0,8.5,14.5,0.5,2.5,12.041594578792296,13.0,13.0,32.0,24.0,32.0624390837628,236.6854452643846,232.6972281742952,224.72205054244233,210.77001684300356
250,6,634,0,21.15446666666637,5.0,68.26419266350405,7.0710678118654755,12.165525060596439,19.1049731745428,20.09975124224178,26.0,50.08991914547278,38.01315561749642,35.5,33.0,39.0,10.0,14.0,0.0,3.0,13.038404810405298,14.0,14.0,34.0,26.0,33.13608305156178,239.5349661322956,235.61409125941512,226.63847863944022,212.76277869965884
251,6,635,0,21.187833333333035,6.0,69.18092222571191,6.082762530298219,11.045361017187261,19.026297590440446,19.1049731745428,26.019223662515376,49.09175083453431,38.05259518088089,35.0,33.0,38.0,9.5,13.5,0.5,3.5,14.035668847618199,14.0,14.0,33.0,23.0,34.132096331752024,237.8423847845459,232.7767170487633,223.80795338861395,208.7773934122179
252,6,636,0,21.2211999999997,5.0,72.24956747275377,7.0,12.041594578792296,20.024984394500787,20.09975124224178,27.018512172212592,51.03920062069938,39.01281840626232,36.5,34.0,40.0,10.0,14.0,0.0,4.0,12.041594578792296,13.0,13.0,34.0,25.0,36.124783736376884,235.8495283014151,232.7767170487633,224.72205054244233,209.77368757782756
253,6,637,0,21.254566666666367,4.0,70.25667228100119,7.0,12.165525060596439,20.024984394500787,21.095023109728988,27.073972741361768,50.15974481593781,38.05259518088089,36.0,34.0,40.0,10.0,13.0,1.0,4.0,13.038404810405298,14.0,14.0,34.0,26.0,34.132096331752024,235.76683396949622,232.6972281742952,224.72205054244233,209.69024774652732
254,6,638,0,21.28793333333304,6.0,70.34912934784623,6.0,11.180339887498949,19.026297590440446,20.09975124224178,28.0178514522438,51.088159097779204,40.01249804748511,37.0,34.0,41.0,9.5,13.5,0.5,3.5,14.035668847618199,14.0,13.5,34.0,25.0,34.058772731852805,239.67686580060246,235.68835355188853,226.79726629745784,211.85372312045877
255,6,639,0,21.3212999999997,4.123105625617661,71.25307010929424,7.0710678118654755,12.165525060596439,19.026297590440446,19.1049731745428,27.018512172212592,50.08991914547278,38.01315561749642,36.0,34.0,40.0,10.0,13.0,0.0,3.0,14.035668847618199,14.0,13.5,35.0,26.0,34.132096331752024,236.6854452643846,234.69128658729537,226.71568097509268,211.68372634664195
256,6,640,0,21.354666666666365,4.0,69.26037828369117,7.0710678118654755,13.038404810405298,19.1049731745428,19.026297590440446,27.018512172212592,51.088159097779204,38.05259518088089,36.0,33.0,39.0,9.0,15.0,0.0,2.0,14.035668847618199,15.0,14.5,34.0,23.0,34.058772731852805,237.8423847845459,234.85314560380067,226.97356674291393,212.14381914163798
257,6,641,0,21.38803333333303,7.0,72.24956747275377,8.0,12.041594578792296,21.095023109728988,21.095023109728988,26.019223662515376,53.03772242470448,41.012193308819754,37.5,34.0,40.0,11.0,16.0,2.0,3.0,14.035668847618199,15.0,14.5,34.0,26.0,33.13608305156178,235.54405108174564,231.62469643800938,224.57070156189118,207.6174366473105
258,6,642,0,21.421399999999696,8.0,74.16872656315464,7.0710678118654755,13.038404810405298,21.02379604162864,22.090722034374522,26.0,54.037024344425184,41.012193308819754,37.0,34.0,39.0,10.5,17.5,2.5,3.5,13.038404810405298,14.0,13.5,33.0,25.0,32.14031735997639,232.62201099638014,229.7063342618135,222.72853431924702,207.78113485107352
259,6,643,0,21.45476666666636,5.0,73.24616030891995,6.082762530298219,13.038404810405298,20.09975124224178,21.095023109728988,28.0,52.03844732503075,39.01281840626232,36.5,33.0,39.0,8.0,16.0,1.0,2.0,13.038404810405298,14.0,13.5,34.0,26.0,32.0624390837628,237.30360300678117,232.26062946612367,225.26872841120226,211.28653530218153
260,6,644,0,21.488133333333028,3.1622776601683795,73.17103251970687,7.0710678118654755,11.045361017187261,22.02271554554524,21.02379604162864,27.0,48.093658625644196,37.05401462729781,35.5,34.0,39.0,9.5,11.5,1.5,3.5,13.038404810405298,14.0,14.5,35.0,24.0,33.13608305156178,239.35329536064467,235.35929979501554,225.37524265100637,210.4661492972207
261,6,645,0,21.52149999999969,4.0,72.24956747275377,7.0710678118654755,12.041594578792296,20.024984394500787,21.02379604162864,27.018512172212592,50.00999900019995,38.0,36.0,33.0,39.0,9.0,14.0,0.0,3.0,15.033296378372908,15.0,14.5,35.0,26.0,32.14031735997639,238.41140912296962,234.4184293096428,225.37524265100637,210.40199618824911
262,6,646,0,21.55486666666636,5.0990195135927845,71.25307010929424,7.0,12.041594578792296,21.02379604162864,21.095023109728988,27.0,51.03920062069938,39.01281840626232,36.5,33.0,39.0,9.0,15.0,1.0,3.0,13.152946437965905,14.0,14.0,35.0,26.0,36.013886210738214,236.5417510715603,233.4823333787805,223.4390297150433,208.40585404445815
263,6,647,0,21.588233333333022,4.0,74.16872656315464,6.0,12.041594578792296,19.026297590440446,20.09975124224178,27.018512172212592,49.040799340956916,37.013511046643494,35.0,33.0,38.0,8.5,13.5,0.5,2.5,15.132745950421556,15.0,15.0,34.0,26.0,37.05401462729781,230.70327262524907,227.63567382991621,218.66183937761065,201.63581031156147
264,6,648,0,21.62159999999969,4.123105625617661,73.17103251970687,7.0710678118654755,13.152946437965905,21.02379604162864,22.02271554554524,27.018512172212592,51.088159097779204,38.01315561749642,36.0,33.0,38.0,8.5,15.5,0.5,2.5,13.038404810405298,15.033296378372908,14.5,36.0,27.0,38.05259518088089,240.6013300046365,237.53947040439405,227.49505489130968,212.46176126540982
265,6,649,0,21.65496666666636,5.0,71.25307010929424,7.0,13.038404810405298,19.026297590440446,20.09975124224178,26.076809620810597,51.088159097779204,38.05259518088089,35.5,32.0,38.0,9.0,16.0,1.0,3.0,14.035668847618199,16.0,15.5,35.0,26.0,38.05259518088089,233.6193485137736,229.55827146935917,222.50617968946392,206.54539452623968
266,6,650,0,21.688333333333023,5.0,72.17340230306452,5.0990195135927845,14.035668847618199,20.024984394500787,21.095023109728988,27.018512172212592,51.088159097779204,37.05401462729781,34.5,33.0,38.0,8.5,15.5,0.5,3.5,15.033296378372908,16.0,15.5,35.0,27.0,35.014282800023196,230.7834482799839,225.80079716422614,216.74870241826133,199.81241202688085
267,6,651,0,21.72169999999969,5.0990195135927845,70.25667228100119,6.0,11.045361017187261,20.09975124224178,20.09975124224178,26.0,48.041648597857254,37.013511046643494,34.5,32.0,38.0,9.0,13.0,0.0,3.0,13.152946437965905,13.0,13.5,35.0,24.0,36.22154055254967,235.76683396949622,229.78685776170926,219.8226557932553,205.87860500790265
268,6,652,0,21.755066666666355,4.123105625617661,71.17583859709698,6.0,15.033296378372908,22.02271554554524,23.08679276123039,26.076809620810597,51.15662224971465,36.124783736376884,34.0,32.0,37.0,8.5,16.5,1.5,3.5,14.035668847618199,15.0,15.0,33.0,25.0,32.14031735997639,233.6193485137736,227.56317804073663,217.51781536232843,202.48456731316588
269,6,653,0,21.78843333333302,2.23606797749979,71.17583859709698,6.0,15.033296378372908,20.09975124224178,21.095023109728988,26.076809620810597,49.16299421312742,34.132096331752024,33.0,31.0,36.0,7.5,15.5,1.5,2.5,14.142135623730951,15.033296378372908,15.0,34.0,26.0,33.24154027718932,233.69424468736923,227.71253808255707,216.74870241826133,202.8003944769339
270,6,654,0,21.821799999999687,2.0,72.17340230306452,6.082762530298219,14.142135623730951,22.090722034374522,23.08679276123039,26.0,48.093658625644196,34.0147027033899,33.0,30.0,35.0,6.5,15.5,0.5,1.5,14.035668847618199,15.033296378372908,15.0,34.0,25.0,33.24154027718932,234.61670869739862,228.63289352147035,218.58636736997119,203.62956563328422
271,6,655,0,21.85516666666636,3.1622776601683795,73.17103251970687,6.0,15.132745950421556,22.090722034374522,23.08679276123039,26.019223662515376,50.15974481593781,35.05709628591621,33.5,31.0,36.0,7.5,16.5,0.5,2.5,14.035668847618199,14.0,14.0,33.0,24.0,32.14031735997639,231.04977818643323,226.07299706068392,217.0184323968819,203.08865059377396
272,6,656,0,21.88853333333302,2.0,72.17340230306452,6.082762530298219,13.152946437965905,21.02379604162864,21.095023109728988,27.0,48.093658625644196,35.014282800023196,34.0,33.0,38.0,8.5,12.5,2.5,3.5,14.035668847618199,15.0,15.0,34.0,24.0,35.22782990761707,233.13729860320507,226.27637967759694,216.44860821913363,202.42776489404807
273,6,657,0,21.921899999999685,3.1622776601683795,72.17340230306452,6.082762530298219,12.165525060596439,20.09975124224178,21.095023109728988,27.018512172212592,48.093658625644196,36.013886210738214,34.5,33.0,38.0,8.5,12.5,1.5,2.5,13.038404810405298,14.0,14.0,34.0,24.0,36.05551275463989,231.14713928578047,226.07299706068392,215.92822881689185,200.90047287151916
274,6,658,0,21.95526666666635,4.0,70.25667228100119,6.0,12.041594578792296,20.09975124224178,20.09975124224178,26.019223662515376,48.041648597857254,36.013886210738214,34.0,31.0,37.0,8.0,14.0,0.0,2.0,15.132745950421556,16.0,16.0,34.0,25.0,34.132096331752024,233.36237914453991,227.43130831088317,218.51544567833184,204.55072720476943
275,6,659,0,21.988633333333016,3.0,73.24616030891995,6.0,11.045361017187261,20.09975124224178,20.09975124224178,26.0,46.010868281309364,35.0,33.5,31.0,37.0,8.0,12.0,1.0,2.0,15.033296378372908,15.0,15.0,33.0,26.0,36.124783736376884,234.3608329051593,229.42754847663784,219.44703233354514,204.55072720476943
276,6,660,0,22.02199999999968,2.0,75.16648189186454,6.0,11.045361017187261,22.090722034374522,22.090722034374522,26.019223662515376,45.044422518220834,34.0147027033899,33.0,31.0,36.0,7.5,11.5,1.5,1.5,14.035668847618199,15.0,15.0,34.0,26.0,40.11234224026316,234.3608329051593,228.31557108528537,217.33154395991392,203.35437049643167
277,6,661,0,22.055366666666348,2.23606797749979,76.10519036176179,7.0,13.038404810405298,21.02379604162864,22.090722034374522,25.0,47.042533945356304,34.0147027033899,33.0,31.0,35.0,8.0,14.0,1.0,2.0,15.033296378372908,15.0,15.0,34.0,27.0,39.01281840626232,235.30618351416098,229.31419493786248,220.32702966272657,205.41178155110774
278,6,662,0,22.08873333333301,2.0,78.16009211867653,7.0710678118654755,11.180339887498949,23.08679276123039,23.08679276123039,25.0,45.09988913511872,34.0147027033899,33.0,30.0,35.0,7.5,12.5,0.5,0.5,13.038404810405298,14.035668847618199,14.0,33.0,24.0,35.05709628591621,234.4184293096428,229.42754847663784,220.44500447957535,206.54539452623968
279,6,663,0,22.12209999999968,3.0,78.16009211867653,6.082762530298219,11.045361017187261,21.02379604162864,21.095023109728988,26.0,46.04345773288535,35.014282800023196,33.5,30.0,35.0,6.5,13.5,0.5,0.5,14.035668847618199,15.0,15.0,34.0,28.0,38.05259518088089,234.48027635602958,230.4256930118688,221.38202275704322,207.40781084616847
280,6,664,0,22.155466666666342,2.0,78.10249675906654,7.0,10.04987562112089,21.02379604162864,21.02379604162864,25.0,44.01136216933077,34.0,33.0,29.0,33.0,6.0,13.0,0.0,0.0,14.035668847618199,14.035668847618199,14.0,34.0,26.0,37.12142238654117,235.41665191740367,232.42202993692314,223.503914954526,209.6115454835444
281,6,665,0,22.18883333333301,2.0,80.09993757800315,7.0,10.04987562112089,21.095023109728988,22.090722034374522,25.0,44.01136216933077,34.0,33.0,29.0,33.0,6.0,13.0,1.0,1.0,15.033296378372908,15.0,15.0,34.0,28.0,37.12142238654117,230.5558500667463,227.56317804073663,220.51077071199947,205.54804791094466
282,6,666,0,22.22219999999968,2.0,80.15609770940699,6.0,10.0,22.0,22.02271554554524,26.0,44.0,34.0,33.0,29.0,34.0,5.5,12.5,0.5,0.5,14.0,14.0,13.5,32.0,24.0,35.05709628591621,234.3608329051593,230.4256930118688,223.37860237721964,209.40391591371923
283,6,667,0,22.255566666666343,1.0,82.09750300709517,7.0,10.04987562112089,22.02271554554524,22.02271554554524,25.019992006393608,43.04648650006177,33.015148038438355,32.5,27.0,31.0,4.0,14.0,2.0,2.0,16.0,16.0312195418814,15.5,33.0,28.0,33.015148038438355,235.35929979501554,232.42202993692314,226.43321311150447,212.3982109152523
284,6,668,0,22.28893333333301,1.4142135623730951,82.09750300709517,8.0,9.0,22.0,22.02271554554524,25.019992006393608,43.04648650006177,34.058772731852805,33.5,27.0,31.0,4.0,14.0,3.0,2.0,14.035668847618199,15.0,14.5,32.0,26.0,33.015148038438355,236.30488780387088,232.36393868240398,225.31977276750482,213.3377603707323
285,6,669,0,22.322299999999675,2.0,82.09750300709517,7.0,10.04987562112089,25.019992006393608,24.020824298928627,24.0,43.01162633521314,33.0,32.0,25.0,29.0,3.0,16.0,4.0,3.0,11.045361017187261,10.0,10.0,32.0,20.0,35.35533905932738,235.54405108174564,229.49074055394914,221.5784285529618,210.68697159530296
286,6,670,0,22.35566666666634,4.0,84.09518416651456,7.0710678118654755,12.041594578792296,23.021728866442675,23.021728866442675,25.0,48.041648597857254,36.013886210738214,34.0,26.0,30.0,3.0,20.0,6.0,3.0,14.035668847618199,14.035668847618199,14.0,34.0,25.0,38.2099463490856,235.54405108174564,232.62201099638014,225.64130827488125,213.75921032788273
287,6,671,0,22.389033333333007,8.06225774829855,84.09518416651456,8.0,13.0,23.0,23.021728866442675,25.0,54.00925846556311,41.012193308819754,37.0,29.0,33.0,6.0,23.0,9.0,1.0,13.038404810405298,13.038404810405298,12.5,33.0,23.0,36.05551275463989,240.6013300046365,235.61409125941512,228.49288829195538,215.52262062252305
288,6,672,0,22.42239999999968,8.06225774829855,83.09632964216891,8.06225774829855,11.045361017187261,25.0,25.019992006393608,26.019223662515376,53.0,42.01190307520001,38.0,30.0,34.0,6.0,21.0,8.0,0.0,14.035668847618199,14.035668847618199,14.0,32.0,26.0,33.06055050963308,237.25513693068902,231.3114783144148,222.32408776378685,210.40199618824911
289,6,673,0,22.45576666666634,8.0,81.09870529176159,7.0,11.045361017187261,22.02271554554524,23.021728866442675,25.0,51.0098029794274,40.0,36.0,29.0,33.0,6.0,20.0,7.0,0.0,14.035668847618199,14.0,14.0,33.0,26.0,35.05709628591621,233.4823333787805,229.49074055394914,221.5784285529618,210.6086417980041
290,6,674,0,22.489133333333005,4.0,77.05841939723393,6.0,11.045361017187261,22.02271554554524,21.02379604162864,25.0,46.010868281309364,35.0,33.0,30.0,33.0,6.5,14.5,1.5,0.5,15.033296378372908,14.0,14.5,33.0,27.0,34.132096331752024,231.48650068632512,226.43321311150447,218.44907873461037,205.41178155110774
291,6,675,0,22.52249999999967,1.0,74.06078584514209,6.0,11.0,21.02379604162864,21.095023109728988,25.0,43.0,32.0,31.5,30.0,33.0,6.5,11.5,1.5,1.5,14.035668847618199,14.035668847618199,14.0,33.0,26.0,35.12833614050059,229.55827146935917,224.57070156189118,215.52262062252305,201.5589243868899
292,6,676,0,22.555866666666336,3.0,76.10519036176179,5.0,11.045361017187261,24.08318915758459,24.08318915758459,25.0,44.01136216933077,33.0,31.5,30.0,34.0,7.0,12.0,1.0,2.0,14.035668847618199,15.0,15.0,33.0,26.0,34.058772731852805,236.4148895480147,230.3670983452281,219.3855054464629,206.3492185592182
293,6,677,0,22.589233333333,2.0,78.10249675906654,6.0,13.038404810405298,23.021728866442675,23.021728866442675,25.019992006393608,46.04345773288535,33.015148038438355,32.0,30.0,34.0,7.0,14.0,1.0,2.0,14.0,14.0,14.0,34.0,26.0,36.124783736376884,237.41314201197878,233.36237914453991,224.32119828495925,209.2390976849212
294,6,678,0,22.622599999999668,3.0,74.10802925459562,6.082762530298219,13.152946437965905,23.0,23.021728866442675,25.019992006393608,47.16990566028302,34.058772731852805,32.5,31.0,35.0,8.0,14.0,1.0,4.0,13.152946437965905,14.0,14.0,32.0,24.0,33.13608305156178,232.6972281742952,228.70942263055102,218.82641522448793,205.7887266105702
295,6,679,0,22.65596666666633,4.123105625617661,74.16872656315464,6.082762530298219,14.035668847618199,23.08679276123039,23.021728866442675,26.019223662515376,50.15974481593781,36.124783736376884,34.0,31.0,36.0,7.5,16.5,0.5,2.5,13.038404810405298,14.035668847618199,14.5,32.0,25.0,30.265491900843113,235.47823678633233,230.5558500667463,219.58369702689677,205.54804791094466
296,6,680,0,22.689333333333,4.123105625617661,72.24956747275377,7.0710678118654755,14.142135623730951,22.090722034374522,23.021728866442675,27.0,52.15361924162119,38.05259518088089,36.0,33.0,39.0,9.0,16.0,0.0,3.0,13.038404810405298,13.038404810405298,12.5,33.0,23.0,33.24154027718932,232.62201099638014,228.63289352147035,219.58369702689677,205.54804791094466
297,6,681,0,22.722699999999666,6.0,70.25667228100119,7.0710678118654755,14.035668847618199,20.024984394500787,20.09975124224178,27.018512172212592,54.08326913195984,40.049968789001575,37.0,35.0,41.0,11.0,16.0,0.0,5.0,14.142135623730951,15.0,14.5,35.0,25.0,33.24154027718932,234.85314560380067,229.96086623597503,220.10224896624752,205.9732992404598
298,6,682,0,22.75606666666633,5.0,69.18092222571191,7.0710678118654755,14.035668847618199,18.027756377319946,19.235384061671343,27.018512172212592,53.08483775994799,39.05124837953327,36.5,34.0,39.0,9.5,16.5,0.5,3.5,14.035668847618199,15.0,14.5,34.0,24.0,32.14031735997639,235.61409125941512,230.70327262524907,221.73181999884454,205.70367036103173
299,6,683,0,22.789433333333,5.0990195135927845,70.25667228100119,6.0,9.055385138137417,20.09975124224178,20.09975124224178,27.073972741361768,47.16990566028302,38.118237105091836,35.5,32.0,38.0,8.0,12.0,0.0,2.0,14.035668847618199,15.033296378372908,14.5,35.0,23.0,33.37663853655727,232.7767170487633,227.8793540450736,217.83020910791964,203.8872237291979
300,6,684,0,22.822799999999663,3.1622776601683795,73.33484846919642,6.0,9.055385138137417,21.02379604162864,20.09975124224178,28.071337695236398,46.17358552246078,37.12142238654117,35.5,31.0,38.0,6.5,11.5,0.5,1.5,15.132745950421556,15.0,15.0,33.0,23.0,34.132096331752024,231.95258136093247,226.97356674291393,217.1174797200815,202.98768435548004
301,6,685,0,22.85616666666633,4.0,72.3394774656273,7.0710678118654755,12.165525060596439,20.09975124224178,20.223748416156685,27.073972741361768,50.24937810560445,38.118237105091836,36.0,31.0,38.0,7.5,15.5,1.5,0.5,14.142135623730951,15.0,15.0,34.0,25.0,36.124783736376884,236.93247983339052,232.86047324524614,223.89506470666117,208.86598574205422
302,6,686,0,22.889533333332995,4.0,74.33034373659252,6.082762530298219,10.04987562112089,20.09975124224178,20.09975124224178,27.018512172212592,47.095647357266465,37.05401462729781,35.0,31.0,38.0,7.5,12.5,1.5,1.5,14.035668847618199,15.0,14.5,35.0,23.0,35.22782990761707,235.9364321167886,228.96506283710622,217.83020910791964,203.8872237291979
303,6,687,0,22.92289999999966,3.0,75.32595834106593,7.0,10.198039027185569,21.095023109728988,21.213203435596427,27.073972741361768,47.16990566028302,37.05401462729781,35.5,31.0,38.0,7.5,12.5,0.5,0.5,14.035668847618199,14.035668847618199,14.5,35.0,24.0,37.12142238654117,236.02754076590298,231.04977818643323,220.00454540758926,205.9732992404598
304,6,688,0,22.956266666666327,3.0,74.33034373659252,6.082762530298219,10.04987562112089,20.09975124224178,20.09975124224178,27.018512172212592,46.09772228646444,36.05551275463989,34.5,30.0,37.0,6.5,12.5,0.5,0.5,15.033296378372908,15.0,15.0,35.0,26.0,37.12142238654117,234.0363219673391,227.96929617823537,218.01376103356412,203.08865059377396
305,6,689,0,22.989633333333,3.1622776601683795,73.33484846919642,7.0,11.045361017187261,20.09975124224178,20.223748416156685,26.019223662515376,47.095647357266465,36.05551275463989,34.5,30.0,37.0,7.5,13.5,0.5,0.5,15.033296378372908,16.0,15.5,35.0,24.0,37.21558813185679,237.92856070678022,232.94849216082082,222.9910312097776,208.06249061279644
306,6,690,0,23.02299999999966,2.23606797749979,73.33484846919642,7.0,12.041594578792296,20.09975124224178,20.223748416156685,27.073972741361768,48.16637831516918,36.124783736376884,35.0,31.0,38.0,7.5,13.5,0.5,0.5,13.038404810405298,14.0,13.5,35.0,26.0,36.22154055254967,230.8679276123039,225.80079716422614,215.75217264259473,203.71057900855322
307,6,691,0,23.056366666666325,4.0,74.24284477308234,7.0710678118654755,11.045361017187261,21.02379604162864,21.095023109728988,28.0178514522438,50.08991914547278,39.05124837953327,37.0,33.0,39.0,8.0,14.0,1.0,2.0,16.1245154965971,15.0,15.5,35.0,25.0,38.118237105091836,229.0589443789524,224.08257406590099,214.13313615599057,201.0994778710278
308,6,692,0,23.08973333333299,3.1622776601683795,72.44308110509934,7.0,10.04987562112089,20.024984394500787,20.09975124224178,28.0178514522438,48.093658625644196,38.05259518088089,36.5,32.0,40.0,8.0,12.0,1.0,2.0,15.033296378372908,14.0,14.0,37.0,26.0,37.21558813185679,226.1725005388586,222.29934772733816,213.243991709028,200.32473636573192
309,6,693,0,23.123099999999656,4.123105625617661,72.3394774656273,6.0,12.165525060596439,20.09975124224178,21.095023109728988,28.0178514522438,50.15974481593781,38.05259518088089,36.0,32.0,39.0,7.5,14.5,0.5,1.5,14.035668847618199,15.0,14.5,37.0,24.0,37.21558813185679,231.8641843838759,227.96929617823537,219.0091322296858,204.9780476051033
310,6,694,0,23.15646666666632,2.0,71.449282711585,7.0710678118654755,12.041594578792296,19.1049731745428,20.09975124224178,29.017236257093817,50.08991914547278,38.05259518088089,37.0,33.0,41.0,8.0,13.0,1.0,1.0,14.142135623730951,13.0,13.0,36.0,23.0,37.12142238654117,235.2275494069519,231.24878378058554,221.30521909796886,207.39334608419819
311,6,695,0,23.189833333332988,2.0,74.33034373659252,7.0710678118654755,11.045361017187261,20.024984394500787,21.213203435596427,28.0178514522438,48.093658625644196,37.05401462729781,36.0,32.0,39.0,7.5,12.5,0.5,1.5,15.033296378372908,15.0,15.0,35.0,25.0,35.12833614050059,224.39696967650877,218.3231549790356,209.05740838343903,196.02295783912658
312,6,696,0,23.22319999999965,5.0,75.4254598925323,7.0710678118654755,11.180339887498949,20.09975124224178,21.213203435596427,27.018512172212592,50.15974481593781,39.05124837953327,36.5,32.0,40.0,9.0,14.0,1.0,2.0,15.033296378372908,15.0,15.0,36.0,25.0,36.22154055254967,226.27637967759694,220.20445045457188,211.25576915199264,197.2308292331602
313,6,697,0,23.25656666666632,3.0,68.3593446428504,7.0,12.165525060596439,19.1049731745428,19.1049731745428,28.071337695236398,50.15974481593781,38.05259518088089,36.5,33.0,40.0,8.5,13.5,0.5,1.5,15.132745950421556,16.0,15.5,36.0,25.0,38.2099463490856,235.03191272676142,229.96086623597503,219.91134577370036,206.87435800504613
314,6,698,0,23.289933333332986,6.0,71.34423592694787,7.0710678118654755,12.165525060596439,20.024984394500787,20.09975124224178,27.018512172212592,52.15361924162119,40.049968789001575,37.0,33.0,40.0,9.5,15.5,1.5,2.5,16.0312195418814,16.0312195418814,16.0,36.0,26.0,39.20459156782532,226.07299706068392,221.0,211.94574777522666,196.82479518597245
315,6,699,0,23.32329999999965,6.082762530298219,72.3394774656273,7.0,12.041594578792296,19.026297590440446,20.09975124224178,27.073972741361768,52.15361924162119,40.11234224026316,37.0,33.0,40.0,9.5,15.5,1.5,3.5,15.033296378372908,15.0,15.0,36.0,26.0,38.2099463490856,230.15212360523637,225.17770760001977,216.22673285234646,202.09403751719148
316,6,700,0,23.35666666666632,5.0990195135927845,71.34423592694787,7.0,12.041594578792296,19.1049731745428,20.09975124224178,28.0178514522438,52.08646657242167,40.049968789001575,37.5,34.0,41.0,9.5,14.5,0.5,2.5,14.035668847618199,15.0,15.0,36.0,26.0,35.22782990761707,230.8679276123039,226.88322987827902,216.8340379184043,201.89601283829256
317,6,701,0,23.390033333332983,7.0,71.34423592694787,6.082762530298219,12.041594578792296,19.1049731745428,20.09975124224178,27.018512172212592,52.08646657242167,40.049968789001575,36.5,33.0,40.0,9.5,15.5,1.5,3.5,15.033296378372908,15.0,15.0,36.0,25.0,35.12833614050059,231.95258136093247,226.97356674291393,217.0184323968819,202.09403751719148
318,6,702,0,23.42339999999965,6.0,71.25307010929424,7.0710678118654755,11.180339887498949,20.09975124224178,20.09975124224178,27.0,51.088159097779204,40.01249804748511,37.0,33.0,39.0,9.0,15.0,1.0,2.0,14.035668847618199,15.033296378372908,15.0,34.0,24.0,36.124783736376884,230.8679276123039,225.88713996153035,214.93254755853056,200.0024999843752
319,6,703,0,23.456766666666315,7.0,70.25667228100119,6.082762530298219,12.041594578792296,20.024984394500787,20.09975124224178,28.0178514522438,53.08483775994799,41.048751503547585,37.5,34.0,40.0,9.0,16.0,1.0,3.0,14.142135623730951,14.0,14.0,36.0,25.0,36.22154055254967,233.0407689654323,228.1622229905731,217.22108553268947,202.20039564748632
320,6,704,0,23.49013333333298,5.0,69.18092222571191,8.06225774829855,14.035668847618199,20.024984394500787,20.09975124224178,27.018512172212592,54.08326913195984,40.049968789001575,37.5,34.0,39.0,9.5,17.5,1.5,2.5,15.132745950421556,15.0,14.5,35.0,24.0,33.24154027718932,234.13244115243833,228.06358762415363,218.11235636707977,202.09403751719148
321,6,705,0,23.523499999999647,5.0,68.26419266350405,8.06225774829855,12.041594578792296,19.1049731745428,19.1049731745428,27.018512172212592,52.08646657242167,40.049968789001575,37.5,34.0,40.0,10.0,15.0,1.0,2.0,14.035668847618199,15.0,15.0,35.0,25.0,37.21558813185679,234.94041797868667,228.96506283710622,217.329243315298,202.5487595617411
322,6,706,0,23.55686666666632,5.0,69.35416353759881,7.0710678118654755,10.04987562112089,20.024984394500787,19.1049731745428,28.0178514522438,50.08991914547278,40.049968789001575,37.5,33.0,40.0,8.5,13.5,1.5,2.5,16.0312195418814,16.0312195418814,15.5,35.0,25.0,35.12833614050059,233.0407689654323,226.97356674291393,216.22673285234646,201.3181561608391
323,6,707,0,23.59023333333298,7.0710678118654755,69.26037828369117,7.0710678118654755,12.165525060596439,20.09975124224178,21.095023109728988,27.018512172212592,53.08483775994799,41.012193308819754,37.5,33.0,39.0,9.0,17.0,3.0,2.0,15.132745950421556,16.0,16.0,35.0,25.0,35.22782990761707,233.13729860320507,227.27076362788065,217.44194627532195,201.43485299222675
324,6,708,0,23.623599999999644,8.0,68.26419266350405,6.0,11.045361017187261,19.026297590440446,20.09975124224178,28.0178514522438,53.03772242470448,42.01190307520001,38.0,34.0,40.0,9.0,16.0,3.0,3.0,17.029386365926403,17.029386365926403,16.5,35.0,25.0,37.33630940518894,235.9364321167886,229.96086623597503,218.91550881561588,201.9925741209315
325,6,709,0,23.65696666666631,7.0,70.25667228100119,8.0,12.165525060596439,19.026297590440446,19.1049731745428,26.019223662515376,53.08483775994799,41.012193308819754,37.5,33.0,39.0,10.0,17.0,3.0,3.0,16.0312195418814,16.0,15.5,36.0,25.0,33.24154027718932,236.93247983339052,233.0407689654323,223.0874268084152,206.0728026693479
326,6,710,0,23.690333333332976,8.0,69.26037828369117,7.0,13.038404810405298,20.024984394500787,20.024984394500787,26.019223662515376,54.037024344425184,41.012193308819754,37.0,33.0,39.0,10.0,18.0,4.0,3.0,15.033296378372908,16.0,15.5,36.0,25.0,31.25699921617557,237.11811402758752,231.14713928578047,220.20445045457188,205.1828452868319
327,6,711,0,23.72369999999964,9.0,70.178344238091,7.0,12.041594578792296,19.026297590440446,20.223748416156685,27.0,55.00909015790027,43.0,38.5,35.0,40.0,10.5,17.5,3.5,3.5,16.0312195418814,15.0,15.0,35.0,23.0,32.2490309931942,235.61409125941512,230.70327262524907,220.7351353998724,204.79257799051214
328,6,712,0,23.757066666666308,9.0,69.18092222571191,7.0,13.038404810405298,19.026297590440446,20.024984394500787,26.0,55.00909015790027,42.0,37.5,34.0,39.0,10.5,18.5,3.5,3.5,15.033296378372908,15.033296378372908,15.0,35.0,26.0,35.05709628591621,237.47420912595962,231.5534495532295,219.58369702689677,204.6264889988586
329,6,713,0,23.79043333333297,7.0,70.25667228100119,7.0,13.0,21.02379604162864,20.223748416156685,27.0,54.0,41.0,37.5,34.0,40.0,10.0,17.0,2.0,3.0,15.033296378372908,16.0,16.5,34.0,25.0,36.05551275463989,235.35929979501554,229.31419493786248,217.33154395991392,202.35612172603032
330,6,714,0,23.82379999999964,6.0,71.17583859709698,8.0,13.038404810405298,20.09975124224178,20.09975124224178,26.019223662515376,53.0,40.01249804748511,37.0,34.0,39.0,10.5,16.5,1.5,2.5,15.132745950421556,15.0,15.0,34.0,22.0,34.132096331752024,235.68835355188853,229.78685776170926,220.81893034792103,204.79257799051214
331,6,715,0,23.857166666666306,8.0,69.1158447825099,8.0,12.041594578792296,20.09975124224178,21.095023109728988,26.019223662515376,54.037024344425184,42.01190307520001,38.0,35.0,39.0,11.0,17.0,3.0,3.0,16.0312195418814,16.0,15.5,35.0,24.0,36.22154055254967,233.6193485137736,227.56317804073663,215.67104580819372,201.71762441591463
332,6,716,0,23.89053333333297,7.0710678118654755,70.11419257183242,7.0710678118654755,11.180339887498949,20.09975124224178,21.095023109728988,26.019223662515376,51.0098029794274,40.01249804748511,36.5,34.0,38.0,10.0,15.0,1.0,3.0,15.033296378372908,17.0,16.5,35.0,26.0,34.058772731852805,236.47621444872632,230.4886114323222,220.51077071199947,205.54804791094466
333,6,717,0,23.92389999999964,3.0,70.11419257183242,7.0710678118654755,11.180339887498949,19.1049731745428,20.09975124224178,26.0,47.095647357266465,36.013886210738214,34.5,33.0,37.0,9.0,12.0,1.0,3.0,15.033296378372908,16.0,15.5,34.0,26.0,33.06055050963308,231.78006816808042,226.79726629745784,216.8340379184043,201.80436070610565
334,6,718,0,23.957266666666303,3.1622776601683795,70.06425622241343,6.082762530298219,15.033296378372908,21.02379604162864,20.024984394500787,26.019223662515376,50.039984012787215,35.014282800023196,33.5,33.0,36.0,8.5,15.5,1.5,3.5,15.033296378372908,16.0312195418814,15.5,33.0,24.0,30.265491900843113,234.48027635602958,228.49288829195538,218.44907873461037,204.55072720476943
335,6,719,0,23.99063333333297,3.0,72.11102550927978,6.082762530298219,15.132745950421556,21.095023109728988,22.090722034374522,27.0,51.088159097779204,36.013886210738214,34.5,34.0,38.0,9.0,15.0,1.0,3.0,14.035668847618199,15.0,15.0,33.0,26.0,34.058772731852805,229.7063342618135,224.64416306683776,212.76277869965884,197.82062582046393
336,6,720,0,24.023999999999635,6.082762530298219,70.11419257183242,6.0,16.0312195418814,20.024984394500787,21.095023109728988,28.071337695236398,56.142675390472796,40.11234224026316,37.0,36.0,40.0,10.0,18.0,0.0,5.0,15.033296378372908,16.0,16.0,34.0,25.0,31.144823004794873,238.6063704095094,231.62469643800938,219.5130975591206,203.55343278854326
337,6,721,0,24.0573666666663,6.0,70.178344238091,6.082762530298219,14.035668847618199,19.1049731745428,20.09975124224178,27.018512172212592,53.08483775994799,39.05124837953327,36.0,35.0,40.0,10.5,15.5,0.5,4.5,15.033296378372908,15.033296378372908,15.0,35.0,26.0,33.24154027718932,235.76683396949622,228.79029699705362,218.82641522448793,203.71057900855322
338,6,722,0,24.090733333332967,6.324555320336759,70.25667228100119,6.0,13.038404810405298,20.024984394500787,20.024984394500787,26.0,51.088159097779204,38.05259518088089,35.0,35.0,41.0,12.0,13.0,2.0,6.0,14.035668847618199,15.0,14.5,34.0,25.0,34.23448553724738,237.68256141332708,232.6972281742952,220.7351353998724,205.70367036103173
339,6,723,0,24.12409999999964,5.385164807134504,75.16648189186454,5.0,13.038404810405298,22.02271554554524,22.02271554554524,25.019992006393608,48.16637831516918,35.12833614050059,32.5,33.0,38.0,10.5,12.5,1.5,5.5,13.038404810405298,13.0,13.0,33.0,23.0,35.22782990761707,232.55106965997814,226.56566377101365,215.59452683219953,200.63897926375125
340,6,724,0,24.1574666666663,1.0,77.1621668954417,5.0990195135927845,12.165525060596439,22.090722034374522,21.095023109728988,25.019992006393608,43.04648650006177,31.0,30.5,31.0,36.0,8.5,9.5,3.5,3.5,14.035668847618199,15.0,15.0,34.0,25.0,36.124783736376884,234.7701003109212,229.78685776170926,219.73848092675985,205.87860500790265
341,6,725,0,24.190833333332964,1.4142135623730951,76.16429609731846,6.082762530298219,13.152946437965905,21.02379604162864,20.024984394500787,25.019992006393608,45.09988913511872,32.01562118716424,31.5,31.0,36.0,8.5,11.5,3.5,3.5,14.142135623730951,14.0,14.0,34.0,25.0,34.132096331752024,238.83885781003056,233.8567937862828,222.89908030317218,208.06249061279644
342,6,726,0,24.22419999999963,1.0,74.10802925459562,5.0,10.04987562112089,20.024984394500787,21.095023109728988,27.0,43.01162633521314,33.0,32.5,32.0,36.0,7.0,9.0,3.0,2.0,15.033296378372908,15.0,15.0,34.0,25.0,35.12833614050059,238.01890681204299,232.04525420701884,223.0874268084152,206.0728026693479
343,6,727,0,24.257566666666296,2.0,70.178344238091,5.0,11.045361017187261,20.0,19.1049731745428,28.0178514522438,46.04345773288535,35.014282800023196,34.0,32.0,37.0,6.5,11.5,1.5,2.5,16.0312195418814,16.0,15.5,34.0,24.0,35.22782990761707,234.85314560380067,227.8793540450736,217.74526401279087,201.80436070610565
344,6,728,0,24.29093333333296,2.0,72.24956747275377,6.082762530298219,10.198039027185569,20.024984394500787,20.09975124224178,27.0,45.09988913511872,35.014282800023196,34.0,32.0,38.0,8.0,10.0,2.0,2.0,15.033296378372908,16.0,15.5,35.0,26.0,34.132096331752024,234.7701003109212,230.95670589961227,221.90313201935658,205.0780339285512
345,6,729,0,24.324299999999628,2.0,72.24956747275377,6.082762530298219,10.04987562112089,21.095023109728988,21.095023109728988,28.0,46.04345773288535,36.013886210738214,35.0,33.0,39.0,8.0,10.0,2.0,3.0,15.132745950421556,15.0,15.0,34.0,23.0,35.22782990761707,232.86047324524614,225.97787502319778,216.12265036316762,202.09403751719148
346,6,730,0,24.357666666666294,3.0,74.16872656315464,6.082762530298219,11.045361017187261,21.095023109728988,21.095023109728988,27.018512172212592,47.095647357266465,36.05551275463989,34.5,33.0,38.0,8.5,11.5,1.5,2.5,14.035668847618199,14.0,13.5,34.0,22.0,37.21558813185679,233.69424468736923,226.79726629745784,216.8340379184043,200.80836635957178
347,6,731,0,24.39103333333296,3.0,72.24956747275377,6.0,11.180339887498949,19.1049731745428,20.09975124224178,27.018512172212592,47.095647357266465,36.013886210738214,34.5,33.0,39.0,9.0,11.0,2.0,3.0,15.132745950421556,15.0,15.0,35.0,23.0,34.23448553724738,237.68256141332708,231.70023737579555,221.81523843054606,205.87860500790265
348,6,732,0,24.424399999999626,5.0,68.26419266350405,6.082762530298219,10.198039027185569,19.026297590440446,20.09975124224178,28.0,49.09175083453431,39.01281840626232,36.5,34.0,40.0,9.0,12.0,0.0,3.0,16.0312195418814,16.0,16.0,34.0,24.0,33.24154027718932,235.9364321167886,228.06358762415363,217.1174797200815,203.3051893090779
349,6,733,0,24.45776666666629,5.0990195135927845,69.26037828369117,6.0,10.04987562112089,20.09975124224178,20.09975124224178,28.071337695236398,49.16299421312742,39.11521443121589,36.5,34.0,40.0,9.0,12.0,0.0,3.0,13.038404810405298,12.0,12.0,34.0,21.0,33.13608305156178,237.0232056149777,231.95258136093247,221.9954954497951,205.9732992404598
350,6,734,0,24.49113333333296,4.123105625617661,70.34912934784623,6.082762530298219,9.055385138137417,18.110770276274835,19.235384061671343,30.01666203960727,49.040799340956916,40.01249804748511,38.0,34.0,41.0,7.5,11.5,0.5,1.5,16.0312195418814,16.0,16.5,35.0,25.0,36.124783736376884,235.03191272676142,230.15212360523637,220.20445045457188,205.29247428973133
351,6,735,0,24.524499999999623,2.23606797749979,73.24616030891995,6.082762530298219,11.180339887498949,18.110770276274835,19.235384061671343,31.016124838541646,50.08991914547278,39.01281840626232,38.0,35.0,41.0,7.0,12.0,1.0,1.0,15.033296378372908,15.0,15.0,33.0,23.0,35.22782990761707,228.96506283710622,224.18296099391677,214.34784813475503,200.44201156444225
352,6,736,0,24.55786666666629,3.0,74.33034373659252,7.0710678118654755,12.041594578792296,20.024984394500787,20.09975124224178,29.017236257093817,51.088159097779204,39.05124837953327,37.5,33.0,40.0,7.5,14.5,0.5,1.5,16.0312195418814,16.0,16.0,35.0,26.0,38.118237105091836,228.1622229905731,223.29352879114074,212.3605424743495,199.44924166313595
353,6,737,0,24.591233333332955,2.0,66.27216610312357,7.0710678118654755,10.04987562112089,17.029386365926403,17.11724276862369,30.01666203960727,49.09175083453431,39.05124837953327,38.0,35.0,41.0,8.0,11.0,1.0,2.0,15.033296378372908,15.0,14.5,34.0,25.0,33.06055050963308,233.94443784796422,228.06358762415363,219.20994502987313,204.1886382735337
354,6,738,0,24.62459999999962,4.0,67.36467917239716,8.06225774829855,13.038404810405298,19.1049731745428,20.223748416156685,30.01666203960727,55.08175741568164,42.04759208325728,40.0,36.0,43.0,9.5,15.5,0.5,1.5,15.033296378372908,15.0,15.0,35.0,25.0,39.11521443121589,235.8495283014151,230.8679276123039,219.91134577370036,204.9780476051033
355,6,739,0,24.657966666666287,3.0,69.46221994724903,7.0,11.045361017187261,19.1049731745428,20.09975124224178,31.016124838541646,52.03844732503075,41.012193308819754,39.5,35.0,43.0,8.0,13.0,0.0,1.0,15.033296378372908,15.0,15.0,35.0,26.0,37.12142238654117,237.2172000509238,231.24878378058554,222.40953216982405,207.76188293332345
356,6,740,0,24.69133333333296,2.0,71.34423592694787,6.0,9.055385138137417,19.1049731745428,19.1049731745428,32.01562118716424,49.040799340956916,40.01249804748511,39.0,34.0,41.0,5.5,11.5,0.5,0.5,15.132745950421556,16.0,16.0,36.0,27.0,35.22782990761707,235.76683396949622,231.8641843838759,221.9954954497951,208.27385817716058
357,6,741,0,24.72469999999962,2.0,71.25307010929424,6.0,9.055385138137417,19.1049731745428,19.1049731745428,32.01562118716424,49.040799340956916,40.01249804748511,39.0,35.0,41.0,6.0,11.0,1.0,1.0,14.142135623730951,15.0,15.0,35.0,25.0,36.345563690772494,233.94443784796422,229.2596780945136,219.4288039433292,204.65825172711703
358,6,742,0,24.758066666666284,2.0,72.24956747275377,7.0710678118654755,9.055385138137417,20.024984394500787,19.1049731745428,30.066592756745816,48.16637831516918,39.11521443121589,38.0,36.0,42.0,9.0,9.0,3.0,3.0,15.132745950421556,15.033296378372908,15.0,36.0,26.0,35.12833614050059,236.02754076590298,230.15212360523637,221.30521909796886,206.40009689920205
359,6,743,0,24.79143333333295,4.0,70.25667228100119,7.0,10.04987562112089,20.024984394500787,20.09975124224178,28.0178514522438,49.040799340956916,39.01281840626232,37.0,34.0,40.0,9.0,12.0,1.0,2.0,14.035668847618199,15.0,15.0,35.0,23.0,33.13608305156178,234.7701003109212,229.96086623597503,219.91134577370036,203.98284241572867
360,6,744,0,24.824799999999616,6.0,67.26812023536856,7.0,12.041594578792296,19.1049731745428,20.09975124224178,29.068883707497267,54.08326913195984,42.04759208325728,39.0,36.0,42.0,10.0,15.0,1.0,3.0,15.033296378372908,15.0,14.5,35.0,25.0,34.058772731852805,228.70942263055102,222.81157959136684,212.8497122384712,199.00753754569197
361,6,745,0,24.85816666666628,6.082762530298219,70.25667228100119,7.0710678118654755,13.152946437965905,19.1049731745428,20.09975124224178,27.018512172212592,53.08483775994799,40.01249804748511,37.0,35.0,41.0,11.0,15.0,1.0,3.0,16.1245154965971,17.0,16.5,36.0,26.0,35.05709628591621,230.7834482799839,223.89506470666117,213.75921032788273,199.81241202688085
362,6,746,0,24.891533333332948,5.0,70.25667228100119,8.0,13.152946437965905,20.223748416156685,21.095023109728988,28.0,54.037024344425184,41.0,38.5,36.0,42.0,11.0,15.0,0.0,3.0,14.035668847618199,14.0,14.0,36.0,25.0,33.13608305156178,234.61670869739862,228.70942263055102,218.74185699129464,204.79257799051214
363,6,747,0,24.924899999999614,7.0,66.18912297349165,6.0,13.152946437965905,19.1049731745428,19.235384061671343,29.068883707497267,55.14526271584895,42.04759208325728,38.5,36.0,41.0,9.5,16.5,1.5,3.5,16.0,17.0,16.5,36.0,25.0,33.13608305156178,233.77339455121918,227.79376637651873,216.74870241826133,200.7211996775627
364,6,748,0,24.95826666666628,8.06225774829855,67.1863081289633,7.0710678118654755,13.038404810405298,20.09975124224178,20.024984394500787,27.073972741361768,55.08175741568164,42.04759208325728,38.0,35.0,40.0,10.5,17.5,2.5,3.5,15.033296378372908,16.0,15.5,37.0,26.0,34.132096331752024,232.7767170487633,226.88322987827902,215.83790213954546,200.90047287151916
365,6,749,0,24.991633333332945,7.0710678118654755,68.18357573492314,7.0,12.041594578792296,20.09975124224178,21.095023109728988,28.071337695236398,54.147945482723536,42.1070065428546,38.5,36.0,41.0,10.5,15.5,1.5,3.5,14.035668847618199,15.0,14.5,35.0,25.0,33.06055050963308,231.62469643800938,225.64130827488125,214.67417171145672,199.81241202688085
366,6,750,0,25.02499999999961,6.0,66.18912297349165,7.0,11.180339887498949,18.110770276274835,19.1049731745428,28.0178514522438,52.08646657242167,41.012193308819754,38.0,35.0,40.0,9.5,14.5,1.5,2.5,14.035668847618199,16.0,15.5,34.0,25.0,35.05709628591621,227.71253808255707,220.81893034792103,210.77001684300356,195.7396229688818
