,video_id,frame_seq,gap,time_seconds,m1,m3,m4,m5,m6,m7,m8,m9,m10,m11,m12,m13,m14,m15,m16,m17,e1,e2,e3,b1,b2,b3,m_0_16,m_1_15,m_2_14,m_3_13
0,47,311,1,10.377033333333287,7.0710678118654755,39.01281840626232,4.0,6.0,10.0,12.0,11.045361017187261,28.071337695236398,22.090722034374522,18.5,17.0,16.0,5.5,11.5,4.5,1.5,2.0,2.0,2.0,19.0,19.0,17.029386365926403,103.01941564578979,104.04326023342406,103.1746092796091,98.41239759298622
1,47,312,0,10.410399999999957,6.082762530298219,40.01249804748511,5.0,7.0,10.0,11.045361017187261,11.045361017187261,29.068883707497267,22.090722034374522,19.0,17.0,16.0,5.5,12.5,5.5,0.5,2.23606797749979,2.23606797749979,2.0,20.0,18.0,17.029386365926403,104.00480758118829,105.04284840006957,104.17293314484334,100.40418317978589
2,47,313,0,10.44376666666662,5.0,38.01315561749642,5.0,7.0,10.04987562112089,12.041594578792296,11.045361017187261,28.0178514522438,21.02379604162864,18.5,17.0,16.0,5.5,11.5,4.5,1.5,1.0,2.0,1.5,21.0,20.0,19.026297590440446,105.00476179678711,106.04244433244644,105.23307464861035,99.50376877284599
3,47,314,0,10.477133333333288,6.082762530298219,38.05259518088089,5.0,7.0,11.0,11.045361017187261,11.045361017187261,29.068883707497267,22.090722034374522,19.0,18.0,16.0,6.0,12.0,5.0,1.0,1.4142135623730951,2.0,1.5,20.0,19.0,19.026297590440446,103.00485425454472,104.0768946500615,104.30723848324239,98.6154146165801
4,47,315,0,10.510499999999952,6.082762530298219,38.01315561749642,5.0,8.0,10.0,12.041594578792296,10.04987562112089,29.068883707497267,21.095023109728988,18.0,16.0,15.0,5.5,13.5,5.5,0.5,1.0,2.0,2.0,20.0,20.0,19.026297590440446,104.00480758118829,105.04284840006957,105.23307464861035,99.40824915468535
5,47,316,0,10.543866666666618,7.0,38.05259518088089,4.0,8.0,10.04987562112089,12.041594578792296,12.041594578792296,31.016124838541646,23.021728866442675,19.5,18.0,16.0,5.0,14.0,6.0,2.0,2.0,2.0,2.0,20.0,19.0,20.024984394500787,104.0,105.11898020814318,104.38869670610895,98.73196037757987
6,47,317,0,10.577233333333284,5.0,39.05124837953327,5.0,8.0,10.0,11.045361017187261,11.045361017187261,29.017236257093817,21.02379604162864,18.5,17.0,15.0,5.0,13.0,5.0,1.0,2.0,1.0,1.5,20.0,19.0,19.026297590440446,107.0,108.11567878897121,107.37783756436893,101.71037311896953
7,47,318,0,10.61059999999995,5.0,39.05124837953327,5.0,8.0,11.045361017187261,12.041594578792296,10.04987562112089,28.0178514522438,20.024984394500787,17.5,17.0,15.0,6.0,12.0,4.0,2.0,2.0,2.0,2.0,20.0,18.0,18.110770276274835,106.00471687618433,107.07474025184464,105.30432089900205,99.60923651951158
8,47,319,0,10.643966666666616,5.0,39.05124837953327,5.0,8.0,10.0,12.041594578792296,10.04987562112089,28.0178514522438,20.024984394500787,17.5,17.0,15.0,6.0,12.0,5.0,1.0,2.23606797749979,1.0,1.5,20.0,18.0,18.027756377319946,107.0,107.07474025184464,106.38138934982942,99.72462083156798
9,47,320,0,10.677333333333282,6.082762530298219,39.05124837953327,5.0,8.0,10.04987562112089,12.041594578792296,10.04987562112089,29.068883707497267,21.095023109728988,18.0,16.0,14.0,5.0,14.0,6.0,1.0,2.23606797749979,2.0,2.0,20.0,20.0,19.0,106.0,106.1178590059185,105.38500842150178,100.84145972763385
10,47,321,0,10.710699999999948,6.082762530298219,39.01281840626232,4.0,7.0710678118654755,10.0,11.045361017187261,10.04987562112089,27.018512172212592,20.09975124224178,17.0,15.0,14.0,4.5,12.5,5.5,0.5,2.0,2.0,2.0,16.0,16.0,15.0,100.0199980003999,101.04454463255303,101.17806086301516,96.42095207992918
11,47,322,0,10.744066666666614,4.0,38.05259518088089,4.123105625617661,7.0,10.0,12.165525060596439,11.045361017187261,26.076809620810597,19.1049731745428,17.0,17.0,15.0,5.0,10.0,3.0,2.0,2.0,2.0,2.0,19.0,18.0,18.027756377319946,104.01922899156675,103.04368005850722,102.23991392797629,97.51410154434076
12,47,323,0,10.77743333333328,3.0,36.124783736376884,3.0,8.0,10.0,11.045361017187261,11.045361017187261,25.019992006393608,17.029386365926403,15.5,17.0,14.0,4.5,9.5,1.5,1.5,2.0,2.0,1.5,21.0,20.0,18.027756377319946,105.00476179678711,106.16967551989597,105.57461816175325,99.14131328563285
13,47,324,0,10.810799999999944,3.0,37.12142238654117,4.0,7.0,10.0,11.045361017187261,10.04987562112089,24.020824298928627,17.029386365926403,15.5,16.0,13.0,4.5,9.5,1.5,1.5,2.0,2.0,2.0,21.0,20.0,18.027756377319946,106.00471687618433,107.07474025184464,106.38138934982942,100.9752444909147
14,47,325,0,10.844166666666611,4.0,36.124783736376884,3.0,7.0,9.0,10.04987562112089,11.045361017187261,25.019992006393608,18.027756377319946,16.0,17.0,14.0,4.5,9.5,2.5,1.5,2.0,2.0,2.0,19.0,19.0,21.02379604162864,106.01886624558857,106.23088063270491,104.80935072788114,98.15294188153507
15,47,326,0,10.877533333333275,3.0,36.124783736376884,4.0,7.0,10.04987562112089,11.045361017187261,11.0,25.0,18.0,16.5,17.0,14.0,4.5,9.5,1.5,1.5,3.0,1.0,1.5,19.0,19.0,21.02379604162864,108.0,108.16653826391968,105.57461816175325,100.12991560967181
16,47,327,0,10.910899999999945,2.0,37.05401462729781,4.123105625617661,8.0,10.04987562112089,12.165525060596439,11.0,25.019992006393608,17.029386365926403,16.0,16.0,14.0,4.0,10.0,2.0,1.0,2.0,2.0,2.0,19.0,17.0,17.029386365926403,103.00485425454472,103.04368005850722,102.23991392797629,96.62815324738438
17,47,328,0,10.944266666666609,2.0,36.124783736376884,5.0,8.06225774829855,10.0,11.045361017187261,10.04987562112089,25.079872407968907,17.029386365926403,16.0,17.0,14.0,5.5,9.5,0.5,1.5,2.0,2.0,2.0,20.0,19.0,19.026297590440446,104.04326023342406,105.04284840006957,104.30723848324239,98.85848471426213
18,47,329,0,10.977633333333277,2.0,36.05551275463989,5.0,8.0,10.0,12.041594578792296,11.045361017187261,26.019223662515376,18.027756377319946,17.0,17.0,15.0,5.0,10.0,1.0,1.0,2.0,1.0,1.0,19.0,18.0,19.026297590440446,106.04244433244644,106.07544484940895,104.38869670610895,98.99494936611666
19,47,330,0,11.01099999999994,2.0,37.05401462729781,4.0,9.0,10.04987562112089,11.045361017187261,11.045361017187261,26.019223662515376,17.029386365926403,16.0,16.0,14.0,4.0,11.0,2.0,1.0,3.0,1.0,1.5,19.0,18.0,19.026297590440446,104.01922899156675,105.07616285342742,102.39628899525607,97.86725703727473
20,47,331,0,11.044366666666606,4.0,37.05401462729781,4.0,7.0,9.0,11.045361017187261,10.04987562112089,25.019992006393608,18.027756377319946,16.0,16.0,14.0,5.0,10.0,3.0,1.0,2.23606797749979,1.0,1.5,18.0,18.0,18.027756377319946,104.01922899156675,104.01922899156675,102.17631819555841,97.51410154434076
21,47,332,0,11.077733333333272,6.0,37.05401462729781,5.0,7.0,9.0,11.045361017187261,9.055385138137417,27.018512172212592,20.024984394500787,17.0,16.0,14.0,6.0,12.0,4.0,1.0,2.0,2.0,2.0,19.0,19.0,18.0,103.01941564578979,103.04368005850722,102.23991392797629,97.51410154434076
22,47,333,0,11.111099999999938,7.0710678118654755,38.05259518088089,4.0,7.0,10.0,11.045361017187261,10.04987562112089,28.071337695236398,21.095023109728988,17.5,16.0,14.0,5.0,13.0,6.0,1.0,2.0,2.0,2.0,19.0,19.0,19.026297590440446,103.01941564578979,104.01922899156675,103.1746092796091,97.41663102366043
23,47,334,0,11.144466666666604,7.0710678118654755,38.05259518088089,4.0,7.0,10.0,11.045361017187261,10.04987562112089,28.071337695236398,21.095023109728988,17.5,16.0,14.0,5.0,13.0,6.0,1.0,2.0,1.0,1.5,19.0,19.0,19.026297590440446,105.00476179678711,104.04326023342406,103.1746092796091,97.41663102366043
24,47,335,0,11.17783333333327,6.0,39.05124837953327,4.123105625617661,8.0,10.0,11.180339887498949,10.04987562112089,28.071337695236398,20.09975124224178,17.0,16.0,14.0,5.0,13.0,5.0,1.0,2.0,1.0,1.5,18.0,18.0,18.0,105.0,106.07544484940895,104.23531071570709,98.6154146165801
25,47,336,0,11.211199999999936,6.0,38.118237105091836,4.0,8.0,11.045361017187261,11.180339887498949,10.04987562112089,28.0178514522438,20.024984394500787,17.0,16.0,13.0,4.5,13.5,5.5,1.5,1.0,2.0,2.0,18.0,18.0,19.0,103.00485425454472,104.04326023342406,103.23759005323593,96.51942809610924
26,47,337,0,11.244566666666602,6.082762530298219,39.05124837953327,4.0,7.0,10.04987562112089,12.041594578792296,9.055385138137417,26.076809620810597,19.1049731745428,16.0,15.0,13.0,5.0,12.0,5.0,2.0,2.0,2.0,2.0,19.0,19.0,19.0,102.00490184299969,104.04326023342406,102.23991392797629,97.62171889492625
27,47,338,0,11.277933333333268,1.0,37.12142238654117,4.0,9.0,11.045361017187261,11.180339887498949,11.045361017187261,25.019992006393608,16.0312195418814,15.5,16.0,13.0,3.5,10.5,1.5,0.5,2.0,2.0,2.0,19.0,19.0,19.0,104.0,105.07616285342742,103.31021246711285,96.62815324738438
28,47,339,0,11.311299999999934,1.0,38.118237105091836,5.0,9.0,11.045361017187261,11.180339887498949,10.04987562112089,25.019992006393608,16.0312195418814,15.5,16.0,13.0,4.5,10.5,1.5,1.5,2.23606797749979,2.0,2.0,19.0,19.0,20.0,104.0,105.11898020814318,103.39245620450265,96.74709297958259
29,47,340,0,11.3446666666666,2.23606797749979,35.12833614050059,4.123105625617661,8.06225774829855,10.04987562112089,11.045361017187261,11.0,25.019992006393608,17.0,16.0,17.0,14.0,4.5,9.5,1.5,1.5,2.23606797749979,2.0,2.0,19.0,19.0,19.0,104.00480758118829,104.04326023342406,102.39628899525607,96.62815324738438
30,47,341,0,11.378033333333263,1.0,36.124783736376884,5.0990195135927845,8.0,10.04987562112089,12.165525060596439,11.0,25.019992006393608,17.029386365926403,16.5,17.0,14.0,4.5,9.5,1.5,1.5,1.0,2.0,2.0,17.0,18.0,20.0,105.00476179678711,105.11898020814318,103.39245620450265,96.74709297958259
31,47,342,0,11.411399999999931,1.0,36.124783736376884,5.0990195135927845,8.0,10.04987562112089,10.04987562112089,11.0,25.019992006393608,17.029386365926403,16.5,17.0,14.0,4.5,9.5,1.5,0.5,2.0,1.0,1.0,18.0,18.0,19.0,102.0,103.07764064044152,100.31948963187563,94.64142856064674
32,47,343,0,11.444766666666595,2.0,37.12142238654117,4.0,8.0,10.04987562112089,11.045361017187261,11.0,25.0,17.0,16.0,17.0,14.0,4.5,9.5,1.5,1.5,2.0,2.0,1.5,18.0,18.0,19.0,102.00490184299969,103.04368005850722,101.24228365658294,95.524865872714
33,47,344,0,11.478133333333265,2.0,37.12142238654117,4.0,8.0,10.04987562112089,11.045361017187261,11.0,25.0,17.0,16.0,17.0,14.0,4.5,9.5,1.5,1.5,2.0,2.0,1.5,18.0,18.0,19.0,102.00490184299969,103.04368005850722,101.24228365658294,95.524865872714
34,47,345,0,11.511499999999929,1.0,35.05709628591621,5.0,9.0,10.04987562112089,11.045361017187261,11.0,26.0,17.0,16.5,17.0,15.0,5.0,10.0,1.0,1.0,2.0,2.0,2.0,18.0,18.0,19.026297590440446,104.00480758118829,104.0768946500615,102.3132444994293,96.74709297958259
35,47,346,0,11.544866666666596,2.23606797749979,35.12833614050059,5.0,9.0,10.04987562112089,12.165525060596439,11.0,27.018512172212592,18.027756377319946,17.0,18.0,15.0,5.5,10.5,1.5,1.5,2.0,2.0,2.0,18.0,18.0,21.0,106.01886624558857,106.04244433244644,103.23759005323593,96.62815324738438
36,47,347,0,11.57823333333326,2.0,35.05709628591621,5.0,8.06225774829855,10.04987562112089,10.04987562112089,11.0,26.019223662515376,18.0,17.0,17.0,15.0,5.0,10.0,2.0,1.0,2.0,2.0,2.0,17.0,17.0,21.02379604162864,105.00476179678711,105.04284840006957,101.24228365658294,95.524865872714
37,47,348,0,11.611599999999926,2.0,34.132096331752024,5.0990195135927845,9.0,10.04987562112089,11.045361017187261,11.0,27.018512172212592,18.027756377319946,17.0,18.0,15.0,5.5,10.5,1.5,1.5,2.23606797749979,2.0,2.0,19.0,19.0,20.024984394500787,105.00476179678711,105.07616285342742,103.31021246711285,97.73944955850733
38,47,349,0,11.644966666666592,2.23606797749979,34.132096331752024,5.0,9.0,10.04987562112089,11.180339887498949,11.0,27.018512172212592,18.027756377319946,17.0,18.0,15.0,5.5,10.5,1.5,1.5,2.0,2.0,2.0,18.0,18.0,20.024984394500787,104.01922899156675,105.07616285342742,104.30723848324239,97.62171889492625
39,47,350,0,11.678333333333258,3.1622776601683795,35.05709628591621,5.0,7.0,10.04987562112089,11.045361017187261,11.0,26.019223662515376,19.026297590440446,17.5,17.0,15.0,5.0,10.0,3.0,1.0,2.0,2.0,2.0,20.0,19.0,20.0,102.0196059588548,104.04326023342406,102.23991392797629,96.51942809610924
40,47,351,0,11.711699999999924,6.082762530298219,36.05551275463989,4.0,7.0,10.0,12.041594578792296,11.045361017187261,28.071337695236398,21.095023109728988,18.0,18.0,16.0,6.0,11.0,4.0,2.0,2.0,2.0,2.5,19.0,19.0,21.02379604162864,105.00476179678711,105.07616285342742,103.31021246711285,96.62815324738438
41,47,352,0,11.74506666666659,5.0990195135927845,36.124783736376884,4.0,8.0,10.04987562112089,11.045361017187261,11.045361017187261,28.071337695236398,20.09975124224178,17.5,18.0,15.0,5.5,11.5,3.5,2.5,2.0,1.4142135623730951,1.5,18.0,18.0,21.02379604162864,106.01886624558857,106.04244433244644,104.17293314484334,98.50888284819801
42,47,353,0,11.778433333333256,7.0710678118654755,37.12142238654117,4.0,8.0,10.0,11.180339887498949,10.04987562112089,29.068883707497267,21.095023109728988,17.5,17.0,14.0,5.5,13.5,5.5,1.5,3.0,2.0,2.0,19.0,19.0,21.02379604162864,106.00471687618433,107.11675872616759,105.47511554864494,100.84145972763385
43,47,354,0,11.811799999999922,7.0710678118654755,37.12142238654117,4.0,8.0,10.0,11.180339887498949,10.04987562112089,29.068883707497267,21.095023109728988,17.5,17.0,14.0,5.5,13.5,5.5,1.5,3.0,2.0,2.0,19.0,19.0,21.02379604162864,106.00471687618433,107.11675872616759,105.47511554864494,100.84145972763385
44,47,355,0,11.845166666666588,4.0,38.2099463490856,3.0,7.0,11.045361017187261,12.165525060596439,10.04987562112089,24.020824298928627,17.029386365926403,15.0,17.0,13.0,5.0,9.0,2.0,3.0,2.0,2.0,2.0,18.0,19.0,20.09975124224178,107.0,106.16967551989597,105.57461816175325,99.98499887483122
45,47,356,0,11.878533333333252,4.123105625617661,39.20459156782532,3.0,8.0,11.045361017187261,12.165525060596439,10.0,25.019992006393608,17.029386365926403,15.0,17.0,13.0,5.0,10.0,2.0,2.0,2.0,1.0,1.5,18.0,20.0,21.02379604162864,106.0,107.16809226630845,104.58011283222064,98.99494936611666
46,47,357,0,11.91189999999992,2.0,38.3275357934736,4.0,8.0,12.041594578792296,13.152946437965905,10.0,24.0,16.0,15.0,18.0,13.0,5.5,8.5,0.5,2.5,2.0,3.0,3.0,18.0,19.0,21.02379604162864,105.01904589168576,105.23307464861035,102.70345661174214,96.17692030835673
47,47,358,0,11.945266666666583,1.0,35.22782990761707,4.0,8.0,10.04987562112089,11.045361017187261,11.045361017187261,24.020824298928627,16.0312195418814,15.5,17.0,13.0,4.0,9.0,1.0,1.0,2.0,1.0,1.5,17.0,18.0,19.0,106.0,105.11898020814318,103.58571330062848,98.99494936611666
48,47,359,0,11.978633333333253,2.0,35.22782990761707,4.0,9.0,10.04987562112089,11.180339887498949,10.04987562112089,25.019992006393608,16.0312195418814,15.0,17.0,13.0,5.0,10.0,1.0,2.0,3.0,2.0,2.0,18.0,19.0,19.026297590440446,106.00471687618433,105.11898020814318,103.4842983258813,98.85848471426213
49,47,360,0,12.011999999999915,0.0,37.21558813185679,4.0,7.0,10.04987562112089,11.180339887498949,11.045361017187261,22.02271554554524,15.033296378372908,15.0,16.0,12.0,3.0,8.0,1.0,0.0,3.0,2.0,2.0,18.0,19.0,21.02379604162864,105.0,106.16967551989597,105.57461816175325,99.98499887483122
50,47,361,0,12.045366666666585,2.0,38.118237105091836,3.0,6.0,10.04987562112089,11.180339887498949,11.045361017187261,22.02271554554524,16.0312195418814,15.0,15.0,12.0,2.5,8.5,2.5,0.5,2.0,2.0,2.0,18.0,19.0,22.02271554554524,107.00467279516349,107.16809226630845,105.47511554864494,99.98499887483122
51,47,362,0,12.078733333333249,2.0,38.2099463490856,4.0,7.0,10.04987562112089,12.165525060596439,10.04987562112089,23.021728866442675,16.0312195418814,15.0,15.0,11.0,3.0,10.0,3.0,0.0,3.0,2.23606797749979,2.0,18.0,20.0,22.0,103.00485425454472,104.17293314484334,103.58571330062848,98.99494936611666
52,47,363,0,12.112099999999916,3.0,38.2099463490856,4.0,7.0,10.04987562112089,11.045361017187261,10.04987562112089,24.020824298928627,17.029386365926403,15.5,15.0,11.0,3.0,11.0,4.0,0.0,2.0,2.0,2.0,18.0,19.0,21.0,106.0,107.16809226630845,104.47966309287182,99.84988733093293
53,47,364,0,12.14546666666658,2.0,39.20459156782532,4.0,7.0,10.04987562112089,11.180339887498949,10.04987562112089,23.021728866442675,16.0312195418814,15.0,15.0,11.0,3.0,10.0,3.0,0.0,3.0,3.1622776601683795,3.0,18.0,19.0,22.0,106.00471687618433,107.07474025184464,105.38500842150178,98.73196037757987
54,47,365,0,12.178833333333246,4.0,39.20459156782532,4.0,7.0,11.0,11.180339887498949,10.198039027185569,25.079872407968907,18.110770276274835,16.0,15.0,11.0,3.0,12.0,5.0,1.0,2.0,2.0,2.0,18.0,19.0,20.024984394500787,106.00471687618433,105.07616285342742,104.30723848324239,98.6154146165801
55,47,366,0,12.212199999999912,3.1622776601683795,39.11521443121589,4.0,8.0,11.045361017187261,11.045361017187261,9.055385138137417,24.08318915758459,16.1245154965971,14.5,14.0,11.0,3.5,11.5,3.5,0.5,3.1622776601683795,3.1622776601683795,3.0,18.0,19.0,21.0,108.00462953040486,107.0420478129973,105.23307464861035,100.60318086422517
56,47,367,0,12.245566666666578,3.1622776601683795,38.118237105091836,4.0,7.0,10.04987562112089,11.045361017187261,10.04987562112089,24.08318915758459,17.11724276862369,15.5,15.0,12.0,3.5,10.5,3.5,0.5,4.0,4.123105625617661,4.0,18.0,19.0,22.0,106.01886624558857,107.0420478129973,105.23307464861035,99.60923651951158
57,47,368,0,12.278933333333244,1.0,36.124783736376884,4.0,7.0710678118654755,10.04987562112089,10.04987562112089,12.0,24.020824298928627,17.0,16.5,16.0,13.0,2.5,9.5,2.5,0.5,4.123105625617661,4.123105625617661,4.5,18.0,19.0,21.0,104.00480758118829,103.04368005850722,101.24228365658294,96.51942809610924
58,47,369,0,12.31229999999991,1.0,36.124783736376884,4.0,7.0710678118654755,10.0,11.045361017187261,12.0,24.020824298928627,17.0,16.5,16.0,13.0,2.5,9.5,1.5,0.5,4.0,4.0,4.0,18.0,19.0,21.02379604162864,106.01886624558857,106.01886624558857,104.23531071570709,99.50376877284599
59,47,370,0,12.345666666666576,1.0,35.12833614050059,3.0,8.0,10.04987562112089,10.04987562112089,12.041594578792296,24.020824298928627,16.0312195418814,15.5,16.0,13.0,2.5,9.5,1.5,0.5,5.0990195135927845,4.123105625617661,4.5,18.0,19.0,23.021728866442675,107.00467279516349,107.07474025184464,105.30432089900205,99.72462083156798
60,47,371,0,12.379033333333242,2.0,35.12833614050059,3.0,7.0,9.055385138137417,11.045361017187261,12.165525060596439,24.08318915758459,17.11724276862369,16.0,16.0,13.0,2.5,9.5,2.5,0.5,4.0,4.0,4.5,18.0,19.0,21.02379604162864,107.01868995647442,106.01886624558857,104.23531071570709,98.41239759298622
61,47,372,0,12.412399999999908,1.0,36.124783736376884,4.0,7.0710678118654755,9.055385138137417,10.198039027185569,12.165525060596439,24.186773244895647,17.11724276862369,16.5,16.0,13.0,2.5,9.5,3.5,0.5,5.0,5.0,5.5,18.0,19.0,21.02379604162864,106.01886624558857,107.07474025184464,106.38138934982942,100.71742649611338
62,47,373,0,12.445766666666572,5.0990195135927845,37.12142238654117,3.0,7.0,10.04987562112089,11.180339887498949,11.045361017187261,26.076809620810597,19.1049731745428,16.5,15.0,12.0,2.5,12.5,5.5,0.5,5.0,4.123105625617661,4.5,19.0,19.0,22.0,107.0420478129973,107.01868995647442,106.16967551989597,99.40824915468535
63,47,374,0,12.47913333333324,4.123105625617661,37.12142238654117,3.0,7.0,10.04987562112089,11.180339887498949,11.180339887498949,25.179356624028344,18.24828759089466,16.0,16.0,13.0,3.5,10.5,4.5,1.5,5.0990195135927845,4.0,4.5,19.0,19.0,22.0,107.01868995647442,108.07404868885037,105.38500842150178,99.84988733093293
64,47,375,0,12.512499999999903,4.0,37.12142238654117,2.23606797749979,6.0,10.04987562112089,10.04987562112089,12.041594578792296,24.08318915758459,18.110770276274835,16.0,16.0,13.0,2.5,9.5,3.5,1.5,5.0990195135927845,5.0,5.0,18.0,18.0,20.024984394500787,107.11675872616759,107.00467279516349,106.16967551989597,101.49384217774002
65,47,376,0,12.545866666666573,3.1622776601683795,36.124783736376884,3.0,8.0,9.055385138137417,11.180339887498949,10.44030650891055,24.331050121192877,16.492422502470642,14.5,14.0,11.0,2.5,11.5,3.5,0.5,5.0,5.0990195135927845,5.0,18.0,20.0,20.0,108.11567878897121,109.00458705944443,107.16809226630845,101.49384217774002
66,47,377,0,12.579233333333235,6.0,36.22154055254967,1.4142135623730951,6.082762530298219,10.04987562112089,10.198039027185569,11.180339887498949,24.331050121192877,18.24828759089466,15.0,14.0,10.0,1.0,12.0,6.0,0.0,5.0990195135927845,4.123105625617661,4.5,18.0,18.0,20.0,107.29864864013899,108.01851693112621,105.11898020814318,100.40418317978589
67,47,378,0,12.612599999999905,3.1622776601683795,35.12833614050059,2.23606797749979,7.0,8.06225774829855,9.219544457292887,11.045361017187261,23.194827009486403,16.278820596099706,14.5,14.0,11.0,1.5,10.5,4.5,0.5,5.0990195135927845,5.0,5.0,17.0,18.0,22.0,108.16653826391968,107.00467279516349,105.11898020814318,99.40824915468535
68,47,379,0,12.645966666666569,3.0,35.12833614050059,3.1622776601683795,6.082762530298219,9.055385138137417,9.219544457292887,11.180339887498949,23.345235059857504,17.26267650163207,15.5,14.0,11.0,1.5,10.5,4.5,0.5,4.0,4.123105625617661,4.0,18.0,18.0,21.02379604162864,109.16501271011697,108.0,105.07616285342742,100.31948963187563
69,47,380,0,12.679333333333236,1.0,33.24154027718932,3.1622776601683795,6.082762530298219,8.06225774829855,9.219544457292887,12.165525060596439,22.360679774997898,16.278820596099706,15.5,15.0,11.0,1.0,9.0,3.0,1.0,5.0,4.123105625617661,4.5,18.0,18.0,22.0,108.29589096544707,109.00458705944443,106.1178590059185,100.40418317978589
70,47,381,0,12.7126999999999,2.23606797749979,36.124783736376884,3.0,7.0,10.04987562112089,11.180339887498949,11.40175425099138,23.345235059857504,16.492422502470642,15.0,14.0,11.0,1.5,10.5,3.5,0.5,4.123105625617661,3.0,3.5,18.0,18.0,20.024984394500787,108.07404868885037,107.00467279516349,104.17293314484334,97.41663102366043
71,47,382,0,12.746066666666566,1.4142135623730951,34.23448553724738,3.0,7.0,9.055385138137417,10.04987562112089,11.180339887498949,22.20360331117452,15.297058540778355,14.5,14.0,10.0,1.0,10.0,3.0,1.0,5.0990195135927845,4.123105625617661,4.5,18.0,19.0,20.0,109.04127658827184,109.00458705944443,108.2266141020775,101.59724405711013
72,47,383,0,12.779433333333232,3.0,36.22154055254967,3.1622776601683795,7.0710678118654755,9.055385138137417,10.198039027185569,10.198039027185569,23.345235059857504,16.278820596099706,14.5,13.0,9.0,1.0,12.0,5.0,1.0,2.23606797749979,2.0,2.5,17.0,17.0,20.024984394500787,110.16351483136329,109.0,107.16809226630845,100.4987562112089
73,47,384,0,12.812799999999898,3.0,36.22154055254967,3.1622776601683795,7.0710678118654755,9.055385138137417,10.198039027185569,10.198039027185569,23.345235059857504,16.278820596099706,14.5,13.0,9.0,1.0,12.0,5.0,1.0,2.0,2.0,2.5,17.0,17.0,20.024984394500787,110.11357772772621,109.0,107.16809226630845,100.60318086422517
74,47,385,0,12.846166666666564,4.123105625617661,36.124783736376884,3.0,8.06225774829855,8.06225774829855,9.219544457292887,9.486832980505138,24.515301344262525,16.492422502470642,14.0,12.0,9.0,1.5,13.5,5.5,0.5,3.0,2.0,2.0,18.0,18.0,19.0,109.37092849564732,109.04127658827184,107.0420478129973,101.31633629380802
75,47,386,0,12.87953333333323,5.0990195135927845,36.124783736376884,2.23606797749979,7.0710678118654755,9.055385138137417,10.04987562112089,9.219544457292887,23.53720459187964,16.492422502470642,13.5,12.0,9.0,1.5,12.5,5.5,0.5,3.1622776601683795,3.1622776601683795,3.0,18.0,17.0,19.026297590440446,110.3675676999362,109.04127658827184,107.01868995647442,100.24470060806208
76,47,387,0,12.912899999999896,2.23606797749979,36.124783736376884,3.0,7.0,10.04987562112089,10.198039027185569,9.486832980505138,21.37755832643195,14.560219778561036,13.0,12.0,9.0,1.5,10.5,3.5,0.5,3.0,3.0,3.0,19.0,18.0,19.026297590440446,110.3675676999362,110.07270324653611,107.0420478129973,101.31633629380802
77,47,388,0,12.946266666666562,3.1622776601683795,37.12142238654117,3.0,7.0710678118654755,10.04987562112089,10.198039027185569,9.486832980505138,22.561028345356956,15.524174696260024,13.5,11.0,8.0,0.5,12.5,5.5,1.5,4.123105625617661,3.1622776601683795,3.5,19.0,18.0,20.024984394500787,109.55363982999378,110.16351483136329,107.00467279516349,101.17806086301516
78,47,389,0,12.979633333333227,3.1622776601683795,36.05551275463989,2.0,7.0710678118654755,10.04987562112089,11.180339887498949,10.44030650891055,22.561028345356956,15.524174696260024,13.5,11.0,9.0,0.0,12.0,5.0,1.0,4.123105625617661,3.1622776601683795,3.5,19.0,17.0,19.026297590440446,109.45775440780794,109.07336980216573,108.00462953040486,101.17806086301516
79,47,390,0,13.012999999999892,3.1622776601683795,37.12142238654117,3.1622776601683795,8.06225774829855,9.055385138137417,11.180339887498949,9.486832980505138,23.769728648009426,15.811388300841896,13.5,11.0,8.0,0.5,13.5,5.5,1.5,5.0990195135927845,3.0,3.5,19.0,17.0,20.024984394500787,108.664621657649,109.22453936730518,107.0,101.1236866416568
80,47,391,0,13.04636666666656,3.1622776601683795,35.05709628591621,3.0,7.0710678118654755,9.0,10.198039027185569,9.848857801796104,22.80350850198276,15.811388300841896,13.5,12.0,10.0,2.0,11.0,4.0,0.0,5.0990195135927845,3.0,3.5,18.0,17.0,19.1049731745428,109.55363982999378,109.1146186356347,108.01851693112621,102.17631819555841
81,47,392,0,13.079733333333223,4.123105625617661,36.124783736376884,3.1622776601683795,8.0,9.055385138137417,10.198039027185569,9.486832980505138,24.515301344262525,16.76305461424021,14.0,12.0,9.0,1.5,13.5,5.5,0.5,4.123105625617661,4.0,4.5,20.0,18.0,18.027756377319946,108.664621657649,109.22453936730518,108.0,100.12492197250393
82,47,393,0,13.113099999999893,5.0990195135927845,37.05401462729781,3.0,7.0710678118654755,8.06225774829855,10.198039027185569,9.486832980505138,24.515301344262525,17.46424919657298,14.5,11.0,9.0,1.0,14.0,7.0,1.0,4.0,3.0,3.5,19.0,17.0,19.026297590440446,110.65260954898443,110.16351483136329,108.00462953040486,102.17631819555841
83,47,394,0,13.146466666666557,5.0990195135927845,36.05551275463989,2.23606797749979,7.0710678118654755,9.0,10.04987562112089,10.44030650891055,24.73863375370596,17.72004514666935,14.5,11.0,9.0,0.0,14.0,7.0,2.0,4.123105625617661,3.1622776601683795,3.5,19.0,18.0,19.1049731745428,110.45361017187261,111.16204388189342,108.00462953040486,102.07840124139877
84,47,395,0,13.179833333333224,1.0,36.124783736376884,3.1622776601683795,8.06225774829855,9.055385138137417,10.198039027185569,10.198039027185569,22.360679774997898,14.317821063276353,13.5,12.0,9.0,0.5,11.5,3.5,1.5,4.123105625617661,4.0,4.0,19.0,18.0,20.024984394500787,108.37435120913067,110.04090148667449,108.07404868885037,101.31633629380802
85,47,396,0,13.213199999999889,3.1622776601683795,37.05401462729781,3.1622776601683795,7.0,9.055385138137417,10.198039027185569,10.198039027185569,23.345235059857504,16.492422502470642,14.5,12.0,10.0,1.0,12.0,5.0,1.0,4.0,4.0,4.5,20.0,18.0,20.09975124224178,108.2266141020775,109.01834707974616,108.07404868885037,102.3132444994293
86,47,397,0,13.246566666666554,2.0,36.05551275463989,3.0,6.082762530298219,9.055385138137417,10.04987562112089,10.44030650891055,21.37755832643195,15.297058540778355,14.0,12.0,10.0,1.0,10.0,3.0,1.0,5.0990195135927845,4.0,4.5,18.0,16.0,20.024984394500787,105.23307464861035,105.01904589168576,103.04368005850722,97.18538984847466
87,47,398,0,13.27993333333322,0.0,35.014282800023196,4.123105625617661,8.06225774829855,9.055385138137417,11.045361017187261,11.180339887498949,23.345235059857504,15.297058540778355,15.0,14.0,13.0,2.5,9.5,1.5,0.5,4.123105625617661,4.123105625617661,4.5,18.0,16.0,20.024984394500787,107.22872749408155,108.01851693112621,105.04284840006957,98.2496819333274
88,47,399,0,13.313299999999886,0.0,35.014282800023196,4.123105625617661,8.06225774829855,9.055385138137417,11.045361017187261,11.180339887498949,23.345235059857504,15.297058540778355,15.0,14.0,13.0,2.5,9.5,1.5,0.5,4.123105625617661,4.123105625617661,4.5,18.0,16.0,20.024984394500787,107.22872749408155,108.01851693112621,105.04284840006957,98.2496819333274
89,47,400,0,13.346666666666552,1.0,33.015148038438355,3.1622776601683795,7.0710678118654755,9.055385138137417,10.04987562112089,12.041594578792296,23.194827009486403,16.1245154965971,15.5,14.0,13.0,1.5,9.5,2.5,0.5,4.123105625617661,4.0,4.5,19.0,16.0,20.024984394500787,106.23088063270491,106.01886624558857,103.04368005850722,96.25487000666512
90,47,401,0,13.380033333333218,2.23606797749979,32.0624390837628,3.0,7.0,8.0,9.055385138137417,12.165525060596439,24.186773244895647,17.26267650163207,16.0,15.0,13.0,2.0,10.0,2.0,1.0,4.123105625617661,4.0,4.0,18.0,16.0,19.026297590440446,103.39245620450265,105.07616285342742,102.00490184299969,95.1892851112981
91,47,402,0,13.413399999999884,1.0,34.0147027033899,3.1622776601683795,7.0710678118654755,9.0,10.04987562112089,13.038404810405298,24.186773244895647,17.11724276862369,16.5,14.0,13.0,0.5,10.5,3.5,1.5,4.0,4.123105625617661,4.5,17.0,15.0,19.1049731745428,106.30145812734649,106.04244433244644,102.04410811016969,96.25487000666512
92,47,403,0,13.44676666666655,3.1622776601683795,34.0147027033899,4.0,8.0,8.0,10.0,10.44030650891055,25.317977802344327,17.46424919657298,15.5,14.0,13.0,3.5,11.5,3.5,0.5,4.0,4.0,4.0,19.0,17.0,20.09975124224178,106.16967551989597,107.00467279516349,104.12012293500234,97.32933781753577
93,47,404,0,13.480133333333216,3.1622776601683795,34.0147027033899,4.0,8.0,8.0,10.0,10.44030650891055,25.317977802344327,17.46424919657298,15.5,14.0,13.0,3.5,11.5,3.5,0.5,4.0,4.0,4.0,19.0,17.0,20.09975124224178,106.16967551989597,107.00467279516349,104.12012293500234,97.32933781753577
94,47,405,0,13.51349999999988,2.23606797749979,35.014282800023196,3.1622776601683795,7.0710678118654755,9.0,10.04987562112089,12.165525060596439,24.515301344262525,17.46424919657298,16.0,14.0,13.0,1.5,10.5,3.5,1.5,4.123105625617661,5.0,5.0,18.0,16.0,20.09975124224178,107.37783756436893,107.07474025184464,103.00485425454472,96.13012014972206
95,47,406,0,13.546866666666547,1.4142135623730951,34.0,2.23606797749979,7.0,10.0,11.045361017187261,13.341664064126334,23.53720459187964,16.76305461424021,15.5,14.0,14.0,1.0,9.0,2.0,0.0,3.1622776601683795,3.0,4.0,18.0,16.0,19.026297590440446,109.77249200050075,109.22453936730518,106.01886624558857,99.04544411531506
96,47,407,0,13.580233333333211,2.23606797749979,34.0,3.1622776601683795,6.082762530298219,9.0,9.0,11.40175425099138,22.80350850198276,16.76305461424021,15.0,13.0,13.0,2.0,9.0,3.0,1.0,4.123105625617661,3.0,4.0,19.0,17.0,20.09975124224178,109.55363982999378,109.1146186356347,106.00471687618433,99.12618221237011
97,47,408,0,13.61359999999988,2.8284271247461903,34.0,2.0,7.0710678118654755,9.0,10.0,12.36931687685298,23.769728648009426,16.76305461424021,15.0,13.0,13.0,1.0,10.0,3.0,1.0,3.1622776601683795,4.0,4.0,18.0,15.0,18.110770276274835,107.46627377926528,108.11567878897121,106.01886624558857,101.17806086301516
98,47,409,0,13.646966666666543,2.23606797749979,34.0,2.23606797749979,7.0710678118654755,9.0,10.0,12.36931687685298,23.769728648009426,16.76305461424021,15.0,13.0,13.0,1.0,10.0,3.0,1.0,3.1622776601683795,4.0,4.0,18.0,15.0,18.110770276274835,107.46627377926528,109.1146186356347,107.01868995647442,101.17806086301516
99,47,410,0,13.68033333333321,2.23606797749979,33.0,3.1622776601683795,8.246211251235321,9.0,10.0,10.198039027185569,23.769728648009426,15.524174696260024,14.0,12.0,12.0,2.0,11.0,3.0,0.0,4.123105625617661,3.0,3.5,18.0,16.0,19.1049731745428,110.76551810017412,110.2905254316979,107.0420478129973,100.04498987955368
100,47,411,0,13.713699999999877,5.385164807134504,36.0,2.23606797749979,8.06225774829855,10.0,10.04987562112089,9.486832980505138,25.0,17.08800749063506,13.5,11.0,11.0,2.0,13.0,5.0,0.0,4.0,4.0,4.5,19.0,17.0,19.026297590440446,110.65260954898443,110.16351483136329,107.0,100.07996802557443
101,47,412,0,13.747066666666544,7.280109889280518,35.05709628591621,2.0,7.0710678118654755,10.04987562112089,10.04987562112089,8.94427190999916,25.0,18.027756377319946,13.5,8.0,10.0,1.0,15.0,7.0,1.0,4.123105625617661,4.0,4.5,20.0,17.0,19.1049731745428,111.87939935484101,110.2905254316979,108.01851693112621,102.04410811016969
102,47,413,0,13.780433333333209,4.47213595499958,37.0,3.0,9.055385138137417,8.0,10.0,8.94427190999916,25.0,16.15549442140351,13.0,8.0,8.0,0.0,16.0,7.0,2.0,4.123105625617661,3.0,3.5,19.0,17.0,20.024984394500787,110.76551810017412,111.16204388189342,108.0,103.12128781197411
103,47,414,0,13.813799999999874,4.47213595499958,37.0,3.0,9.055385138137417,8.0,10.0,8.94427190999916,25.0,16.15549442140351,13.0,8.0,8.0,0.0,16.0,7.0,2.0,4.123105625617661,3.0,3.5,19.0,17.0,20.024984394500787,110.76551810017412,111.16204388189342,108.0,103.12128781197411
104,47,415,0,13.84716666666654,3.1622776601683795,35.0,3.1622776601683795,7.0710678118654755,9.0,9.055385138137417,9.486832980505138,22.80350850198276,15.811388300841896,13.5,9.0,9.0,0.0,13.0,6.0,2.0,4.0,4.0,4.5,18.0,16.0,20.024984394500787,109.03669107231748,108.2266141020775,106.00471687618433,100.12492197250393
105,47,416,0,13.880533333333206,2.8284271247461903,33.015148038438355,2.23606797749979,7.0710678118654755,8.0,9.055385138137417,11.180339887498949,22.80350850198276,15.811388300841896,14.0,10.0,11.0,0.5,11.5,3.5,2.5,4.0,3.0,3.5,19.0,16.0,20.09975124224178,111.87939935484101,110.2905254316979,109.01834707974616,102.0196059588548
106,47,417,0,13.913899999999872,2.23606797749979,33.015148038438355,3.1622776601683795,7.0710678118654755,9.055385138137417,9.055385138137417,11.180339887498949,22.80350850198276,15.811388300841896,14.5,12.0,13.0,1.5,9.5,2.5,0.5,4.123105625617661,4.0,4.0,19.0,17.0,19.1049731745428,111.01801655587259,109.37092849564732,107.07474025184464,100.0
107,47,418,0,13.947266666666538,1.4142135623730951,32.0,3.1622776601683795,7.0710678118654755,8.0,9.055385138137417,12.36931687685298,23.769728648009426,16.76305461424021,15.5,13.0,13.0,1.0,10.0,2.0,1.0,4.123105625617661,4.0,4.0,20.0,17.0,19.1049731745428,108.77959367454909,109.29318368498559,106.01886624558857,99.04544411531506
108,47,419,0,13.980633333333204,1.4142135623730951,32.0,3.1622776601683795,7.0710678118654755,8.0,9.055385138137417,12.36931687685298,23.769728648009426,16.76305461424021,15.5,13.0,13.0,1.0,10.0,2.0,1.0,4.123105625617661,4.0,4.0,20.0,17.0,19.1049731745428,108.77959367454909,109.29318368498559,106.01886624558857,99.04544411531506
109,47,420,0,14.01399999999987,1.4142135623730951,32.01562118716424,3.0,6.324555320336759,9.0,10.0,12.36931687685298,22.80350850198276,16.492422502470642,15.5,12.0,13.0,0.5,9.5,2.5,1.5,4.123105625617661,3.0,4.0,19.0,16.0,19.1049731745428,109.03669107231748,108.37435120913067,106.07544484940895,99.00505037623081
110,47,421,0,14.047366666666536,1.0,31.016124838541646,3.1622776601683795,7.0710678118654755,9.0,10.04987562112089,12.36931687685298,22.80350850198276,15.811388300841896,15.0,12.0,13.0,0.5,9.5,1.5,1.5,4.123105625617661,3.1622776601683795,3.5,19.0,15.0,18.110770276274835,103.81714694596457,102.23991392797629,99.0,91.13725912051558
111,47,422,0,14.0807333333332,1.4142135623730951,32.0,3.0,7.0710678118654755,9.0,9.055385138137417,11.40175425099138,22.561028345356956,15.524174696260024,14.5,12.0,12.0,1.0,10.0,2.0,1.0,4.123105625617661,4.0,4.0,19.0,16.0,21.095023109728988,109.89540481748998,108.37435120913067,106.04244433244644,100.00499987500625
112,47,423,0,14.114099999999867,1.0,32.0,3.1622776601683795,8.06225774829855,9.0,9.055385138137417,11.180339887498949,22.561028345356956,14.560219778561036,14.0,12.0,12.0,1.0,10.0,2.0,1.0,3.1622776601683795,4.0,4.0,18.0,15.0,17.029386365926403,108.77959367454909,108.2266141020775,107.00467279516349,100.04498987955368
113,47,424,0,14.147466666666531,1.4142135623730951,33.0,3.1622776601683795,7.0710678118654755,9.0,10.04987562112089,11.180339887498949,22.561028345356956,15.524174696260024,14.5,12.0,12.0,1.0,10.0,2.0,1.0,4.123105625617661,4.0,4.0,19.0,15.0,16.278820596099706,108.46197490364999,109.07336980216573,107.00467279516349,101.1236866416568
114,47,425,0,14.1808333333332,1.4142135623730951,33.0,3.1622776601683795,8.06225774829855,9.0,10.04987562112089,11.180339887498949,23.53720459187964,15.524174696260024,14.5,13.0,13.0,2.0,10.0,2.0,1.0,4.0,4.0,4.0,18.0,15.0,17.11724276862369,107.37783756436893,108.04165863221463,105.01904589168576,98.18350166906862
115,47,426,0,14.214199999999863,1.0,34.0,4.123105625617661,8.06225774829855,9.0,10.0,11.180339887498949,23.53720459187964,15.524174696260024,15.0,12.0,12.0,1.0,11.0,3.0,2.0,3.1622776601683795,4.0,4.0,19.0,15.0,19.235384061671343,108.29589096544707,108.01851693112621,106.04244433244644,100.24470060806208
116,47,427,0,14.24756666666653,1.0,34.0,4.123105625617661,8.06225774829855,9.0,10.04987562112089,11.180339887498949,24.331050121192877,16.278820596099706,15.5,12.0,12.0,1.0,12.0,3.0,3.0,4.123105625617661,4.123105625617661,4.0,18.0,14.0,20.223748416156685,108.29589096544707,109.01834707974616,107.00467279516349,100.12492197250393
117,47,428,0,14.280933333333197,4.0,35.0,3.1622776601683795,8.06225774829855,9.0,11.0,10.198039027185569,25.317977802344327,17.26267650163207,15.0,12.0,12.0,2.0,13.0,5.0,1.0,4.123105625617661,4.0,4.0,19.0,15.0,19.1049731745428,109.37092849564732,109.04127658827184,107.01868995647442,100.12492197250393
118,47,429,0,14.314299999999864,5.0990195135927845,35.0,3.1622776601683795,8.0,9.0,10.0,10.198039027185569,26.30589287593181,18.439088914585774,15.5,12.0,12.0,2.0,14.0,6.0,1.0,4.123105625617661,4.0,4.0,19.0,15.0,21.095023109728988,108.16653826391968,108.01851693112621,105.04284840006957,98.18350166906862
119,47,430,0,14.347666666666528,4.123105625617661,35.014282800023196,3.0,8.0,9.055385138137417,11.045361017187261,10.44030650891055,25.317977802344327,17.46424919657298,15.0,12.0,11.0,1.5,13.5,5.5,0.5,5.0990195135927845,4.0,4.0,19.0,15.0,19.1049731745428,104.47966309287182,104.12012293500234,102.0,95.08417323613851
120,47,431,0,14.381033333333194,1.0,35.014282800023196,4.123105625617661,8.06225774829855,9.0,10.04987562112089,10.198039027185569,23.345235059857504,15.297058540778355,14.5,13.0,12.0,2.5,10.5,2.5,1.5,4.123105625617661,4.0,4.5,18.0,15.0,19.1049731745428,103.39245620450265,104.0768946500615,103.0,96.13012014972206
121,47,432,0,14.41439999999986,1.4142135623730951,35.014282800023196,4.0,8.0,10.0,10.04987562112089,10.198039027185569,23.194827009486403,15.297058540778355,14.5,12.0,11.0,1.5,11.5,2.5,2.5,4.123105625617661,4.0,4.0,19.0,16.0,19.1049731745428,106.38138934982942,108.07404868885037,106.00471687618433,99.12618221237011
122,47,433,0,14.447766666666526,1.4142135623730951,36.013886210738214,4.0,7.0710678118654755,10.04987562112089,11.045361017187261,10.198039027185569,22.360679774997898,15.297058540778355,14.5,13.0,12.0,2.5,9.5,2.5,0.5,4.123105625617661,4.0,4.0,19.0,15.0,20.09975124224178,105.30432089900205,107.0420478129973,104.01922899156675,97.25224933131366
123,47,434,0,14.481133333333192,1.4142135623730951,36.013886210738214,4.0,7.0710678118654755,10.04987562112089,11.045361017187261,10.198039027185569,22.360679774997898,15.297058540778355,14.5,13.0,12.0,2.5,9.5,2.5,0.5,4.123105625617661,4.0,4.0,19.0,15.0,20.09975124224178,105.30432089900205,107.0420478129973,104.01922899156675,97.25224933131366
124,47,435,0,14.514499999999858,4.0,36.05551275463989,3.1622776601683795,8.06225774829855,10.0,11.045361017187261,10.44030650891055,25.495097567963924,17.46424919657298,15.0,13.0,11.0,2.0,13.0,5.0,0.0,4.0,4.0,4.0,18.0,15.0,20.09975124224178,104.6900186264192,105.23307464861035,102.0196059588548,95.02105029939419
125,47,436,0,14.547866666666524,3.1622776601683795,36.013886210738214,3.0,7.0710678118654755,10.0,11.045361017187261,9.486832980505138,22.561028345356956,15.524174696260024,13.5,12.0,11.0,2.5,10.5,3.5,0.5,4.0,4.0,4.0,18.0,15.0,18.110770276274835,109.45775440780794,109.04127658827184,108.01851693112621,102.23991392797629
126,47,437,0,14.58123333333319,4.123105625617661,37.0,3.1622776601683795,8.06225774829855,9.0,11.045361017187261,9.219544457292887,24.515301344262525,16.492422502470642,14.0,11.0,11.0,2.0,13.0,5.0,1.0,4.123105625617661,3.0,3.5,18.0,14.0,16.1245154965971,109.45775440780794,110.07270324653611,107.01868995647442,100.17983829094555
127,47,438,0,14.614599999999855,5.0990195135927845,37.0,3.0,7.0710678118654755,10.04987562112089,10.04987562112089,9.848857801796104,24.73863375370596,17.72004514666935,14.5,11.0,11.0,2.0,13.0,6.0,0.0,3.1622776601683795,3.0,3.5,18.0,15.0,18.110770276274835,109.77249200050075,109.22453936730518,107.01868995647442,100.0199980003999
128,47,439,0,14.64796666666652,5.0990195135927845,37.0,3.0,7.0710678118654755,10.04987562112089,10.04987562112089,9.848857801796104,24.73863375370596,17.72004514666935,14.5,11.0,11.0,2.0,13.0,6.0,0.0,3.1622776601683795,3.0,3.5,18.0,15.0,18.110770276274835,109.77249200050075,109.22453936730518,107.01868995647442,100.0199980003999
129,47,440,0,14.681333333333187,5.0990195135927845,38.0,3.1622776601683795,7.0710678118654755,9.0,10.04987562112089,8.54400374531753,23.769728648009426,16.76305461424021,13.5,9.0,9.0,1.0,14.0,6.0,2.0,4.123105625617661,4.0,4.0,19.0,15.0,19.1049731745428,111.5437134042076,111.11255554616679,109.0,103.07764064044152
130,47,441,0,14.714699999999851,2.23606797749979,37.0,4.123105625617661,8.06225774829855,10.04987562112089,11.045361017187261,9.486832980505138,23.769728648009426,15.811388300841896,14.0,10.0,10.0,1.0,13.0,5.0,2.0,3.1622776601683795,3.0,3.5,19.0,15.0,19.1049731745428,109.77249200050075,110.2905254316979,108.01851693112621,101.07917688624102
131,47,442,0,14.74806666666652,2.8284271247461903,38.0,4.0,8.0,9.0,10.04987562112089,8.54400374531753,22.561028345356956,14.866068747318506,13.0,9.0,9.0,1.0,13.0,5.0,2.0,4.123105625617661,4.0,4.0,18.0,14.0,19.1049731745428,108.90362712049586,108.2266141020775,107.00467279516349,101.07917688624102
132,47,443,0,14.781433333333185,3.1622776601683795,37.0,4.123105625617661,7.0710678118654755,10.0,11.045361017187261,8.54400374531753,22.80350850198276,15.811388300841896,13.5,9.0,9.0,1.0,13.0,5.0,2.0,4.123105625617661,3.0,4.0,19.0,14.0,18.24828759089466,110.8873302050329,109.29318368498559,107.0420478129973,100.0199980003999
133,47,444,0,14.81479999999985,3.1622776601683795,37.0,4.123105625617661,7.0710678118654755,10.0,11.045361017187261,8.54400374531753,22.80350850198276,15.811388300841896,13.5,9.0,9.0,1.0,13.0,5.0,2.0,4.123105625617661,3.0,4.0,19.0,14.0,18.24828759089466,110.8873302050329,109.29318368498559,107.0420478129973,100.0199980003999
134,47,445,0,14.848166666666517,2.23606797749979,36.0,3.0,8.06225774829855,10.04987562112089,11.045361017187261,9.848857801796104,22.80350850198276,14.866068747318506,13.0,9.0,9.0,0.0,13.0,5.0,2.0,4.123105625617661,4.0,4.5,20.0,15.0,20.223748416156685,109.77249200050075,108.16653826391968,106.0,100.07996802557443
135,47,446,0,14.881533333333184,2.23606797749979,37.013511046643494,4.0,8.06225774829855,10.0,11.045361017187261,9.486832980505138,23.53720459187964,15.524174696260024,14.0,11.0,10.0,1.5,12.5,4.5,1.5,4.123105625617661,3.1622776601683795,4.0,19.0,15.0,18.110770276274835,109.65856099730654,109.1146186356347,107.00467279516349,100.12492197250393
136,47,447,0,14.914899999999848,2.23606797749979,37.013511046643494,4.123105625617661,7.0,10.0,11.045361017187261,9.219544457292887,22.360679774997898,15.524174696260024,14.0,11.0,10.0,1.5,11.5,3.5,1.5,5.0990195135927845,3.0,3.5,19.0,14.0,19.1049731745428,109.45775440780794,109.1146186356347,106.01886624558857,100.12492197250393
137,47,448,0,14.948266666666514,2.23606797749979,37.0,4.0,8.06225774829855,10.04987562112089,11.045361017187261,9.486832980505138,23.53720459187964,15.524174696260024,14.0,12.0,12.0,3.0,11.0,3.0,0.0,3.0,3.0,3.0,18.0,13.0,17.11724276862369,110.54863183232979,109.1146186356347,107.0,101.1236866416568
138,47,449,0,14.98163333333318,3.1622776601683795,35.014282800023196,3.0,7.0710678118654755,10.04987562112089,10.04987562112089,10.198039027185569,23.345235059857504,16.278820596099706,14.5,12.0,11.0,1.5,11.5,3.5,0.5,4.0,3.1622776601683795,3.5,19.0,15.0,19.1049731745428,108.55873986004075,109.1146186356347,107.01868995647442,101.17806086301516
139,47,450,0,15.014999999999846,3.1622776601683795,38.01315561749642,3.0,8.06225774829855,10.04987562112089,11.045361017187261,9.486832980505138,23.53720459187964,15.524174696260024,13.5,12.0,11.0,2.5,11.5,3.5,0.5,4.123105625617661,4.0,4.0,18.0,14.0,19.235384061671343,108.46197490364999,109.1146186356347,106.0,99.12618221237011
140,47,451,0,15.048366666666512,4.123105625617661,37.05401462729781,3.1622776601683795,9.0,10.0,12.041594578792296,8.246211251235321,24.331050121192877,15.524174696260024,13.0,13.0,11.0,4.0,12.0,3.0,1.0,4.0,5.0,4.5,19.0,15.0,19.235384061671343,110.45361017187261,110.11357772772621,107.00467279516349,100.12492197250393
141,47,452,0,15.081733333333178,6.082762530298219,36.05551275463989,3.0,8.06225774829855,10.0,11.180339887498949,9.486832980505138,26.476404589747453,18.439088914585774,15.0,14.0,12.0,4.0,13.0,5.0,1.0,4.123105625617661,4.0,4.5,19.0,15.0,18.24828759089466,108.37435120913067,108.04165863221463,106.00471687618433,98.08159868191383
142,47,453,0,15.115099999999844,5.0990195135927845,37.0,3.1622776601683795,9.055385138137417,10.0,11.045361017187261,9.219544457292887,26.476404589747453,17.46424919657298,14.5,12.0,12.0,3.0,14.0,5.0,0.0,5.0,4.0,4.5,19.0,15.0,19.235384061671343,107.22872749408155,108.04165863221463,105.04284840006957,98.2496819333274
143,47,454,0,15.14846666666651,5.0990195135927845,37.0,3.1622776601683795,9.055385138137417,10.0,11.045361017187261,9.219544457292887,26.476404589747453,17.46424919657298,14.5,12.0,12.0,3.0,14.0,5.0,0.0,5.0,4.0,4.5,19.0,15.0,19.235384061671343,107.22872749408155,108.04165863221463,105.04284840006957,98.2496819333274
144,47,455,0,15.181833333333175,6.082762530298219,37.0,3.0,8.06225774829855,10.0,11.045361017187261,9.219544457292887,26.30589287593181,18.24828759089466,15.0,13.0,13.0,4.0,13.0,5.0,1.0,4.123105625617661,4.0,4.5,19.0,15.0,19.1049731745428,106.47065323364932,108.11567878897121,106.00471687618433,98.08159868191383
145,47,456,0,15.21519999999984,5.0990195135927845,36.0,4.0,8.06225774829855,9.0,10.0,8.246211251235321,25.317977802344327,17.26267650163207,14.5,12.0,12.0,4.0,13.0,4.0,0.0,5.0,4.0,4.5,19.0,15.0,19.235384061671343,108.2266141020775,108.00462953040486,106.1178590059185,100.40418317978589
146,47,457,0,15.248566666666507,2.0,35.0,5.0990195135927845,8.06225774829855,9.0,10.0,9.055385138137417,24.186773244895647,16.1245154965971,15.0,13.0,13.0,4.0,11.0,2.0,0.0,5.0,4.0,4.0,19.0,14.0,19.1049731745428,102.3132444994293,103.04368005850722,102.00490184299969,96.13012014972206
147,47,458,0,15.281933333333171,1.0,35.014282800023196,4.123105625617661,8.06225774829855,9.0,10.0,10.04987562112089,23.194827009486403,15.132745950421556,14.5,13.0,14.0,3.5,9.5,0.5,0.5,4.123105625617661,4.0,4.0,18.0,14.0,19.235384061671343,105.11898020814318,105.00476179678711,103.04368005850722,97.25224933131366
148,47,459,0,15.31529999999984,1.0,35.014282800023196,4.123105625617661,8.06225774829855,9.0,10.0,10.04987562112089,23.194827009486403,15.132745950421556,14.5,13.0,14.0,3.5,9.5,0.5,0.5,4.123105625617661,4.0,4.0,18.0,14.0,19.235384061671343,105.11898020814318,105.00476179678711,103.04368005850722,97.25224933131366
149,47,460,0,15.348666666666505,1.0,34.0,4.0,8.0,9.0,10.04987562112089,10.198039027185569,23.08679276123039,15.132745950421556,14.5,14.0,14.0,4.0,9.0,1.0,0.0,3.0,4.0,4.0,18.0,14.0,17.26267650163207,101.31633629380802,102.04410811016969,101.01980003939822,96.18731725128839
150,47,461,0,15.38203333333317,1.0,36.0,5.0990195135927845,8.0,10.0,11.045361017187261,10.0,24.020824298928627,16.0312195418814,15.5,15.0,15.0,5.0,9.0,0.0,0.0,4.0,4.123105625617661,4.0,17.0,13.0,18.110770276274835,101.31633629380802,103.07764064044152,102.00490184299969,96.13012014972206
151,47,462,0,15.415399999999837,2.23606797749979,35.014282800023196,5.0,7.0,9.055385138137417,11.0,10.04987562112089,24.08318915758459,17.11724276862369,16.0,15.0,16.0,5.5,8.5,0.5,0.5,4.0,3.0,3.5,19.0,14.0,18.24828759089466,102.3132444994293,102.04410811016969,100.00499987500625,95.1892851112981
152,47,463,0,15.448766666666502,8.0,36.0,4.123105625617661,8.06225774829855,9.0,11.0,9.055385138137417,29.154759474226502,21.095023109728988,17.0,15.0,15.0,6.0,14.0,6.0,2.0,5.0990195135927845,4.0,4.0,19.0,14.0,19.235384061671343,103.1746092796091,103.01941564578979,102.04410811016969,96.18731725128839
153,47,464,0,15.482133333333168,8.0,36.0,4.123105625617661,8.06225774829855,9.0,11.0,9.055385138137417,29.154759474226502,21.095023109728988,17.0,15.0,15.0,6.0,14.0,6.0,2.0,5.0990195135927845,4.0,4.0,19.0,14.0,19.235384061671343,103.1746092796091,103.01941564578979,102.04410811016969,96.18731725128839
154,47,465,0,15.515499999999834,7.0710678118654755,37.0,5.0,8.0,10.0,12.0,8.06225774829855,28.071337695236398,20.09975124224178,16.5,15.0,15.0,7.0,13.0,5.0,2.0,4.0,4.0,4.0,19.0,14.0,17.26267650163207,105.07616285342742,106.00471687618433,104.17293314484334,99.50376877284599
155,47,466,0,15.5488666666665,6.0,37.0,5.0990195135927845,8.06225774829855,10.04987562112089,12.0,9.055385138137417,28.160255680657446,20.09975124224178,17.0,15.0,15.0,6.0,13.0,5.0,1.0,4.123105625617661,4.0,4.5,18.0,14.0,17.26267650163207,101.1236866416568,103.0,102.04410811016969,96.25487000666512
156,47,467,0,15.582233333333166,6.082762530298219,37.013511046643494,5.0990195135927845,8.0,10.0,11.0,9.0,28.071337695236398,20.09975124224178,17.0,15.0,16.0,6.5,12.5,4.5,1.5,4.0,3.0,3.5,18.0,14.0,19.235384061671343,106.01886624558857,107.0420478129973,106.30145812734649,100.71742649611338
157,47,468,0,15.615599999999832,7.0710678118654755,38.01315561749642,5.0,7.0,9.0,11.045361017187261,9.055385138137417,28.071337695236398,21.095023109728988,17.5,15.0,16.0,6.5,12.5,4.5,1.5,4.0,4.0,4.0,19.0,15.0,19.235384061671343,106.07544484940895,107.01868995647442,106.23088063270491,100.4987562112089
158,47,469,0,15.648966666666498,6.082762530298219,38.0,5.0,8.0,10.0,12.0,9.055385138137417,28.071337695236398,20.09975124224178,17.0,15.0,15.0,6.0,13.0,4.0,1.0,4.0,4.0,4.0,19.0,14.0,17.26267650163207,104.01922899156675,106.07544484940895,105.38500842150178,99.72462083156798
159,47,470,0,15.682333333333164,6.0,37.013511046643494,5.0990195135927845,9.055385138137417,10.0,12.041594578792296,9.0,29.068883707497267,20.024984394500787,17.0,15.0,16.0,6.5,13.5,4.5,1.5,3.0,3.0,3.0,17.0,13.0,17.11724276862369,106.07544484940895,107.01868995647442,106.23088063270491,100.60318086422517
160,47,471,0,15.71569999999983,7.0710678118654755,37.013511046643494,5.0,8.0,10.0,11.0,9.055385138137417,29.068883707497267,21.095023109728988,17.5,16.0,17.0,7.5,12.5,3.5,2.5,4.0,4.0,4.0,18.0,14.0,18.110770276274835,105.01904589168576,106.04244433244644,104.30723848324239,98.6154146165801
161,47,472,0,15.749066666666495,7.0710678118654755,38.0,5.0,8.0,10.0,11.0,9.055385138137417,29.068883707497267,21.095023109728988,17.5,16.0,16.0,7.0,13.0,5.0,2.0,4.123105625617661,3.0,3.0,18.0,14.0,19.1049731745428,106.01886624558857,106.04244433244644,106.38138934982942,100.71742649611338
162,47,473,0,15.78243333333316,4.0,36.013886210738214,5.0990195135927845,9.055385138137417,10.0,11.0,10.0,28.071337695236398,19.026297590440446,17.0,16.0,17.0,6.5,11.5,2.5,1.5,4.0,4.0,4.0,17.0,13.0,18.110770276274835,106.00471687618433,107.0420478129973,105.30432089900205,99.72462083156798
163,47,474,0,15.815799999999829,4.0,36.013886210738214,5.0990195135927845,9.055385138137417,10.0,11.0,10.0,28.071337695236398,19.026297590440446,17.0,16.0,17.0,6.5,11.5,2.5,1.5,4.0,4.0,4.0,17.0,13.0,18.110770276274835,106.00471687618433,107.0420478129973,105.30432089900205,99.72462083156798
164,47,475,0,15.849166666666491,7.0710678118654755,37.0,5.0,8.0,10.04987562112089,11.0,9.055385138137417,29.068883707497267,21.095023109728988,17.5,15.0,15.0,6.0,14.0,6.0,1.0,4.0,4.0,4.0,18.0,14.0,18.110770276274835,107.0420478129973,108.04165863221463,105.30432089900205,99.72462083156798
165,47,476,0,15.88253333333316,6.082762530298219,37.013511046643494,5.0990195135927845,8.0,11.045361017187261,11.0,9.0,28.071337695236398,20.09975124224178,17.0,15.0,16.0,6.5,12.5,3.5,1.5,4.0,4.0,4.0,18.0,15.0,17.26267650163207,105.04284840006957,106.01886624558857,105.30432089900205,99.60923651951158
166,47,477,0,15.915899999999825,5.0990195135927845,36.013886210738214,5.0,8.0,11.0,11.0,9.055385138137417,27.073972741361768,19.1049731745428,16.5,14.0,15.0,5.5,12.5,3.5,1.5,4.0,4.0,3.5,18.0,14.0,17.26267650163207,107.07474025184464,108.01851693112621,106.16967551989597,100.4987562112089
167,47,478,0,15.94926666666649,5.0990195135927845,36.0,5.0,7.0,10.0,11.0,9.0,26.019223662515376,19.026297590440446,16.5,15.0,15.0,6.0,11.0,3.0,2.0,4.0,4.0,4.0,17.0,14.0,19.235384061671343,106.01886624558857,107.0420478129973,106.30145812734649,100.71742649611338
168,47,479,0,15.982633333333157,5.0990195135927845,36.0,4.0,8.0,10.0,12.0,9.055385138137417,26.076809620810597,18.110770276274835,15.5,15.0,15.0,6.0,11.0,3.0,2.0,4.0,3.0,3.5,17.0,13.0,18.110770276274835,106.01886624558857,107.0420478129973,106.23088063270491,99.60923651951158
169,47,480,0,16.015999999999824,4.0,36.0,4.123105625617661,8.0,10.0,11.0,10.0,26.019223662515376,18.027756377319946,16.0,16.0,16.0,6.0,10.0,1.0,2.0,3.0,4.0,3.5,17.0,13.0,18.110770276274835,107.07474025184464,108.00462953040486,106.16967551989597,99.50376877284599
170,47,481,0,16.04936666666649,2.0,35.0,4.0,7.0,9.0,11.0,11.0,24.0,17.0,16.0,16.0,16.0,5.0,8.0,0.0,2.0,3.0,2.23606797749979,2.5,17.0,13.0,17.26267650163207,106.00471687618433,106.07544484940895,106.38138934982942,100.71742649611338
171,47,482,0,16.082733333333156,2.0,36.0,4.123105625617661,7.0,10.0,11.0,12.0,25.019992006393608,18.027756377319946,17.0,17.0,17.0,5.0,8.0,0.0,2.0,3.0,3.0,3.0,17.0,13.0,18.110770276274835,106.01886624558857,107.07474025184464,105.38500842150178,98.85848471426213
172,47,483,0,16.116099999999822,1.0,35.014282800023196,4.123105625617661,7.0,10.0,10.0,12.0,24.020824298928627,17.029386365926403,16.5,17.0,16.0,4.5,7.5,0.5,1.5,4.0,3.0,3.5,17.0,13.0,18.24828759089466,105.00476179678711,106.1178590059185,105.47511554864494,98.00510190801293
173,47,484,0,16.149466666666488,1.0,35.014282800023196,4.123105625617661,7.0,10.0,10.0,12.0,24.020824298928627,17.029386365926403,16.5,17.0,16.0,4.5,7.5,0.5,1.5,4.0,3.0,3.5,17.0,13.0,18.24828759089466,105.00476179678711,106.1178590059185,105.47511554864494,98.00510190801293
174,47,485,0,16.182833333333154,3.1622776601683795,36.013886210738214,4.0,7.0,10.0,11.045361017187261,12.0,26.019223662515376,19.026297590440446,17.5,18.0,17.0,5.5,8.5,0.5,1.5,4.0,3.0,3.5,17.0,14.0,18.24828759089466,106.00471687618433,107.16809226630845,105.47511554864494,98.99494936611666
175,47,486,0,16.21619999999982,3.0,37.013511046643494,5.0990195135927845,8.0,10.0,11.0,11.045361017187261,27.0,19.0,17.5,18.0,17.0,6.5,9.5,0.5,2.5,3.0,2.23606797749979,2.5,18.0,13.0,17.26267650163207,106.0,106.1178590059185,105.47511554864494,99.98499887483122
176,47,487,0,16.249566666666485,3.0,36.013886210738214,4.123105625617661,8.0,9.0,10.0,12.041594578792296,27.0,19.0,17.5,18.0,17.0,5.5,9.5,0.5,2.5,3.0,3.0,3.5,18.0,14.0,18.24828759089466,105.0,106.16967551989597,105.57461816175325,99.98499887483122
177,47,488,0,16.28293333333315,5.0990195135927845,36.0,4.0,8.0,9.0,10.04987562112089,11.0,28.0178514522438,20.024984394500787,17.5,19.0,19.0,8.0,9.0,0.0,4.0,3.0,3.0,3.5,18.0,13.0,18.24828759089466,106.00471687618433,107.22872749408155,106.6770828247567,100.2845950283492
178,47,489,0,16.316299999999817,6.082762530298219,36.013886210738214,4.0,8.0,10.0,11.045361017187261,11.0,29.017236257093817,21.02379604162864,18.0,19.0,18.0,7.5,10.5,2.5,3.5,3.0,3.0,3.5,17.0,13.0,17.26267650163207,106.01886624558857,107.29864864013899,106.6770828247567,100.12991560967181
179,47,490,0,16.349666666666483,5.0,35.014282800023196,4.123105625617661,7.0,9.0,11.0,11.045361017187261,27.0,20.0,17.5,18.0,19.0,7.5,8.5,0.5,3.5,3.0,3.0,3.0,18.0,14.0,18.24828759089466,104.00480758118829,106.16967551989597,105.38500842150178,99.72462083156798
180,47,491,0,16.38303333333315,7.0,36.013886210738214,5.0990195135927845,6.0,10.04987562112089,10.0,10.0,28.0178514522438,22.02271554554524,18.5,18.0,19.0,8.5,9.5,2.5,3.5,4.0,4.123105625617661,4.0,18.0,14.0,16.278820596099706,105.0,106.07544484940895,106.30145812734649,99.60923651951158
181,47,492,0,16.416399999999815,6.0,35.014282800023196,5.0,7.0,9.055385138137417,10.0,10.0,28.0,21.0,18.0,18.0,19.0,8.5,9.5,1.5,3.5,3.0,3.0,3.5,18.0,14.0,17.11724276862369,104.01922899156675,105.04284840006957,105.23307464861035,99.40824915468535
182,47,493,0,16.44976666666648,5.0,36.05551275463989,4.0,7.0710678118654755,10.04987562112089,12.041594578792296,10.0,26.019223662515376,19.0,16.5,17.0,19.0,8.0,8.0,0.0,3.0,3.0,2.0,2.5,18.0,13.0,15.132745950421556,103.12128781197411,104.0,104.0768946500615,99.18165152889924
183,47,494,0,16.483133333333146,5.0,36.05551275463989,4.0,7.0710678118654755,10.04987562112089,12.041594578792296,10.0,26.019223662515376,19.0,16.5,17.0,19.0,8.0,8.0,0.0,3.0,3.0,2.0,2.5,18.0,13.0,15.132745950421556,103.12128781197411,104.0,104.0768946500615,99.18165152889924
184,47,495,0,16.516499999999812,3.0,36.05551275463989,5.0,8.0,10.04987562112089,11.045361017187261,10.04987562112089,26.019223662515376,18.027756377319946,16.5,17.0,19.0,8.0,8.0,1.0,3.0,4.0,3.0,3.0,18.0,13.0,17.26267650163207,104.00480758118829,107.07474025184464,106.38138934982942,100.71742649611338
185,47,496,0,16.549866666666478,1.0,37.05401462729781,5.0,8.0,11.0,11.0,10.0,24.0,16.0,15.5,16.0,18.0,7.0,7.0,1.0,2.0,3.0,3.1622776601683795,3.0,18.0,12.0,16.278820596099706,100.12492197250393,101.00495037373169,101.1236866416568,96.33275663033837
186,47,497,0,16.583233333333144,2.0,36.013886210738214,5.0,8.0,10.0,11.0,10.04987562112089,25.019992006393608,17.029386365926403,16.0,16.0,17.0,6.5,8.5,0.5,1.5,3.0,3.0,3.0,18.0,11.0,17.26267650163207,99.18165152889924,100.0,100.12492197250393,95.42536350467836
187,47,498,0,16.61659999999981,3.0,35.05709628591621,4.0,7.0710678118654755,10.0,10.0,11.045361017187261,25.0,18.027756377319946,16.5,17.0,19.0,7.0,7.0,1.0,3.0,3.1622776601683795,4.123105625617661,4.0,19.0,11.0,17.46424919657298,100.24470060806208,100.00499987500625,99.08077512817509,94.33981132056604
188,47,499,0,16.649966666666476,1.0,33.015148038438355,5.0,8.06225774829855,10.0,11.0,11.045361017187261,25.0,17.029386365926403,16.5,17.0,18.0,6.5,7.5,1.5,2.5,4.123105625617661,3.1622776601683795,3.0,19.0,11.0,18.681541692269406,104.0768946500615,106.00471687618433,105.17128885774862,98.50888284819801
189,47,500,0,16.68333333333314,1.0,35.05709628591621,6.0,8.06225774829855,10.04987562112089,11.0,10.0,25.019992006393608,17.0,16.5,17.0,19.0,8.0,7.0,2.0,2.0,3.1622776601683795,2.0,2.5,19.0,11.0,16.492422502470642,100.07996802557443,101.00495037373169,100.12492197250393,94.42986815621421
190,47,501,0,16.716699999999808,1.0,34.058772731852805,5.0990195135927845,8.0,10.0,11.0,10.04987562112089,24.0,16.0,15.5,16.0,18.0,7.0,7.0,2.0,2.0,3.1622776601683795,3.0,3.0,20.0,12.0,17.46424919657298,101.24228365658294,101.01980003939822,100.04498987955368,95.25754563287887
191,47,502,0,16.750066666666473,1.0,35.05709628591621,5.0990195135927845,8.0,10.04987562112089,11.045361017187261,11.0,25.019992006393608,17.029386365926403,16.5,17.0,19.0,7.0,7.0,2.0,2.0,3.1622776601683795,2.23606797749979,2.0,19.0,10.0,16.76305461424021,99.32270636667126,101.04454463255303,101.01980003939822,96.18731725128839
192,47,503,0,16.78343333333314,1.0,33.13608305156178,5.0,7.0710678118654755,9.0,10.04987562112089,10.04987562112089,23.0,16.0312195418814,15.5,16.0,19.0,7.5,5.5,2.5,2.5,3.1622776601683795,3.0,3.0,19.0,10.0,16.76305461424021,100.40418317978589,102.07840124139877,100.0,95.13148795220224
193,47,504,0,16.816799999999805,0.0,35.12833614050059,5.0,8.06225774829855,11.0,11.045361017187261,10.0,23.021728866442675,15.0,15.0,16.0,19.0,7.5,5.5,2.5,2.5,4.123105625617661,3.0,3.0,19.0,10.0,16.492422502470642,102.48902380255166,102.07840124139877,101.01980003939822,97.18538984847466
194,47,505,0,16.85016666666647,1.0,32.38826948140329,5.0990195135927845,8.06225774829855,10.198039027185569,10.04987562112089,9.0,23.08679276123039,15.033296378372908,14.5,15.0,20.0,8.5,5.5,3.5,2.5,4.123105625617661,3.1622776601683795,3.0,19.0,10.0,16.492422502470642,100.60318086422517,101.1236866416568,101.00495037373169,96.04686356149273
195,47,506,0,16.883533333333137,6.0,35.22782990761707,5.0990195135927845,7.0710678118654755,10.198039027185569,11.180339887498949,8.06225774829855,26.1725046566048,19.1049731745428,16.0,15.0,19.0,9.0,9.0,0.0,3.0,3.1622776601683795,3.0,3.0,21.0,11.0,16.492422502470642,100.60318086422517,102.17631819555841,102.00490184299969,97.04638066409278
196,47,507,0,16.916899999999803,9.0,35.35533905932738,4.123105625617661,7.0710678118654755,10.198039027185569,12.165525060596439,8.06225774829855,28.160255680657446,21.095023109728988,16.5,14.0,19.0,8.5,11.5,2.5,3.5,3.1622776601683795,3.1622776601683795,3.0,20.0,10.0,17.26267650163207,101.96568050084302,102.3132444994293,102.04410811016969,97.0051545022222
197,47,508,0,16.95026666666647,11.0,34.23448553724738,4.123105625617661,7.0710678118654755,11.180339887498949,12.165525060596439,8.0,30.066592756745816,23.021728866442675,17.5,15.0,19.0,9.0,13.0,4.0,4.0,3.0,3.1622776601683795,3.0,19.0,9.0,16.76305461424021,103.69667304209909,104.23531071570709,104.01922899156675,97.02061636580135
198,47,509,0,16.983633333333135,8.0,36.49657518178932,5.0990195135927845,7.0710678118654755,10.198039027185569,11.045361017187261,8.06225774829855,28.160255680657446,21.095023109728988,17.0,14.0,20.0,9.0,11.0,3.0,3.0,3.1622776601683795,3.1622776601683795,2.5,20.0,10.0,15.297058540778355,100.84145972763385,102.39628899525607,101.07917688624102,97.0
199,47,510,0,17.0169999999998,9.055385138137417,35.510561809129406,5.0990195135927845,7.0,10.04987562112089,12.041594578792296,8.06225774829855,29.154759474226502,22.20360331117452,17.5,14.0,20.0,9.0,12.0,3.0,4.0,4.123105625617661,4.0,4.0,21.0,11.0,16.492422502470642,103.81714694596457,104.30723848324239,104.04326023342406,98.00510190801293
200,47,511,0,17.050366666666466,9.055385138137417,34.36568055487916,4.0,7.280109889280518,10.198039027185569,12.165525060596439,9.219544457292887,29.427877939124322,22.20360331117452,17.5,14.0,19.0,7.5,12.5,3.5,2.5,3.1622776601683795,3.1622776601683795,3.0,21.0,11.0,16.76305461424021,103.9471019317037,104.30723848324239,105.04284840006957,99.00505037623081
201,47,512,0,17.083733333333132,9.219544457292887,35.35533905932738,5.0,7.0710678118654755,10.04987562112089,11.045361017187261,8.246211251235321,29.427877939124322,22.360679774997898,17.5,14.0,19.0,8.5,12.5,4.5,3.5,3.1622776601683795,4.123105625617661,4.0,21.0,11.0,18.027756377319946,106.47065323364932,108.11567878897121,107.0,100.07996802557443
202,47,513,0,17.117099999999798,8.246211251235321,35.35533905932738,4.0,8.06225774829855,10.198039027185569,11.045361017187261,9.219544457292887,29.427877939124322,21.37755832643195,17.0,14.0,19.0,7.5,12.5,3.5,2.5,3.1622776601683795,3.1622776601683795,3.0,21.0,10.0,15.811388300841896,103.58571330062848,105.11898020814318,105.0,98.08159868191383
203,47,514,0,17.150466666666464,8.246211251235321,35.35533905932738,4.0,8.06225774829855,10.198039027185569,11.045361017187261,9.219544457292887,29.427877939124322,21.37755832643195,17.0,14.0,19.0,7.5,12.5,3.5,2.5,3.1622776601683795,3.1622776601683795,3.0,21.0,10.0,15.811388300841896,103.58571330062848,105.11898020814318,105.0,98.08159868191383
204,47,515,0,17.18383333333313,8.06225774829855,35.510561809129406,5.0990195135927845,8.06225774829855,10.198039027185569,11.045361017187261,8.246211251235321,29.427877939124322,21.37755832643195,17.0,13.0,19.0,8.0,13.0,4.0,2.0,4.123105625617661,4.123105625617661,3.5,21.0,11.0,13.601470508735444,103.81714694596457,106.23088063270491,105.04284840006957,99.00505037623081
205,47,516,0,17.217199999999796,7.0710678118654755,35.510561809129406,5.0990195135927845,8.246211251235321,11.180339887498949,12.041594578792296,8.246211251235321,28.635642126552707,20.396078054371138,16.5,12.0,18.0,7.0,13.0,4.0,2.0,4.123105625617661,3.1622776601683795,3.0,21.0,10.0,15.811388300841896,106.6770828247567,107.16809226630845,106.0,100.07996802557443
206,47,517,0,17.25056666666646,3.1622776601683795,36.345563690772494,4.123105625617661,8.06225774829855,11.180339887498949,12.041594578792296,8.06225774829855,23.345235059857504,15.297058540778355,13.5,12.0,17.0,6.5,8.5,0.5,1.5,4.0,4.0,4.0,21.0,11.0,15.811388300841896,105.80170130957252,107.16809226630845,106.0,100.07996802557443
207,47,518,0,17.283933333333128,2.23606797749979,34.23448553724738,5.0990195135927845,7.0710678118654755,10.04987562112089,11.045361017187261,8.06225774829855,22.360679774997898,15.297058540778355,14.0,13.0,17.0,7.0,7.0,1.0,2.0,3.1622776601683795,3.0,3.0,20.0,10.0,15.811388300841896,105.80170130957252,106.30145812734649,106.04244433244644,100.0
208,47,519,0,17.317299999999793,2.0,35.22782990761707,4.123105625617661,7.0710678118654755,10.04987562112089,10.04987562112089,9.055385138137417,22.20360331117452,15.132745950421556,14.0,12.0,16.0,5.0,8.0,0.0,1.0,3.1622776601683795,3.1622776601683795,3.0,21.0,10.0,16.76305461424021,107.78682665335315,108.16653826391968,107.00467279516349,101.07917688624102
209,47,520,0,17.35066666666646,4.123105625617661,34.23448553724738,4.0,8.06225774829855,10.04987562112089,10.0,8.06225774829855,24.186773244895647,16.1245154965971,14.0,11.0,15.0,5.0,11.0,2.0,1.0,4.123105625617661,3.0,3.5,21.0,11.0,16.76305461424021,105.57461816175325,106.1178590059185,105.0,99.08077512817509
210,47,521,0,17.384033333333125,7.0710678118654755,36.22154055254967,5.0990195135927845,9.055385138137417,9.055385138137417,11.045361017187261,8.246211251235321,29.427877939124322,20.396078054371138,16.5,13.0,17.0,7.0,14.0,5.0,2.0,3.1622776601683795,3.1622776601683795,3.0,21.0,11.0,17.46424919657298,106.7941945987702,108.16653826391968,106.00471687618433,100.04498987955368
211,47,522,0,17.41739999999979,9.219544457292887,34.132096331752024,4.0,8.06225774829855,10.04987562112089,11.0,8.246211251235321,29.427877939124322,21.37755832643195,16.5,13.0,16.0,6.5,14.5,5.5,1.5,4.123105625617661,3.1622776601683795,3.5,21.0,12.0,16.492422502470642,104.6900186264192,105.17128885774862,104.0,98.12746812182611
212,47,523,0,17.450766666666457,6.082762530298219,36.22154055254967,4.123105625617661,8.06225774829855,10.04987562112089,11.045361017187261,9.219544457292887,27.459060435491963,19.4164878389476,16.0,13.0,17.0,6.0,12.0,3.0,1.0,4.123105625617661,4.123105625617661,4.0,20.0,11.0,16.76305461424021,106.6770828247567,108.2266141020775,106.01886624558857,101.01980003939822
213,47,524,0,17.484133333333123,6.082762530298219,36.22154055254967,4.123105625617661,8.06225774829855,10.04987562112089,11.045361017187261,9.219544457292887,27.459060435491963,19.4164878389476,16.0,13.0,17.0,6.0,12.0,3.0,1.0,4.123105625617661,4.123105625617661,4.0,20.0,11.0,16.76305461424021,106.6770828247567,108.2266141020775,106.01886624558857,101.01980003939822
214,47,525,0,17.51749999999979,7.0710678118654755,35.22782990761707,4.0,7.0710678118654755,11.045361017187261,11.0,8.246211251235321,26.30589287593181,19.235384061671343,15.5,12.0,16.0,6.0,12.0,5.0,2.0,5.0990195135927845,4.123105625617661,4.5,22.0,13.0,16.492422502470642,103.40696301506973,104.58011283222064,102.12247548899312,97.0051545022222
215,47,526,0,17.550866666666455,6.082762530298219,35.12833614050059,4.123105625617661,8.06225774829855,10.04987562112089,11.045361017187261,9.219544457292887,27.459060435491963,19.4164878389476,16.0,13.0,16.0,5.5,12.5,3.5,0.5,3.1622776601683795,3.0,3.0,21.0,12.0,18.439088914585774,105.57461816175325,106.1178590059185,104.0,98.04590761474952
216,47,527,0,17.58423333333312,4.123105625617661,35.22782990761707,5.0990195135927845,9.055385138137417,11.180339887498949,12.041594578792296,8.246211251235321,26.476404589747453,17.46424919657298,15.0,12.0,16.0,6.0,12.0,2.0,0.0,3.1622776601683795,4.123105625617661,4.0,21.0,12.0,16.492422502470642,102.95630140987001,104.30723848324239,103.04368005850722,97.0051545022222
217,47,528,0,17.617599999999786,5.0990195135927845,35.22782990761707,5.0990195135927845,9.055385138137417,10.04987562112089,11.0,9.219544457292887,28.442925306655784,19.4164878389476,16.5,13.0,17.0,6.0,13.0,3.0,1.0,4.123105625617661,4.0,4.0,22.0,13.0,16.76305461424021,103.9471019317037,103.31021246711285,102.04410811016969,96.00520819205592
218,47,529,0,17.650966666666452,5.0990195135927845,35.22782990761707,5.0990195135927845,9.055385138137417,10.04987562112089,11.0,9.219544457292887,28.442925306655784,19.4164878389476,16.5,13.0,17.0,6.0,13.0,3.0,1.0,4.123105625617661,4.0,4.0,22.0,13.0,16.76305461424021,103.9471019317037,103.31021246711285,102.04410811016969,96.00520819205592
219,47,530,0,17.684333333333118,3.1622776601683795,35.22782990761707,4.123105625617661,9.055385138137417,10.198039027185569,11.045361017187261,9.055385138137417,25.317977802344327,16.278820596099706,14.5,12.0,16.0,5.0,11.0,1.0,0.0,4.123105625617661,3.1622776601683795,3.5,21.0,11.0,18.439088914585774,105.80170130957252,106.23088063270491,105.01904589168576,97.02061636580135
220,47,531,0,17.717699999999784,1.4142135623730951,35.22782990761707,4.123105625617661,8.06225774829855,11.045361017187261,11.045361017187261,10.04987562112089,23.345235059857504,15.297058540778355,14.5,12.0,16.0,4.0,9.0,0.0,0.0,4.123105625617661,4.123105625617661,4.0,21.0,12.0,16.492422502470642,105.68348972285122,107.22872749408155,106.01886624558857,98.02040603874276
221,47,532,0,17.75106666666645,1.4142135623730951,34.058772731852805,4.0,8.06225774829855,10.04987562112089,11.0,10.198039027185569,23.345235059857504,15.297058540778355,14.5,14.0,16.0,5.0,8.0,1.0,1.0,3.1622776601683795,4.123105625617661,4.0,21.0,12.0,18.439088914585774,103.0970416646375,103.39245620450265,102.07840124139877,97.0
222,47,533,0,17.784433333333116,1.0,35.05709628591621,4.123105625617661,9.219544457292887,10.04987562112089,11.0,9.055385138137417,23.345235059857504,14.142135623730951,13.5,13.0,15.0,5.0,9.0,0.0,1.0,4.123105625617661,3.0,3.5,21.0,12.0,17.72004514666935,105.80170130957252,107.22872749408155,105.00476179678711,98.12746812182611
223,47,534,0,17.81779999999978,1.0,35.05709628591621,4.123105625617661,9.219544457292887,10.04987562112089,11.0,9.055385138137417,23.345235059857504,14.142135623730951,13.5,13.0,15.0,5.0,9.0,0.0,1.0,4.123105625617661,3.0,3.5,21.0,12.0,17.72004514666935,105.80170130957252,107.22872749408155,105.00476179678711,98.12746812182611
224,47,535,0,17.851166666666447,2.23606797749979,35.12833614050059,4.123105625617661,9.055385138137417,10.04987562112089,11.0,8.06225774829855,23.345235059857504,14.317821063276353,13.0,12.0,15.0,5.5,9.5,0.5,1.5,4.123105625617661,4.0,4.0,22.0,13.0,17.72004514666935,103.0970416646375,104.30723848324239,104.01922899156675,97.02061636580135
225,47,536,0,17.884533333333113,3.1622776601683795,34.058772731852805,4.123105625617661,8.06225774829855,10.0,11.0,9.055385138137417,24.331050121192877,16.278820596099706,14.5,12.0,14.0,4.0,11.0,2.0,0.0,4.123105625617661,3.1622776601683795,3.5,22.0,13.0,19.6468827043885,105.92922165295089,107.37783756436893,105.04284840006957,100.0199980003999
226,47,537,0,17.91789999999978,3.1622776601683795,34.132096331752024,4.123105625617661,7.0710678118654755,10.04987562112089,10.04987562112089,10.04987562112089,24.331050121192877,17.26267650163207,15.5,12.0,15.0,3.5,10.5,2.5,0.5,3.1622776601683795,4.123105625617661,4.0,21.0,12.0,18.439088914585774,105.68348972285122,105.17128885774862,103.0,97.12878049270464
227,47,538,0,17.951266666666445,1.4142135623730951,35.12833614050059,4.123105625617661,7.0710678118654755,10.0,10.0,12.041594578792296,24.331050121192877,17.26267650163207,16.5,13.0,16.0,2.5,9.5,1.5,0.5,5.0990195135927845,4.123105625617661,4.5,21.0,12.0,19.4164878389476,104.80935072788114,104.17293314484334,102.00490184299969,96.04686356149273
228,47,539,0,17.98463333333311,1.4142135623730951,35.12833614050059,4.123105625617661,7.0710678118654755,9.0,11.0,12.041594578792296,24.331050121192877,17.26267650163207,16.5,13.0,16.0,2.5,9.5,1.5,0.5,5.0990195135927845,4.123105625617661,4.5,21.0,12.0,17.46424919657298,105.68348972285122,105.17128885774862,104.0,97.12878049270464
229,47,540,0,18.017999999999777,1.4142135623730951,36.124783736376884,4.123105625617661,6.082762530298219,10.0,11.045361017187261,11.045361017187261,22.360679774997898,16.278820596099706,15.5,12.0,15.0,2.5,8.5,1.5,0.5,4.123105625617661,4.123105625617661,4.5,19.0,12.0,19.4164878389476,106.06601717798213,105.38500842150178,104.0768946500615,98.0
230,47,541,0,18.051366666666443,1.0,35.05709628591621,4.123105625617661,7.0710678118654755,10.0,11.045361017187261,11.045361017187261,23.194827009486403,16.1245154965971,15.5,12.0,14.0,2.0,10.0,2.0,1.0,4.123105625617661,4.123105625617661,4.0,20.0,12.0,18.439088914585774,108.90362712049586,108.2266141020775,106.01886624558857,100.04498987955368
231,47,542,0,18.08473333333311,1.4142135623730951,35.014282800023196,4.0,8.06225774829855,10.0,11.0,10.198039027185569,23.345235059857504,15.297058540778355,14.5,12.0,13.0,2.5,10.5,2.5,1.5,4.123105625617661,3.0,3.5,20.0,12.0,17.46424919657298,105.92922165295089,106.38138934982942,105.04284840006957,100.04498987955368
232,47,543,0,18.11809999999977,1.4142135623730951,36.05551275463989,4.0,8.06225774829855,10.0,11.0,10.198039027185569,23.345235059857504,15.297058540778355,14.5,12.0,14.0,3.0,10.0,2.0,1.0,4.123105625617661,4.123105625617661,4.5,20.0,13.0,18.24828759089466,107.05606008068857,106.38138934982942,105.04284840006957,100.0199980003999
233,47,544,0,18.15146666666644,1.4142135623730951,36.05551275463989,4.0,8.06225774829855,10.0,11.0,10.198039027185569,23.345235059857504,15.297058540778355,14.5,12.0,14.0,3.0,10.0,2.0,1.0,4.123105625617661,4.123105625617661,4.5,20.0,13.0,18.24828759089466,107.05606008068857,106.38138934982942,105.04284840006957,100.0199980003999
234,47,545,0,18.184833333333103,2.0,36.013886210738214,3.1622776601683795,8.06225774829855,11.0,11.0,10.198039027185569,23.345235059857504,15.297058540778355,14.0,12.0,13.0,2.5,10.5,1.5,0.5,4.123105625617661,4.123105625617661,4.5,19.0,12.0,18.439088914585774,108.04628637764465,108.37435120913067,105.04284840006957,99.02019995940222
235,47,546,0,18.21819999999977,2.0,36.013886210738214,4.123105625617661,8.06225774829855,10.0,11.045361017187261,9.219544457292887,23.345235059857504,15.297058540778355,14.0,12.0,13.0,3.5,10.5,2.5,0.5,5.385164807134504,4.0,4.5,19.0,12.0,19.4164878389476,106.92053123698928,106.38138934982942,103.01941564578979,96.04686356149273
236,47,547,0,18.25156666666644,3.0,36.013886210738214,3.1622776601683795,8.06225774829855,11.0,12.041594578792296,9.219544457292887,23.345235059857504,15.297058540778355,13.5,12.0,13.0,3.5,10.5,2.5,0.5,4.47213595499958,4.0,4.5,20.0,12.0,19.235384061671343,108.04628637764465,107.37783756436893,105.01904589168576,97.02061636580135
237,47,548,0,18.284933333333104,4.123105625617661,36.05551275463989,4.123105625617661,9.055385138137417,10.0,11.0,8.246211251235321,25.495097567963924,16.492422502470642,14.0,11.0,13.0,4.0,13.0,4.0,0.0,5.0990195135927845,3.0,3.5,21.0,13.0,17.46424919657298,108.18964830333815,108.46197490364999,106.07544484940895,99.00505037623081
238,47,549,0,18.31829999999977,4.123105625617661,36.05551275463989,4.123105625617661,9.055385138137417,10.0,11.0,8.246211251235321,25.495097567963924,16.492422502470642,14.0,11.0,13.0,4.0,13.0,4.0,0.0,5.0990195135927845,3.0,3.5,21.0,13.0,17.46424919657298,108.18964830333815,108.46197490364999,106.07544484940895,99.00505037623081
239,47,550,0,18.35166666666644,5.0990195135927845,36.013886210738214,3.1622776601683795,9.055385138137417,11.0,12.0,8.246211251235321,25.495097567963924,16.492422502470642,13.5,11.0,12.0,3.5,13.5,3.5,0.5,5.0990195135927845,3.0,3.5,20.0,12.0,17.46424919657298,107.35455276791944,107.56393447619885,105.07616285342742,100.0
240,47,551,0,18.3850333333331,4.123105625617661,35.014282800023196,3.1622776601683795,9.055385138137417,10.0,12.0,9.486832980505138,25.709920264364882,16.76305461424021,14.0,11.0,12.0,2.5,13.5,4.5,0.5,4.123105625617661,4.0,4.5,20.0,12.0,16.492422502470642,109.17875251164945,107.56393447619885,104.12012293500234,97.0
241,47,552,0,18.418399999999767,3.1622776601683795,35.014282800023196,4.123105625617661,9.055385138137417,10.0,11.0,9.219544457292887,25.495097567963924,16.492422502470642,14.5,11.0,12.0,2.5,13.5,4.5,0.5,4.47213595499958,3.0,3.0,21.0,13.0,16.492422502470642,110.47624178980746,108.664621657649,106.1178590059185,99.0
242,47,553,0,18.45176666666644,2.23606797749979,35.014282800023196,4.0,8.246211251235321,10.0,10.0,9.486832980505138,23.769728648009426,15.524174696260024,14.0,10.0,11.0,1.5,12.5,4.5,1.5,4.123105625617661,3.1622776601683795,3.5,21.0,12.0,17.46424919657298,107.68936809174804,105.68348972285122,102.12247548899312,95.0
243,47,554,0,18.4851333333331,2.23606797749979,35.014282800023196,4.0,8.246211251235321,10.0,10.0,9.486832980505138,23.769728648009426,15.524174696260024,14.0,10.0,11.0,1.5,12.5,4.5,1.5,4.123105625617661,3.1622776601683795,3.5,21.0,12.0,17.46424919657298,107.68936809174804,105.68348972285122,102.12247548899312,95.0
244,47,555,0,18.518499999999765,1.4142135623730951,33.015148038438355,3.0,8.246211251235321,10.0,10.0,9.486832980505138,21.840329667841555,13.601470508735444,12.5,9.0,10.0,0.5,11.5,2.5,1.5,4.123105625617661,3.1622776601683795,3.5,21.0,13.0,17.26267650163207,109.83624174196785,108.77959367454909,107.16809226630845,101.0
245,47,556,0,18.55186666666643,1.4142135623730951,34.0147027033899,3.1622776601683795,8.06225774829855,10.04987562112089,10.0,10.44030650891055,22.80350850198276,14.866068747318506,13.5,10.0,11.0,0.5,11.5,2.5,1.5,4.47213595499958,3.1622776601683795,3.5,20.0,12.0,17.46424919657298,109.65856099730654,109.77249200050075,107.11675872616759,100.00499987500625
246,47,557,0,18.585233333333097,1.4142135623730951,36.013886210738214,3.0,7.280109889280518,10.0,10.04987562112089,10.44030650891055,21.840329667841555,14.560219778561036,13.5,9.0,10.0,0.5,11.5,3.5,2.5,4.47213595499958,4.0,4.5,20.0,12.0,16.492422502470642,109.65856099730654,108.90362712049586,105.23307464861035,98.04590761474952
247,47,558,0,18.618599999999763,3.0,34.0147027033899,2.23606797749979,7.280109889280518,9.0,10.0,10.44030650891055,22.80350850198276,15.524174696260024,13.5,10.0,11.0,0.5,11.5,3.5,1.5,4.123105625617661,4.0,4.0,20.0,13.0,16.278820596099706,108.50345616615168,107.78682665335315,104.30723848324239,97.082439194738
248,47,559,0,18.65196666666643,3.0,34.0147027033899,2.23606797749979,7.280109889280518,9.0,10.0,10.44030650891055,22.80350850198276,15.524174696260024,13.5,10.0,11.0,0.5,11.5,3.5,1.5,4.123105625617661,4.0,4.0,20.0,13.0,16.278820596099706,108.50345616615168,107.78682665335315,104.30723848324239,97.082439194738
249,47,560,0,18.68533333333309,2.8284271247461903,36.0,2.23606797749979,7.0710678118654755,10.0,11.045361017187261,10.198039027185569,21.840329667841555,14.866068747318506,13.0,9.0,9.0,1.0,12.0,4.0,3.0,4.123105625617661,4.123105625617661,4.0,20.0,13.0,18.24828759089466,108.67382389517726,107.91200118615167,105.30432089900205,98.08159868191383
250,47,561,0,18.71869999999976,2.23606797749979,37.013511046643494,3.0,7.280109889280518,10.0,11.045361017187261,9.848857801796104,22.135943621178654,14.866068747318506,13.0,9.0,10.0,0.5,11.5,4.5,2.5,5.0990195135927845,4.0,4.5,20.0,12.0,19.235384061671343,109.83624174196785,108.90362712049586,105.30432089900205,98.04590761474952
251,47,562,0,18.752066666666423,2.23606797749979,36.013886210738214,3.1622776601683795,7.280109889280518,10.0,10.0,9.486832980505138,22.135943621178654,14.866068747318506,13.0,9.0,10.0,0.5,11.5,4.5,2.5,5.0990195135927845,4.0,4.0,20.0,13.0,17.26267650163207,108.67382389517726,107.91200118615167,105.30432089900205,98.04590761474952
252,47,563,0,18.78543333333309,2.23606797749979,37.013511046643494,3.1622776601683795,7.0710678118654755,10.04987562112089,11.045361017187261,9.486832980505138,21.840329667841555,14.866068747318506,13.0,8.0,9.0,0.5,12.5,4.5,2.5,4.123105625617661,4.0,4.0,20.0,13.0,17.26267650163207,110.64357188738983,109.77249200050075,107.16809226630845,102.0
253,47,564,0,18.81879999999976,2.23606797749979,30.0,3.0,6.0,8.0,9.0,7.280109889280518,18.24828759089466,12.36931687685298,11.0,10.0,10.0,3.0,8.0,2.0,0.0,2.0,2.0,2.5,15.0,11.0,14.142135623730951,86.46964785403026,88.09086218218096,86.00581375697809,80.09993757800315
254,47,565,0,18.852166666666424,2.23606797749979,31.0,3.0,7.0,8.0,9.0,8.246211251235321,20.223748416156685,13.341664064126334,12.0,10.0,10.0,2.0,10.0,3.0,1.0,2.23606797749979,3.0,3.0,15.0,12.0,15.132745950421556,87.36704184073076,89.05054744357274,87.02298546935747,80.15609770940699
255,47,566,0,18.88553333333309,2.23606797749979,30.0,3.0,7.0710678118654755,8.06225774829855,9.0,8.246211251235321,20.396078054371138,13.341664064126334,12.0,10.0,10.0,2.0,10.0,3.0,1.0,2.23606797749979,2.0,2.5,14.0,11.0,15.033296378372908,88.2779700718135,88.05112151472007,86.00581375697809,80.15609770940699
256,47,567,0,18.91889999999976,2.0,30.0,3.1622776601683795,7.0710678118654755,8.0,9.055385138137417,7.280109889280518,19.4164878389476,12.36931687685298,11.0,9.0,9.0,2.0,10.0,3.0,1.0,2.23606797749979,2.0,2.5,14.0,11.0,14.142135623730951,88.20430828479978,88.02272433866155,87.05170877128145,80.22468448052632
257,47,568,0,18.95226666666642,2.23606797749979,30.0,3.1622776601683795,7.0,8.06225774829855,9.0,8.246211251235321,20.396078054371138,13.601470508735444,12.0,10.0,10.0,2.0,10.0,3.0,1.0,2.23606797749979,2.23606797749979,2.5,14.0,11.0,13.152946437965905,86.28441342444185,86.02325267042627,84.0535543567314,79.1580697086532
258,47,569,0,18.985633333333087,2.23606797749979,30.0,3.1622776601683795,7.0,8.06225774829855,9.0,8.246211251235321,20.396078054371138,13.601470508735444,12.0,10.0,10.0,2.0,10.0,3.0,1.0,2.23606797749979,2.23606797749979,2.5,14.0,11.0,13.152946437965905,86.28441342444185,86.02325267042627,84.0535543567314,79.1580697086532
259,47,570,0,19.01899999999976,2.23606797749979,30.0,3.1622776601683795,7.0,8.06225774829855,9.0,8.246211251235321,20.396078054371138,13.601470508735444,12.0,10.0,10.0,2.0,10.0,3.0,1.0,2.23606797749979,2.23606797749979,2.5,14.0,11.0,13.152946437965905,86.28441342444185,86.02325267042627,84.0535543567314,79.1580697086532
260,47,571,0,19.05236666666642,2.23606797749979,30.0,3.1622776601683795,7.0,8.06225774829855,9.0,8.246211251235321,20.396078054371138,13.601470508735444,12.0,10.0,10.0,2.0,10.0,3.0,1.0,2.23606797749979,2.23606797749979,2.5,14.0,11.0,13.152946437965905,86.28441342444185,86.02325267042627,84.0535543567314,79.1580697086532
261,47,572,0,19.085733333333085,2.23606797749979,30.0,3.0,6.082762530298219,8.0,8.06225774829855,7.280109889280518,18.439088914585774,12.36931687685298,11.0,9.0,9.0,2.0,9.0,2.0,1.0,2.0,2.0,2.5,14.0,11.0,14.142135623730951,87.28115489611719,89.05054744357274,87.02298546935747,80.15609770940699
262,47,573,0,19.11909999999975,2.23606797749979,31.0,3.0,7.0,8.0,9.055385138137417,7.615773105863909,19.4164878389476,12.649110640673518,11.0,9.0,9.0,2.0,10.0,3.0,1.0,2.0,2.0,2.5,14.0,11.0,14.142135623730951,87.36704184073076,87.05170877128145,86.00581375697809,80.15609770940699
263,47,574,0,19.152466666666417,2.0,31.0,3.1622776601683795,7.0710678118654755,8.0,9.0,7.280109889280518,19.4164878389476,12.36931687685298,11.0,9.0,9.0,2.0,10.0,3.0,1.0,2.0,2.0,2.5,14.0,11.0,14.142135623730951,87.28115489611719,88.02272433866155,87.02298546935747,80.22468448052632
264,47,575,0,19.185833333333083,2.0,31.0,3.1622776601683795,6.082762530298219,8.0,9.0,7.280109889280518,18.439088914585774,12.36931687685298,11.0,9.0,9.0,2.0,9.0,3.0,1.0,2.0,2.23606797749979,2.5,14.0,11.0,14.142135623730951,87.36704184073076,87.05170877128145,85.0235261559999,80.15609770940699
265,47,576,0,19.21919999999975,2.0,31.0,3.1622776601683795,6.082762530298219,8.0,9.055385138137417,7.280109889280518,18.439088914585774,12.36931687685298,11.0,9.0,9.0,2.0,9.0,3.0,1.0,2.0,2.23606797749979,2.0,14.0,11.0,14.142135623730951,87.28115489611719,87.05170877128145,85.00588214941364,80.15609770940699
266,47,577,0,19.25256666666641,3.0,31.0,3.1622776601683795,7.0710678118654755,8.0,9.0,7.280109889280518,20.396078054371138,13.341664064126334,11.5,9.0,9.0,2.0,11.0,4.0,1.0,2.0,2.23606797749979,2.0,14.0,11.0,14.035668847618199,88.36288813749809,88.05112151472007,86.00581375697809,81.09870529176159
267,47,578,0,19.28593333333308,3.1622776601683795,31.0,3.0,6.0,8.0,9.0,7.280109889280518,19.235384061671343,13.341664064126334,11.5,9.0,9.0,2.0,10.0,3.0,1.0,2.0,2.0,2.0,14.0,11.0,14.142135623730951,87.28115489611719,88.05112151472007,87.02298546935747,81.15417426109393
268,47,579,0,19.319299999999743,2.0,31.0,3.1622776601683795,6.082762530298219,9.0,9.055385138137417,7.280109889280518,18.439088914585774,12.36931687685298,11.0,9.0,9.0,2.0,9.0,3.0,1.0,2.0,2.23606797749979,2.5,14.0,11.0,14.142135623730951,87.28115489611719,89.02246907382428,87.05170877128145,80.22468448052632
269,47,580,0,19.35266666666641,2.23606797749979,30.01666203960727,3.1622776601683795,7.0,9.0,9.0,7.280109889280518,19.4164878389476,12.649110640673518,11.0,9.0,10.0,2.5,9.5,2.5,0.5,2.23606797749979,2.0,2.0,14.0,11.0,14.035668847618199,87.20665112249179,87.05170877128145,85.0235261559999,80.15609770940699
270,47,581,0,19.38603333333308,2.23606797749979,30.0,3.0,6.0,8.0,9.0,7.280109889280518,18.24828759089466,12.36931687685298,11.0,9.0,9.0,2.0,9.0,3.0,1.0,2.0,2.23606797749979,2.5,13.0,11.0,14.142135623730951,88.14193099768123,89.02246907382428,87.05170877128145,81.15417426109393
271,47,582,0,19.419399999999744,2.0,30.0,3.1622776601683795,7.0710678118654755,8.0,9.0,7.0710678118654755,19.235384061671343,12.165525060596439,11.0,9.0,9.0,2.0,10.0,3.0,1.0,2.0,2.0,2.5,14.0,11.0,13.038404810405298,88.2779700718135,89.02246907382428,86.02325267042627,80.22468448052632
272,47,583,0,19.45276666666641,2.0,31.0,3.1622776601683795,7.0710678118654755,8.0,9.055385138137417,7.280109889280518,19.4164878389476,12.36931687685298,11.0,9.0,9.0,2.0,10.0,3.0,1.0,2.0,2.23606797749979,2.5,14.0,11.0,14.142135623730951,87.20665112249179,87.02298546935747,85.0235261559999,80.15609770940699
273,47,584,0,19.48613333333308,2.0,31.0,3.1622776601683795,7.0710678118654755,8.0,9.055385138137417,7.280109889280518,19.4164878389476,12.36931687685298,11.0,9.0,9.0,2.0,10.0,3.0,1.0,2.0,2.23606797749979,2.5,14.0,11.0,14.142135623730951,87.20665112249179,87.02298546935747,85.0235261559999,80.15609770940699
274,47,585,0,19.51949999999974,3.0,31.0,3.1622776601683795,7.0710678118654755,8.0,9.055385138137417,7.280109889280518,20.396078054371138,13.341664064126334,11.5,10.0,10.0,3.0,10.0,3.0,0.0,2.0,2.23606797749979,2.0,14.0,11.0,14.142135623730951,89.20201791439474,89.00561780022652,87.05170877128145,81.2219182240853
275,47,586,0,19.552866666666407,4.0,31.016124838541646,3.1622776601683795,5.0990195135927845,8.0,10.0,8.246211251235321,20.396078054371138,15.297058540778355,13.0,11.0,12.0,3.5,8.5,2.5,0.5,2.0,2.23606797749979,2.0,15.0,12.0,15.033296378372908,87.28115489611719,88.02272433866155,86.02325267042627,81.15417426109393
276,47,587,0,19.58623333333308,4.123105625617661,31.016124838541646,3.0,7.0710678118654755,9.0,10.0,8.246211251235321,22.360679774997898,15.297058540778355,13.0,11.0,12.0,3.5,10.5,3.5,0.5,2.0,2.0,2.0,15.0,12.0,15.132745950421556,87.28115489611719,87.02298546935747,85.0235261559999,80.15609770940699
277,47,588,0,19.61959999999974,3.1622776601683795,32.0624390837628,4.0,7.0,9.055385138137417,10.0,7.280109889280518,21.213203435596427,14.317821063276353,12.5,10.0,12.0,4.0,10.0,3.0,0.0,1.4142135623730951,2.0,2.0,16.0,12.0,17.11724276862369,85.28774824088158,87.02298546935747,86.02325267042627,81.09870529176159
278,47,589,0,19.652966666666405,3.1622776601683795,32.0624390837628,4.0,7.0,9.055385138137417,10.0,7.280109889280518,21.213203435596427,14.317821063276353,12.5,10.0,12.0,4.0,10.0,3.0,0.0,1.4142135623730951,2.0,2.0,16.0,12.0,17.11724276862369,85.28774824088158,87.02298546935747,86.02325267042627,81.09870529176159
279,47,590,0,19.68633333333307,4.0,33.06055050963308,3.1622776601683795,6.082762530298219,10.0,10.0,7.0710678118654755,20.223748416156685,14.142135623730951,12.0,10.0,12.0,4.0,9.0,3.0,1.0,1.0,1.0,1.0,16.0,11.0,15.132745950421556,86.37129152675674,87.09190547921202,85.00588214941364,81.02468759581859
280,47,591,0,19.719699999999737,3.0,32.14031735997639,3.1622776601683795,6.082762530298219,10.04987562112089,10.0,9.055385138137417,21.213203435596427,15.132745950421556,13.5,11.0,14.0,3.5,8.5,1.5,0.5,2.23606797749979,2.0,2.0,16.0,11.0,15.297058540778355,87.46427842267951,87.14355971613737,86.00581375697809,81.05553651663777
281,47,592,0,19.753066666666403,2.0,30.14962686336267,4.123105625617661,6.082762530298219,9.0,10.0,8.06225774829855,20.223748416156685,14.142135623730951,13.0,11.0,14.0,4.5,7.5,0.5,1.5,2.23606797749979,2.0,2.0,17.0,10.0,15.297058540778355,85.70880934886448,85.21150157109074,84.0535543567314,79.00632886041473
282,47,593,0,19.78643333333307,2.0,29.154759474226502,4.123105625617661,6.082762530298219,8.06225774829855,9.0,9.055385138137417,21.213203435596427,15.132745950421556,14.0,12.0,15.0,4.5,7.5,0.5,0.5,3.1622776601683795,3.0,3.0,18.0,10.0,17.26267650163207,88.68483523128404,88.20430828479978,87.00574693662483,82.05485969764375
283,47,594,0,19.81979999999973,2.0,29.154759474226502,4.123105625617661,7.0710678118654755,8.06225774829855,9.055385138137417,9.055385138137417,22.20360331117452,15.132745950421556,14.0,12.0,15.0,4.5,8.5,0.5,0.5,3.0,3.0,3.5,18.0,9.0,16.492422502470642,88.56635930193812,88.20430828479978,87.00574693662483,82.02438661763951
284,47,595,0,19.8531666666664,3.1622776601683795,29.274562336608895,3.1622776601683795,6.082762530298219,8.06225774829855,10.0,9.055385138137417,21.37755832643195,15.297058540778355,13.5,11.0,15.0,4.0,8.0,1.0,1.0,3.1622776601683795,3.1622776601683795,3.0,18.0,9.0,16.492422502470642,87.96590248499699,87.28115489611719,87.02298546935747,82.00609733428362
285,47,596,0,19.886533333333063,1.0,28.160255680657446,4.123105625617661,7.0710678118654755,8.06225774829855,9.055385138137417,10.04987562112089,22.20360331117452,15.132745950421556,14.5,12.0,15.0,3.5,8.5,0.5,0.5,3.1622776601683795,3.1622776601683795,3.0,18.0,9.0,15.524174696260024,87.82368700982668,87.28115489611719,87.05170877128145,83.00602387778854
286,47,597,0,19.91989999999973,3.0,27.16615541441225,3.1622776601683795,7.0710678118654755,8.06225774829855,9.055385138137417,10.04987562112089,23.194827009486403,16.1245154965971,14.5,12.0,15.0,3.5,9.5,1.5,0.5,2.0,3.1622776601683795,3.0,18.0,9.0,14.560219778561036,86.14522621712709,85.58621384311844,85.21150157109074,80.02499609497022
287,47,598,0,19.9532666666664,3.0,27.294688127912362,3.1622776601683795,6.082762530298219,7.0710678118654755,8.06225774829855,10.04987562112089,22.20360331117452,16.1245154965971,14.5,12.0,16.0,4.0,8.0,1.0,0.0,3.1622776601683795,3.1622776601683795,3.0,19.0,10.0,16.492422502470642,86.97700845625813,88.36288813749809,87.05170877128145,83.00602387778854
288,47,599,0,19.986633333333064,4.123105625617661,27.16615541441225,3.1622776601683795,5.0990195135927845,7.0,8.0,10.04987562112089,22.360679774997898,17.26267650163207,15.0,12.0,15.0,3.5,8.5,2.5,0.5,3.1622776601683795,3.1622776601683795,3.0,19.0,10.0,14.560219778561036,86.97700845625813,88.36288813749809,87.09190547921202,81.0
289,47,600,0,20.01999999999973,4.123105625617661,29.154759474226502,4.0,7.0710678118654755,7.0710678118654755,8.06225774829855,9.219544457292887,24.331050121192877,17.26267650163207,15.0,12.0,15.0,4.5,10.5,2.5,0.5,3.1622776601683795,2.0,3.0,17.0,9.0,14.560219778561036,84.17244204607586,84.71717653463199,83.21658488546619,79.05694150420949
290,47,601,0,20.053366666666395,5.0990195135927845,30.265491900843113,4.123105625617661,7.0710678118654755,8.06225774829855,9.055385138137417,9.055385138137417,25.317977802344327,18.24828759089466,15.5,12.0,16.0,5.0,11.0,3.0,0.0,3.1622776601683795,3.1622776601683795,3.5,17.0,9.0,15.524174696260024,83.02409288875127,83.48652585896721,83.15046602394962,79.02531240052139
291,47,602,0,20.08673333333306,4.0,31.144823004794873,4.123105625617661,7.0710678118654755,8.0,9.055385138137417,8.06225774829855,23.194827009486403,16.1245154965971,14.0,11.0,14.0,4.5,10.5,3.5,0.5,3.1622776601683795,3.1622776601683795,3.0,18.0,9.0,15.297058540778355,85.0,84.48076704197234,84.1486779456457,80.00624975587844
292,47,603,0,20.120099999999727,5.0990195135927845,31.144823004794873,3.0,7.0710678118654755,9.055385138137417,9.0,8.246211251235321,23.345235059857504,16.278820596099706,13.5,10.0,13.0,3.5,11.5,3.5,0.5,3.1622776601683795,2.23606797749979,2.5,17.0,9.0,15.524174696260024,84.01190391843289,85.47514258543241,84.1486779456457,80.02499609497022
293,47,604,0,20.1534666666664,5.0990195135927845,31.144823004794873,3.0,7.0710678118654755,9.055385138137417,9.0,8.246211251235321,23.345235059857504,16.278820596099706,13.5,10.0,13.0,3.5,11.5,3.5,0.5,3.1622776601683795,2.23606797749979,2.5,17.0,9.0,15.524174696260024,84.01190391843289,85.47514258543241,84.1486779456457,80.02499609497022
294,47,605,0,20.18683333333306,3.1622776601683795,29.154759474226502,4.123105625617661,7.0710678118654755,8.06225774829855,9.0,8.246211251235321,22.561028345356956,15.524174696260024,13.5,10.0,13.0,3.5,10.5,2.5,0.5,3.0,3.0,3.0,18.0,10.0,15.524174696260024,86.83317338436964,87.36704184073076,86.02325267042627,82.02438661763951
295,47,606,0,20.220199999999725,3.1622776601683795,30.14962686336267,4.123105625617661,7.0710678118654755,8.06225774829855,9.055385138137417,8.06225774829855,22.360679774997898,15.297058540778355,13.5,10.0,13.0,3.5,10.5,2.5,0.5,3.1622776601683795,3.1622776601683795,2.5,18.0,10.0,14.560219778561036,87.96590248499699,88.36288813749809,87.05170877128145,83.00602387778854
296,47,607,0,20.25356666666639,3.1622776601683795,30.14962686336267,4.123105625617661,6.082762530298219,8.06225774829855,9.055385138137417,8.06225774829855,21.37755832643195,15.297058540778355,13.5,10.0,13.0,3.5,9.5,2.5,0.5,3.0,2.23606797749979,2.0,18.0,9.0,15.524174696260024,86.83317338436964,87.28115489611719,86.02325267042627,81.00617260431454
297,47,608,0,20.286933333333057,2.23606797749979,30.14962686336267,3.1622776601683795,7.0710678118654755,8.06225774829855,9.055385138137417,9.055385138137417,21.37755832643195,14.317821063276353,13.0,10.0,13.0,2.5,9.5,1.5,0.5,3.1622776601683795,3.1622776601683795,3.0,17.0,8.0,13.601470508735444,87.13208364316786,88.45903006477066,87.09190547921202,81.00617260431454
298,47,609,0,20.32029999999972,2.0,29.154759474226502,3.1622776601683795,7.0710678118654755,8.06225774829855,8.06225774829855,9.219544457292887,21.37755832643195,14.317821063276353,13.0,10.0,13.0,2.5,9.5,1.5,0.5,4.123105625617661,3.0,3.0,17.0,8.0,14.866068747318506,88.95504482602435,88.36288813749809,88.05112151472007,84.00595217006948
299,47,610,0,20.35366666666639,2.23606797749979,29.154759474226502,2.23606797749979,7.0710678118654755,8.06225774829855,9.055385138137417,10.198039027185569,21.587033144922902,14.560219778561036,13.0,10.0,13.0,1.5,9.5,1.5,0.5,3.1622776601683795,2.23606797749979,2.5,16.0,9.0,14.560219778561036,79.76214641043707,80.22468448052632,78.00640999302557,74.10802925459562
300,47,611,0,20.38703333333305,1.4142135623730951,31.144823004794873,3.1622776601683795,6.082762530298219,7.0710678118654755,8.06225774829855,10.04987562112089,20.396078054371138,14.317821063276353,13.5,10.0,13.0,1.5,8.5,1.5,1.5,3.1622776601683795,2.0,2.5,17.0,9.0,15.811388300841896,87.69264507357501,88.20430828479978,87.00574693662483,81.05553651663777
301,47,612,0,20.42039999999972,1.4142135623730951,30.265491900843113,3.0,5.0990195135927845,8.06225774829855,9.0,10.04987562112089,19.235384061671343,14.142135623730951,13.5,10.0,14.0,2.0,7.0,1.0,1.0,3.1622776601683795,3.0,3.0,17.0,9.0,15.524174696260024,86.57944328765345,87.20665112249179,86.0,82.05485969764375
302,47,613,0,20.453766666666382,1.4142135623730951,30.265491900843113,3.0,6.082762530298219,7.0710678118654755,9.0,10.198039027185569,20.396078054371138,14.317821063276353,13.5,10.0,14.0,2.0,8.0,1.0,1.0,3.1622776601683795,3.1622776601683795,3.0,17.0,9.0,15.524174696260024,88.45903006477066,89.08984229416954,87.00574693662483,82.15229759416349
303,47,614,0,20.48713333333305,1.4142135623730951,30.265491900843113,3.0,6.082762530298219,7.0710678118654755,9.0,10.198039027185569,20.396078054371138,14.317821063276353,13.5,10.0,14.0,2.0,8.0,1.0,1.0,3.1622776601683795,3.1622776601683795,3.0,17.0,9.0,15.524174696260024,88.45903006477066,89.08984229416954,87.00574693662483,82.15229759416349
304,47,615,0,20.52049999999972,1.4142135623730951,30.265491900843113,3.0,6.082762530298219,7.0710678118654755,8.06225774829855,10.04987562112089,20.223748416156685,14.142135623730951,13.5,10.0,14.0,2.0,8.0,1.0,1.0,3.0,3.1622776601683795,3.0,17.0,9.0,16.278820596099706,86.57944328765345,86.14522621712709,85.00588214941364,81.15417426109393
305,47,616,0,20.553866666666384,2.0,29.154759474226502,3.1622776601683795,6.082762530298219,8.06225774829855,9.055385138137417,9.055385138137417,20.223748416156685,14.142135623730951,13.0,10.0,13.0,2.5,8.5,1.5,0.5,2.0,3.1622776601683795,2.5,18.0,10.0,16.492422502470642,86.46964785403026,87.09190547921202,85.00588214941364,80.15609770940699
306,47,617,0,20.58723333333305,2.0,32.14031735997639,2.23606797749979,6.082762530298219,8.0,9.0,10.04987562112089,20.223748416156685,14.142135623730951,13.0,11.0,14.0,2.5,7.5,0.5,0.5,3.1622776601683795,3.0,3.0,17.0,10.0,15.297058540778355,86.37129152675674,86.09297300012354,86.02325267042627,81.15417426109393
307,47,618,0,20.620599999999715,2.0,31.064449134018133,3.0,6.082762530298219,8.06225774829855,9.055385138137417,9.055385138137417,20.09975124224178,14.035668847618199,13.0,11.0,13.0,3.0,8.0,1.0,0.0,2.23606797749979,3.1622776601683795,3.0,17.0,10.0,15.297058540778355,86.37129152675674,87.05170877128145,87.02298546935747,82.15229759416349
308,47,619,0,20.65396666666638,2.0,31.064449134018133,3.0,6.082762530298219,8.0,9.055385138137417,9.055385138137417,20.09975124224178,14.035668847618199,13.0,11.0,13.0,3.0,8.0,1.0,0.0,3.0,3.1622776601683795,3.0,17.0,10.0,15.297058540778355,86.28441342444185,87.02298546935747,87.02298546935747,82.21921916437786
309,47,620,0,20.687333333333047,2.0,30.066592756745816,3.0,6.082762530298219,8.0,9.0,9.0,20.024984394500787,14.0,13.0,11.0,13.0,3.0,8.0,1.0,0.0,3.1622776601683795,3.1622776601683795,3.0,17.0,10.0,16.278820596099706,86.20904824900923,88.0056816347672,88.05112151472007,82.29823813423954
310,47,621,0,20.72069999999972,1.4142135623730951,30.01666203960727,3.0,7.0,8.06225774829855,9.0,10.04987562112089,21.095023109728988,14.142135623730951,13.5,12.0,13.0,2.5,8.5,1.5,0.5,3.0,3.0,3.0,16.0,11.0,16.492422502470642,88.20430828479978,89.00561780022652,87.09190547921202,83.21658488546619
311,47,622,0,20.75406666666638,1.0,30.01666203960727,4.123105625617661,7.0,9.0,9.055385138137417,9.055385138137417,20.024984394500787,13.038404810405298,13.0,12.0,13.0,3.5,7.5,0.5,0.5,4.0,2.0,2.5,17.0,11.0,18.24828759089466,86.09297300012354,87.0,87.20665112249179,81.49846624323675
312,47,623,0,20.787433333333045,1.0,28.0178514522438,3.1622776601683795,7.0,8.0,8.06225774829855,10.0,21.02379604162864,14.035668847618199,13.5,12.0,13.0,2.5,8.5,1.5,0.5,3.0,3.0,2.5,17.0,11.0,16.278820596099706,82.29823813423954,82.05485969764375,82.00609733428362,77.1621668954417
313,47,624,0,20.82079999999971,1.0,29.0,3.1622776601683795,7.0,8.0,8.06225774829855,10.0,21.02379604162864,14.035668847618199,13.5,13.0,13.0,3.0,8.0,1.0,0.0,3.1622776601683795,3.0,3.0,17.0,11.0,17.26267650163207,87.09190547921202,87.00574693662483,86.20904824900923,80.62257748298549
314,47,625,0,20.854166666666377,1.0,29.017236257093817,3.0,7.0710678118654755,7.0,8.0,10.04987562112089,21.095023109728988,14.035668847618199,13.5,12.0,13.0,2.5,8.5,1.5,0.5,3.1622776601683795,3.0,3.5,16.0,11.0,16.278820596099706,83.21658488546619,83.00602387778854,83.02409288875127,78.16009211867653
315,47,626,0,20.88753333333304,0.0,28.0178514522438,3.1622776601683795,7.0,7.0,8.06225774829855,11.0,21.02379604162864,14.035668847618199,14.0,13.0,14.0,2.5,7.5,0.5,0.5,3.0,3.0,3.0,15.0,11.0,16.278820596099706,83.21658488546619,84.00595217006948,84.0535543567314,79.22752047110903
316,47,627,0,20.92089999999971,1.0,30.0,3.0,7.0,8.0,9.055385138137417,11.045361017187261,22.02271554554524,15.033296378372908,14.5,14.0,14.0,3.0,8.0,1.0,0.0,3.0,2.0,2.5,15.0,11.0,16.278820596099706,83.05419917138447,84.00595217006948,82.15229759416349,78.40918313565064
317,47,628,0,20.95426666666637,1.0,29.017236257093817,3.0,7.0,7.0,8.0,11.045361017187261,22.02271554554524,15.033296378372908,14.5,14.0,13.0,2.5,8.5,1.5,0.5,3.0,3.0,2.5,14.0,11.0,17.11724276862369,83.05419917138447,84.00595217006948,82.15229759416349,77.41446893184762
318,47,629,0,20.98763333333304,1.0,29.017236257093817,3.0,7.0,7.0,8.0,11.045361017187261,22.02271554554524,15.033296378372908,14.5,14.0,13.0,2.5,8.5,1.5,0.5,3.0,3.0,2.5,14.0,11.0,17.11724276862369,83.05419917138447,84.00595217006948,82.15229759416349,77.41446893184762
319,47,630,0,21.020999999999702,1.0,30.01666203960727,4.123105625617661,6.0,7.0,8.0,9.0,20.024984394500787,14.035668847618199,13.5,13.0,12.0,3.5,7.5,1.5,0.5,3.0,2.0,2.0,15.0,12.0,16.1245154965971,85.0235261559999,86.05230967266364,84.2140130857092,79.51100552753688
320,47,631,0,21.05436666666637,1.0,30.0,4.123105625617661,6.0,8.0,9.0,9.0,20.024984394500787,14.035668847618199,13.5,13.0,13.0,4.0,7.0,1.0,1.0,2.0,3.0,3.0,14.0,12.0,17.11724276862369,85.0,85.05292469985967,85.28774824088158,80.62257748298549
321,47,632,0,21.08773333333304,2.23606797749979,30.066592756745816,3.0,5.0,7.0,8.0,10.0,20.024984394500787,15.033296378372908,14.0,14.0,12.0,3.0,7.0,2.0,1.0,3.0,2.0,2.0,14.0,12.0,15.132745950421556,85.00588214941364,86.05230967266364,84.2140130857092,79.40403012442127
322,47,633,0,21.121099999999704,5.0990195135927845,31.064449134018133,2.0,5.0,7.0,8.06225774829855,10.0,22.02271554554524,17.029386365926403,14.5,14.0,12.0,3.0,9.0,3.0,1.0,2.0,2.0,2.5,14.0,12.0,15.132745950421556,86.00581375697809,85.05292469985967,84.29116205154607,79.51100552753688
323,47,634,0,21.15446666666637,4.123105625617661,31.064449134018133,3.0,5.0,8.0,9.0,10.0,22.02271554554524,17.029386365926403,15.0,14.0,12.0,3.0,9.0,3.0,1.0,3.0,2.0,2.5,14.0,12.0,15.132745950421556,85.0235261559999,85.0235261559999,84.2140130857092,79.63039620647382
324,47,635,0,21.187833333333035,2.23606797749979,31.016124838541646,3.0,6.0,7.0710678118654755,8.06225774829855,10.0,21.02379604162864,15.033296378372908,14.0,14.0,13.0,3.5,7.5,1.5,1.5,3.0,2.0,2.5,13.0,11.0,14.142135623730951,85.00588214941364,86.05230967266364,85.28774824088158,80.50465825031493
325,47,636,0,21.2211999999997,2.23606797749979,30.066592756745816,3.0,5.0,8.0,8.06225774829855,10.0,20.024984394500787,15.033296378372908,14.0,14.0,12.0,3.0,7.0,2.0,1.0,2.23606797749979,2.0,2.5,13.0,12.0,15.033296378372908,87.0,86.09297300012354,85.47514258543241,80.75270893288967
326,47,637,0,21.254566666666367,2.0,30.066592756745816,3.0,6.0,7.0,9.055385138137417,9.0,20.0,14.0,13.0,13.0,11.0,3.0,8.0,2.0,0.0,2.0,2.0,2.0,13.0,12.0,16.1245154965971,84.0,85.05292469985967,83.2946576918352,79.63039620647382
327,47,638,0,21.28793333333304,2.23606797749979,29.068883707497267,3.0,6.0,8.06225774829855,8.06225774829855,10.0,21.02379604162864,15.033296378372908,14.0,14.0,12.0,3.0,8.0,2.0,1.0,2.0,2.0,2.0,13.0,12.0,16.1245154965971,85.00588214941364,84.0535543567314,83.2946576918352,77.52418977325722
328,47,639,0,21.3212999999997,2.23606797749979,29.068883707497267,3.0,6.0,8.06225774829855,8.06225774829855,10.0,21.02379604162864,15.033296378372908,14.0,14.0,12.0,3.0,8.0,2.0,1.0,2.0,2.0,2.0,13.0,12.0,16.1245154965971,85.00588214941364,84.0535543567314,83.2946576918352,77.52418977325722
329,47,640,0,21.354666666666365,1.0,30.14962686336267,3.0,6.0,8.06225774829855,9.055385138137417,10.0,20.0,14.0,13.5,14.0,11.0,2.5,7.5,1.5,0.5,3.0,2.0,2.5,13.0,12.0,15.033296378372908,86.0,87.09190547921202,86.57944328765345,82.03657720797473
330,47,641,0,21.38803333333303,1.0,29.068883707497267,4.0,6.0,8.06225774829855,8.06225774829855,9.0,20.0,14.0,13.5,14.0,12.0,4.0,7.0,1.0,1.0,3.0,3.0,3.0,13.0,12.0,15.033296378372908,86.00581375697809,86.09297300012354,85.37564055396598,79.76214641043707
331,47,642,0,21.421399999999696,1.4142135623730951,29.068883707497267,3.0,6.082762530298219,8.0,9.055385138137417,10.04987562112089,20.024984394500787,14.0,13.5,14.0,12.0,3.0,7.0,1.0,0.0,3.0,3.0,3.0,14.0,12.0,16.1245154965971,88.0,87.09190547921202,86.37129152675674,80.75270893288967
332,47,643,0,21.45476666666636,1.0,29.154759474226502,3.0,7.0,8.0,9.055385138137417,10.04987562112089,21.02379604162864,14.035668847618199,13.5,15.0,12.0,3.5,7.5,0.5,0.5,3.0,2.23606797749979,2.5,14.0,13.0,16.0312195418814,84.0,85.09406559801923,83.38465086573187,78.77182237323191
333,47,644,0,21.488133333333028,1.0,29.154759474226502,3.0,7.0,8.0,9.055385138137417,10.04987562112089,21.02379604162864,14.035668847618199,13.5,15.0,12.0,3.5,7.5,0.5,0.5,3.0,2.23606797749979,2.5,14.0,13.0,16.0312195418814,84.0,85.09406559801923,83.38465086573187,78.77182237323191
334,47,645,0,21.52149999999969,0.0,28.160255680657446,3.0,7.0,8.0,9.055385138137417,11.0,21.0,14.0,14.0,15.0,12.0,2.5,7.5,0.5,0.5,2.23606797749979,3.0,3.0,14.0,13.0,15.132745950421556,87.0,88.09086218218096,86.37129152675674,81.88406438373708
335,47,646,0,21.55486666666636,1.0,30.01666203960727,3.0,6.0,7.0710678118654755,9.055385138137417,10.0,20.0,14.0,13.5,13.0,12.0,2.5,7.5,1.5,0.5,2.0,3.0,3.0,13.0,12.0,15.132745950421556,85.0,85.05292469985967,83.21658488546619,79.51100552753688
336,47,647,0,21.588233333333022,1.0,30.066592756745816,3.0,6.0,7.0710678118654755,8.06225774829855,10.0,20.0,14.0,13.5,14.0,12.0,3.0,7.0,1.0,1.0,2.0,3.1622776601683795,3.0,14.0,13.0,15.033296378372908,84.0,85.09406559801923,83.38465086573187,78.77182237323191
337,47,648,0,21.62159999999969,0.0,30.01666203960727,4.0,7.0,8.0,9.055385138137417,10.04987562112089,21.02379604162864,14.035668847618199,14.0,14.0,13.0,3.5,7.5,0.5,0.5,2.0,2.0,2.5,13.0,12.0,16.0312195418814,83.00602387778854,85.0235261559999,84.2140130857092,79.51100552753688
338,47,649,0,21.65496666666636,0.0,30.01666203960727,4.0,7.0,8.0,9.055385138137417,10.04987562112089,21.02379604162864,14.035668847618199,14.0,14.0,13.0,3.5,7.5,0.5,0.5,2.0,2.0,2.5,13.0,12.0,16.0312195418814,83.00602387778854,85.0235261559999,84.2140130857092,79.51100552753688
339,47,650,0,21.688333333333023,1.0,30.01666203960727,3.0,7.0,8.0,9.0,10.0,21.0,14.0,13.5,13.0,12.0,2.5,8.5,1.5,0.5,3.0,2.0,2.0,14.0,13.0,15.033296378372908,83.02409288875127,84.02380615040002,83.21658488546619,79.40403012442127
340,47,651,0,21.72169999999969,5.0990195135927845,30.01666203960727,3.0,6.0,8.0,9.055385138137417,8.06225774829855,22.090722034374522,16.1245154965971,13.5,13.0,12.0,4.5,9.5,3.5,1.5,2.0,2.0,2.0,14.0,13.0,15.033296378372908,84.00595217006948,85.05292469985967,85.28774824088158,80.50465825031493
341,47,652,0,21.755066666666355,6.082762530298219,30.01666203960727,4.0,5.0,9.055385138137417,10.04987562112089,7.0,22.02271554554524,17.029386365926403,14.0,13.0,12.0,5.5,9.5,3.5,2.5,3.0,2.0,2.0,14.0,13.0,16.0312195418814,83.00602387778854,84.0535543567314,84.2140130857092,79.51100552753688
342,47,653,0,21.78843333333302,5.0990195135927845,31.064449134018133,4.0,6.0,8.06225774829855,10.04987562112089,7.0,22.02271554554524,16.0312195418814,13.5,13.0,11.0,5.0,10.0,4.0,2.0,3.0,3.0,3.0,14.0,13.0,15.033296378372908,85.0,86.09297300012354,85.37564055396598,79.63039620647382
343,47,654,0,21.821799999999687,6.0,31.064449134018133,4.123105625617661,5.0,8.06225774829855,9.055385138137417,7.0,22.02271554554524,17.029386365926403,14.0,13.0,11.0,5.0,10.0,5.0,2.0,3.1622776601683795,2.0,2.0,14.0,13.0,15.033296378372908,86.0,86.09297300012354,85.37564055396598,80.62257748298549
344,47,655,0,21.85516666666636,4.123105625617661,30.066592756745816,3.0,5.0,8.0,9.055385138137417,8.0,20.024984394500787,15.033296378372908,13.0,13.0,11.0,4.0,8.0,3.0,1.0,3.0,2.0,2.5,14.0,13.0,16.0312195418814,84.00595217006948,85.14693182963201,84.29116205154607,79.63039620647382
345,47,656,0,21.88853333333302,3.1622776601683795,31.016124838541646,4.0,6.0,9.0,10.04987562112089,7.0710678118654755,20.09975124224178,14.142135623730951,12.5,12.0,11.0,4.5,8.5,2.5,0.5,3.0,2.0,2.5,14.0,13.0,16.0312195418814,84.0,85.05292469985967,83.21658488546619,79.51100552753688
346,47,657,0,21.921899999999685,4.123105625617661,31.064449134018133,3.0,6.0,9.0,10.04987562112089,8.06225774829855,21.095023109728988,15.132745950421556,13.0,13.0,11.0,4.0,9.0,3.0,1.0,3.0,2.0,2.5,14.0,13.0,15.033296378372908,84.00595217006948,84.0535543567314,84.29116205154607,79.63039620647382
347,47,658,0,21.95526666666635,4.0,32.0624390837628,3.0,6.0,9.0,10.04987562112089,8.06225774829855,21.02379604162864,15.033296378372908,13.0,13.0,11.0,4.0,9.0,3.0,1.0,3.1622776601683795,2.0,2.5,14.0,13.0,15.033296378372908,83.00602387778854,84.02380615040002,83.15046602394962,78.5175139698144
348,47,659,0,21.988633333333016,4.0,31.064449134018133,3.0,5.0,9.0,10.04987562112089,8.06225774829855,20.024984394500787,15.033296378372908,13.0,13.0,11.0,4.0,8.0,3.0,1.0,3.0,3.0,3.0,13.0,13.0,15.033296378372908,82.00609733428362,83.09632964216891,83.2946576918352,78.63841300535
349,47,660,0,22.02199999999968,3.0,31.064449134018133,3.0,6.0,9.0,10.0,8.06225774829855,20.024984394500787,14.035668847618199,12.5,13.0,11.0,4.0,8.0,2.0,1.0,3.0,3.0,3.0,13.0,12.0,14.035668847618199,85.0,84.0535543567314,83.21658488546619,78.40918313565064
350,47,661,0,22.055366666666348,3.1622776601683795,32.0624390837628,3.0,5.0,8.0,10.0,8.0,19.026297590440446,14.035668847618199,12.5,13.0,11.0,4.0,7.0,2.0,1.0,3.0,3.0,3.0,14.0,13.0,14.142135623730951,84.02380615040002,85.05292469985967,84.2140130857092,79.51100552753688
351,47,662,0,22.08873333333301,4.123105625617661,31.016124838541646,3.0,5.0,9.055385138137417,10.0,8.0,20.024984394500787,15.033296378372908,13.0,12.0,11.0,3.5,8.5,3.5,1.5,2.0,2.0,2.5,14.0,13.0,15.033296378372908,84.02380615040002,85.0235261559999,85.21150157109074,80.39900496896712
352,47,663,0,22.12209999999968,3.1622776601683795,32.0,4.0,6.0,8.0,9.0,7.0,20.024984394500787,14.035668847618199,12.5,11.0,11.0,4.0,9.0,2.0,1.0,2.0,2.0,2.0,13.0,12.0,17.029386365926403,87.0,88.14193099768123,87.46427842267951,82.87339742040264
353,47,664,0,22.155466666666342,3.1622776601683795,32.0,4.0,6.0,8.0,9.0,7.0,20.024984394500787,14.035668847618199,12.5,11.0,11.0,4.0,9.0,2.0,1.0,2.0,2.0,2.0,13.0,12.0,17.029386365926403,87.0,88.14193099768123,87.46427842267951,82.87339742040264
354,47,665,0,22.18883333333301,3.1622776601683795,32.01562118716424,4.0,6.0,9.0,10.04987562112089,8.06225774829855,21.095023109728988,15.132745950421556,13.5,13.0,12.0,4.5,8.5,2.5,1.5,2.0,2.0,2.0,13.0,12.0,16.0312195418814,84.00595217006948,84.09518416651456,83.2946576918352,79.51100552753688
355,47,666,0,22.22219999999968,3.0,31.016124838541646,3.1622776601683795,5.0,8.0,9.0,8.0,19.026297590440446,14.035668847618199,12.5,12.0,11.0,3.5,7.5,1.5,0.5,3.0,3.1622776601683795,3.0,15.0,13.0,15.132745950421556,84.0,85.09406559801923,84.38009243891595,79.63039620647382
356,47,667,0,22.255566666666343,3.1622776601683795,31.016124838541646,4.0,6.0,9.0,10.04987562112089,8.06225774829855,21.095023109728988,15.132745950421556,13.5,13.0,12.0,4.5,8.5,2.5,1.5,3.0,3.0,3.0,14.0,13.0,15.033296378372908,85.00588214941364,85.05292469985967,84.2140130857092,79.63039620647382
357,47,668,0,22.28893333333301,3.0,31.016124838541646,4.123105625617661,6.0,8.06225774829855,9.055385138137417,8.0,21.02379604162864,15.033296378372908,13.5,13.0,12.0,4.5,8.5,2.5,1.5,3.0,3.1622776601683795,3.0,15.0,14.0,16.0312195418814,84.02380615040002,85.05292469985967,84.2140130857092,79.51100552753688
358,47,669,0,22.322299999999675,4.0,30.01666203960727,4.123105625617661,6.0,8.0,9.055385138137417,8.0,22.02271554554524,16.0312195418814,14.0,13.0,12.0,4.5,9.5,3.5,1.5,3.0,3.1622776601683795,3.0,15.0,14.0,16.0312195418814,85.00588214941364,85.05292469985967,84.2140130857092,79.51100552753688
359,47,670,0,22.35566666666634,3.1622776601683795,30.01666203960727,3.0,6.0,9.0,10.0,8.06225774829855,20.09975124224178,14.142135623730951,12.5,13.0,12.0,4.5,7.5,1.5,1.5,3.0,3.1622776601683795,3.0,15.0,14.0,16.0312195418814,85.0235261559999,85.0235261559999,84.29116205154607,79.63039620647382
360,47,671,0,22.389033333333007,1.0,30.01666203960727,4.0,6.0,9.0,9.0,8.06225774829855,19.026297590440446,13.038404810405298,12.5,13.0,12.0,4.5,6.5,0.5,1.5,3.0,2.0,2.5,15.0,14.0,16.0312195418814,85.0235261559999,85.0235261559999,84.2140130857092,79.63039620647382
361,47,672,0,22.42239999999968,1.0,29.017236257093817,4.0,6.0,8.06225774829855,9.055385138137417,7.0710678118654755,18.027756377319946,12.041594578792296,11.5,12.0,11.0,4.5,6.5,0.5,1.5,2.0,2.0,2.5,15.0,14.0,18.110770276274835,88.02272433866155,89.05054744357274,87.20665112249179,83.60023923410746
362,47,673,0,22.45576666666634,4.0,30.01666203960727,3.1622776601683795,6.0,8.0,9.055385138137417,8.0,21.02379604162864,15.033296378372908,13.0,13.0,12.0,4.5,8.5,2.5,1.5,2.23606797749979,2.23606797749979,2.0,16.0,14.0,16.0312195418814,86.02325267042627,87.02298546935747,85.14693182963201,80.50465825031493
363,47,674,0,22.489133333333005,4.123105625617661,30.01666203960727,3.0,6.0,8.0,9.055385138137417,8.06225774829855,21.095023109728988,15.132745950421556,13.0,13.0,12.0,4.5,8.5,2.5,1.5,3.0,2.0,2.0,15.0,13.0,17.11724276862369,85.0235261559999,86.02325267042627,84.2140130857092,79.51100552753688
364,47,675,0,22.52249999999967,6.082762530298219,31.016124838541646,4.0,6.0,8.06225774829855,10.04987562112089,7.0710678118654755,23.08679276123039,17.11724276862369,14.0,13.0,12.0,5.5,10.5,4.5,2.5,2.0,2.23606797749979,2.0,16.0,14.0,16.1245154965971,85.00588214941364,84.02380615040002,84.1486779456457,78.40918313565064
365,47,676,0,22.555866666666336,7.0,31.064449134018133,3.0,6.0,8.0,9.055385138137417,8.06225774829855,24.020824298928627,18.027756377319946,14.5,14.0,12.0,5.0,11.0,5.0,2.0,2.0,3.0,3.0,16.0,14.0,16.1245154965971,89.05054744357274,89.02246907382428,87.28115489611719,82.73451516749222
366,47,677,0,22.589233333333,7.0710678118654755,30.01666203960727,4.0,7.0710678118654755,8.06225774829855,10.04987562112089,7.0710678118654755,25.019992006393608,18.110770276274835,14.5,13.0,12.0,5.5,12.5,5.5,2.5,3.0,2.0,2.0,15.0,13.0,16.0312195418814,89.05054744357274,89.05054744357274,87.28115489611719,82.73451516749222
367,47,678,0,22.622599999999668,6.082762530298219,30.01666203960727,4.0,6.0,9.0,10.04987562112089,8.06225774829855,24.08318915758459,18.110770276274835,15.0,14.0,13.0,5.5,10.5,4.5,1.5,2.0,2.0,2.0,16.0,14.0,16.1245154965971,86.00581375697809,86.05230967266364,84.2140130857092,79.51100552753688
368,47,679,0,22.65596666666633,7.0710678118654755,31.016124838541646,4.0,6.0,9.0,10.04987562112089,8.06225774829855,25.079872407968907,19.1049731745428,15.5,14.0,13.0,5.5,11.5,5.5,1.5,2.0,2.0,2.0,16.0,14.0,17.029386365926403,86.02325267042627,86.00581375697809,84.1486779456457,79.40403012442127
369,47,680,0,22.689333333333,6.082762530298219,31.016124838541646,4.0,6.0,8.0,9.055385138137417,7.0710678118654755,23.08679276123039,17.11724276862369,14.0,13.0,12.0,5.5,10.5,4.5,1.5,2.0,2.0,2.5,16.0,14.0,17.029386365926403,85.05292469985967,85.0235261559999,85.14693182963201,80.50465825031493
370,47,681,0,22.722699999999666,5.0,32.01562118716424,4.123105625617661,6.0,9.0,10.04987562112089,7.0710678118654755,22.090722034374522,16.1245154965971,13.5,12.0,11.0,4.5,10.5,4.5,1.5,2.23606797749979,2.0,2.0,16.0,14.0,17.11724276862369,86.00581375697809,86.05230967266364,84.29116205154607,80.50465825031493
371,47,682,0,22.75606666666633,3.1622776601683795,30.066592756745816,4.0,6.0,9.055385138137417,9.055385138137417,8.06225774829855,21.095023109728988,15.132745950421556,13.5,13.0,11.0,4.0,9.0,3.0,1.0,2.0,2.23606797749979,2.0,16.0,14.0,17.029386365926403,84.02380615040002,84.02380615040002,84.2140130857092,79.51100552753688
372,47,683,0,22.789433333333,2.0,31.016124838541646,4.123105625617661,6.0,8.06225774829855,9.055385138137417,8.0,20.024984394500787,14.035668847618199,13.0,12.0,11.0,3.5,8.5,2.5,0.5,3.0,2.0,2.5,15.0,14.0,16.0312195418814,86.05230967266364,86.02325267042627,85.14693182963201,80.39900496896712
373,47,684,0,22.822799999999663,2.23606797749979,31.016124838541646,4.0,6.0,8.06225774829855,9.055385138137417,8.06225774829855,20.09975124224178,14.142135623730951,13.0,12.0,11.0,3.5,8.5,2.5,0.5,3.1622776601683795,2.0,2.5,15.0,14.0,17.029386365926403,85.05292469985967,85.00588214941364,83.15046602394962,79.40403012442127
374,47,685,0,22.85616666666633,1.4142135623730951,30.01666203960727,4.0,6.0,8.0,9.055385138137417,8.06225774829855,19.1049731745428,13.152946437965905,12.5,11.0,10.0,2.5,8.5,2.5,0.5,2.0,2.0,2.0,15.0,14.0,18.110770276274835,88.09086218218096,88.0056816347672,86.20904824900923,82.49242389456137
375,47,686,0,22.889533333332995,2.0,31.064449134018133,3.1622776601683795,6.0,8.0,9.055385138137417,8.06225774829855,19.1049731745428,13.152946437965905,12.0,12.0,10.0,3.0,8.0,2.0,0.0,3.0,2.0,2.0,15.0,13.0,17.029386365926403,87.09190547921202,87.00574693662483,87.20665112249179,81.49846624323675
376,47,687,0,22.92289999999966,2.23606797749979,30.01666203960727,3.0,6.0,8.06225774829855,9.0,8.06225774829855,19.1049731745428,13.152946437965905,12.0,11.0,10.0,2.5,8.5,2.5,0.5,3.0,3.0,3.0,15.0,13.0,18.110770276274835,88.14193099768123,89.0,88.14193099768123,83.48652585896721
377,47,688,0,22.956266666666327,2.23606797749979,31.064449134018133,4.0,6.0,8.06225774829855,9.055385138137417,8.06225774829855,20.09975124224178,14.142135623730951,13.0,12.0,10.0,3.0,9.0,3.0,0.0,3.1622776601683795,3.0,2.5,15.0,14.0,16.0312195418814,85.09406559801923,85.0,84.09518416651456,80.30566605165541
378,47,689,0,22.989633333333,2.0,31.016124838541646,4.0,6.082762530298219,8.06225774829855,9.055385138137417,8.06225774829855,20.09975124224178,14.035668847618199,13.0,12.0,11.0,3.5,8.5,2.5,0.5,3.0,2.0,2.0,15.0,13.0,17.029386365926403,85.09406559801923,86.02325267042627,84.1486779456457,80.50465825031493
379,47,690,0,23.02299999999966,2.0,31.064449134018133,4.0,5.0990195135927845,8.06225774829855,8.0,8.06225774829855,19.1049731745428,14.035668847618199,13.0,12.0,10.0,3.0,8.0,3.0,0.0,3.0,2.0,2.0,15.0,13.0,16.0312195418814,86.02325267042627,86.00581375697809,84.1486779456457,79.40403012442127
380,47,691,0,23.056366666666325,1.0,30.01666203960727,3.0,7.0,8.0,8.0,9.055385138137417,20.024984394500787,13.038404810405298,12.5,11.0,10.0,1.5,9.5,2.5,0.5,2.0,2.0,2.0,15.0,14.0,17.11724276862369,89.05054744357274,89.02246907382428,88.14193099768123,83.48652585896721
381,47,692,0,23.08973333333299,1.4142135623730951,30.066592756745816,4.0,6.0,7.0710678118654755,7.0710678118654755,8.06225774829855,19.1049731745428,13.152946437965905,12.5,11.0,9.0,2.0,9.0,3.0,1.0,3.0,2.0,2.0,16.0,14.0,19.1049731745428,88.02272433866155,89.05054744357274,88.20430828479978,84.5931439302264
382,47,693,0,23.123099999999656,2.23606797749979,31.016124838541646,3.0,5.0,7.0,8.06225774829855,8.06225774829855,18.110770276274835,13.152946437965905,12.0,10.0,9.0,1.5,8.5,2.5,1.5,3.0,3.0,3.0,15.0,13.0,18.027756377319946,87.09190547921202,88.0,87.14355971613737,82.49242389456137
383,47,694,0,23.15646666666632,2.0,30.066592756745816,3.0,6.0,8.0,9.055385138137417,8.246211251235321,19.1049731745428,13.152946437965905,12.0,11.0,9.0,2.0,9.0,3.0,1.0,3.0,3.0,3.0,16.0,14.0,17.11724276862369,88.09086218218096,88.02272433866155,88.2779700718135,83.60023923410746
384,47,695,0,23.189833333332988,1.0,30.0,4.123105625617661,6.0,8.06225774829855,8.06225774829855,8.06225774829855,19.1049731745428,13.152946437965905,12.5,10.0,10.0,2.0,9.0,3.0,1.0,3.0,2.0,2.5,15.0,14.0,20.024984394500787,87.09190547921202,89.00561780022652,87.14355971613737,82.49242389456137
385,47,696,0,23.22319999999965,1.4142135623730951,32.01562118716424,3.0,7.0,7.0710678118654755,8.06225774829855,8.06225774829855,19.1049731745428,12.165525060596439,11.5,10.0,9.0,1.5,9.5,3.5,0.5,3.0,3.1622776601683795,3.0,15.0,14.0,19.026297590440446,88.09086218218096,88.0056816347672,88.20430828479978,84.5931439302264
386,47,697,0,23.25656666666632,1.4142135623730951,31.016124838541646,3.0,6.0,8.06225774829855,9.055385138137417,9.055385138137417,19.1049731745428,13.152946437965905,12.5,11.0,10.0,1.5,8.5,2.5,0.5,3.0,2.0,2.0,16.0,14.0,16.1245154965971,84.0535543567314,85.00588214941364,85.14693182963201,81.39410298049853
387,47,698,0,23.289933333332986,1.4142135623730951,31.016124838541646,3.0,6.0,8.0,9.055385138137417,9.055385138137417,19.1049731745428,13.152946437965905,12.5,10.0,9.0,0.5,9.5,3.5,1.5,2.0,3.0,3.0,16.0,14.0,16.1245154965971,83.09632964216891,84.00595217006948,84.1486779456457,80.39900496896712
