,video_id,frame_seq,gap,time_seconds,m1,m3,m4,m5,m6,m7,m8,m9,m10,m11,m12,m13,m14,m15,m16,m17,e1,e2,e3,b1,b2,b3
0,64,311,1,10.377033333333287,27.455282162258953,151.4775371679434,15.531052957058591,23.296579435588,38.82763239264659,46.593158871176,42.88652172194168,108.9943580800484,85.77304344388334,71.8311199263963,66.00697506749935,62.12421182823465,21.35519781595565,44.65177725154365,17.472434576691057,5.824144858897057,7.765526478529296,7.7655264785293525,7.765526478529296,73.77250154602865,73.77250154602865,66.12107536885391
1,64,312,0,10.410399999999957,23.394159065387008,153.88710955981733,19.229880296050396,26.921832414470487,38.45976059210079,42.48019403743441,42.48019403743434,111.79823080699612,84.96038807486875,73.07354512499131,65.38159300657122,61.53561694736112,21.15286832565539,48.07470074012588,21.15286832565539,1.9229880296049942,8.599863908230443,8.599863908230494,7.69195211842009,76.91952118420136,69.22756906578121,65.49461226639129
2,64,313,0,10.44376666666662,19.046755268780544,144.8054544081049,19.046755268780544,26.665457376292807,38.28350428743468,45.870660997626324,42.07565762993884,106.729831953587,80.08701960513146,70.47299449448792,64.75896791385378,60.94961686009765,20.951430795658666,43.80753711819523,17.14207974190242,5.71402658063414,3.8093510537561315,7.618702107512206,5.71402658063414,79.99637212887825,76.18702107512212,72.47784677522172
3,64,314,0,10.477133333333288,23.62126551926001,147.77010445292467,19.416560651186614,27.183184911661215,42.71643343261053,42.89258442089372,42.892584420893606,112.88354871378189,85.78516884178721,73.78293047450893,69.89961834427163,62.13299408379703,23.299872781423915,46.599745562847716,19.4165606511865,3.8833121302373,5.491832681509585,7.7666242604746,5.82496819535595,77.66624260474629,73.78293047450893,73.88505222646234
4,64,315,0,10.510499999999952,23.394159065387008,146.19768643991813,19.229880296050396,30.76780847368059,38.45976059210079,46.311684464748865,38.65158103686984,111.79823080699616,81.13095384850084,69.22756906578127,61.53561694736118,57.689640888151075,21.15286832565539,51.92067679933598,21.15286832565539,1.9229880296049942,3.845976059210045,7.691952118420147,7.691952118420147,76.91952118420141,76.91952118420141,73.17468502824025
5,64,316,0,10.543866666666618,26.923076923076906,146.35613531108018,15.384615384615358,30.76923076923083,38.65336777354176,46.31382530304733,46.31382530304732,119.29278784054485,88.54511102477952,75.0,69.23076923076928,61.53846153846155,19.23076923076917,53.846153846153925,23.076923076923094,7.692307692307622,7.692307692307679,7.692307692307736,7.692307692307679,76.9230769230769,73.0769230769231,77.01917074807993
6,64,317,0,10.577233333333284,18.691588785046747,145.9859752505916,18.691588785046747,29.906542056074727,37.383177570093494,41.29106922312996,41.29106922312991,108.47564955922918,78.59363006216313,69.15887850467294,63.55140186915884,56.074766355140184,18.691588785046747,48.598130841121474,18.691588785046747,3.7383177570093267,7.47663551401871,3.7383177570093267,5.60747663551399,74.76635514018693,71.02803738317755,71.12634613248753
7,64,318,0,10.61059999999995,18.867084965059007,147.35664423365589,18.86708496505912,30.18733594409457,41.678752956204725,45.43795760657382,37.92237144639265,105.72303677757746,75.56261639900558,66.03479737770675,64.14808888120075,56.60125489517719,22.6405019580709,45.2810039161418,15.093667972047228,7.546833986023557,7.546833986023671,7.546833986023614,7.546833986023614,75.46833986023626,67.92150587421264,68.33948831702854
8,64,319,0,10.643966666666616,18.691588785046747,145.9859752505916,18.691588785046747,29.906542056074727,37.383177570093494,45.01530683660671,37.56962849017153,104.73963159717306,74.85975474579735,65.42056074766361,63.55140186915884,56.074766355140184,22.429906542056074,44.85981308411215,18.691588785046747,3.7383177570093267,8.359132626167446,3.7383177570093267,5.60747663551399,74.76635514018693,67.28971962616822,67.3934817843735
9,64,320,0,10.677333333333282,22.9538208690499,147.36320143220098,18.86792452830184,30.18867924528297,37.924058947625916,45.43997954261241,37.924058947626015,109.69390078300847,79.60386079143011,67.92452830188677,60.37735849056605,52.830188679245225,18.86792452830184,52.830188679245225,22.641509433962256,3.773584905660414,8.437992367923663,7.547169811320771,7.547169811320771,75.47169811320754,75.47169811320754,71.69811320754707
10,64,321,0,10.710699999999948,24.326185370545133,156.0200727302808,15.996800959680172,28.27861608970323,39.992002399200146,44.17261042993859,40.19146499515307,108.05244036139477,80.38292999030617,67.98640407864048,59.98800359880045,55.98880335888043,17.996401079640123,49.99000299900035,21.995601319560137,1.9996001199599505,7.998400479840086,7.998400479840029,7.998400479840029,63.98720383872046,63.98720383872046,59.98800359880033
11,64,322,0,10.744066666666614,15.381771385074558,146.329079920275,15.855167032441438,26.918099923880504,38.45442846268634,46.781831315372536,42.47430450799727,100.27688100985539,73.4670824221999,65.37252838656684,65.37252838656696,57.68164269402962,19.227214231343282,38.45442846268634,11.536328538805833,7.690885692537336,7.690885692537279,7.690885692537279,7.690885692537279,73.06341407910418,69.21797123283551,69.32470679543877
12,64,323,0,10.77743333333328,11.42805316126828,137.61198299287872,11.428053161268394,30.474808430048824,38.09351053756109,42.075657629939066,42.075657629938895,95.30993291452484,64.87091089786163,59.0449413332197,64.75896791385384,53.33091475258556,17.142079741902535,36.188835010682965,5.71402658063414,5.71402658063414,7.618702107512206,7.618702107512206,5.714026580634197,79.99637212887825,76.18702107512217,68.6740527528021
13,64,324,0,10.810799999999944,11.32025097903545,140.07460603814346,15.093667972047228,26.413918951082678,37.734169930118014,41.67875295620474,37.922371446392766,90.64058659572838,64.2589758937504,58.48796339168308,60.37467188818897,49.05442090915352,16.980376468553118,35.84746143361224,5.660125489517668,5.660125489517782,7.546833986023614,7.546833986023614,7.546833986023614,79.24175685324803,75.4683398602362,68.02624226005624
14,64,325,0,10.844166666666611,15.091653558090911,136.29568025258922,11.318740168568183,26.410393726659095,33.95622050570455,37.917310293965045,41.67319047385819,94.39826284667406,68.01716341904417,60.366614232363645,64.13952762188637,52.82078745331819,16.978110252852275,35.842677200465914,9.43228347380682,5.659370084284092,7.545826779045456,7.545826779045456,7.545826779045456,71.68535440093177,71.68535440093177,79.32096158405562
15,64,326,0,10.877533333333275,11.111111111111086,133.79549531991452,14.814814814814781,25.92592592592598,37.22176155970691,40.90874450810111,40.74074074074082,92.59259259259267,66.66666666666669,61.11111111111114,62.96296296296299,51.851851851851904,16.66666666666663,35.18518518518522,5.555555555555543,5.555555555555543,11.111111111111086,3.7037037037036953,5.555555555555543,70.37037037037032,70.37037037037032,77.8659112652913
16,64,327,0,10.910899999999945,7.766624260474714,143.89230447617638,16.011306090210713,31.0664970418984,39.026803906874875,47.24253103852002,42.716433432610415,97.1604384568688,66.13042264529992,62.132994083796916,62.132994083796916,54.366369823322316,15.5332485209492,38.833121302373115,7.766624260474714,3.8833121302373,7.766624260474657,7.766624260474657,7.766624260474657,73.78293047450893,66.01630621403433,66.13042264529992
17,64,328,0,10.944266666666609,7.689109301315398,138.88370531769135,19.222773253288437,30.99579052102238,38.4455465065771,42.46449406682071,38.63729605771173,96.4209401039586,65.47040655096909,61.51287441052307,65.35742906118082,53.823765109207784,21.145050578617315,36.523269181248224,1.9222773253288779,5.76683197598652,7.689109301315398,7.689109301315398,7.689109301315398,76.89109301315403,73.04653836249634,73.14764088612536
18,64,329,0,10.977633333333277,7.544148996527952,136.00408018360932,18.86037249132005,30.17659598611192,37.72074498263987,45.42179182909639,41.663924617051165,98.14645004200119,68.00204009180455,64.12526647048776,64.12526647048776,56.58111747395981,18.86037249132005,37.72074498263987,3.772074498263919,3.7720744982640326,7.544148996527952,3.772074498263976,3.772074498263976,71.66941546701582,67.89734096875185,71.76861193728203
19,64,330,0,11.01099999999994,7.690885692537336,142.48909547407587,15.381771385074558,34.608985616417726,38.64622231312887,42.47430450799728,42.47430450799727,100.0554374984835,65.48553197719646,61.527085540298344,61.527085540298344,53.83619984776101,15.381771385074558,42.29987130895506,7.690885692537336,3.845442846268611,11.536328538805947,3.845442846268611,5.7681642694029165,73.06341407910418,69.21797123283557,73.1645399601375
20,64,331,0,11.044366666666606,15.381771385074558,142.48909547407607,15.381771385074558,26.918099923880504,34.60898561641784,42.47430450799728,38.646222313128995,96.21294927468493,69.32470679543889,61.527085540298344,61.527085540298344,53.83619984776101,19.22721423134317,38.45442846268645,11.536328538805947,3.845442846268611,8.59867160784699,3.845442846268611,5.7681642694029165,69.21797123283557,69.21797123283557,69.32470679543877
21,64,332,0,11.077733333333272,23.296579435588,143.87196586204723,19.41381619632341,27.179342674852705,34.94486915338189,42.88652172194165,35.15991653174356,104.9064858418921,77.75227327381636,66.00697506749941,62.124211828234706,54.35868534970541,23.296579435588,46.593158871176115,15.531052957058705,3.882763239264591,7.7655264785293525,7.7655264785293525,7.7655264785293525,73.7725015460287,73.7725015460287,69.889738306764
22,64,333,0,11.111099999999938,27.455282162258953,147.74921772694424,15.531052957058705,27.17934267485259,38.82763239264682,42.88652172194187,39.021287620870396,108.99435808004847,81.90698026189445,67.94835668713176,62.124211828234706,54.35868534970541,19.413816196323296,50.475922110440706,23.296579435588114,3.882763239264591,7.7655264785293525,7.7655264785293525,7.7655264785293525,73.7725015460287,73.7725015460287,73.87460886347212
23,64,334,0,11.144466666666604,26.9361796203106,144.95569355044321,15.237404215024412,26.665457376292807,38.09351053756109,42.075657629938846,38.28350428743468,106.93357982969232,80.3583485120555,66.6636434407319,60.94961686009765,53.3309147525855,19.046755268780544,49.52156369882937,22.85610632253656,3.8093510537561315,7.618702107512206,3.8093510537561315,5.71402658063414,72.37767002136604,72.37767002136604,72.4778467752215
24,64,335,0,11.17783333333327,22.85714285714289,148.76666049345997,15.707069049971944,30.47619047619048,38.0952380952383,42.59177099999601,38.2852404614129,106.93842931518624,76.57048092282577,64.7619047619047,60.95238095238085,53.33333333333326,19.047619047619037,49.52380952380952,19.047619047619037,3.809523809523853,7.619047619047649,3.809523809523796,5.714285714285722,68.57142857142856,68.57142857142856,68.57142857142844
25,64,336,0,11.211199999999936,23.299872781423915,148.02501253346512,15.5332485209492,31.066497041898515,42.89258442089349,43.4167495053006,39.02680390687499,108.80206240768544,77.76326480697776,66.01630621403422,62.13299408379703,50.483057693085016,17.47490458606785,52.42471375820378,21.358216716305265,5.82496819535595,3.8833121302373,7.766624260474657,7.766624260474657,69.89961834427163,69.89961834427163,73.78293047450893
26,64,337,0,11.244566666666602,23.852824405087752,153.1347912657719,15.685520706275838,27.449661235982603,39.40938303764712,47.21967027555613,35.50960777188911,102.25708431520904,74.91786308053364,62.742082825103125,58.820702648534166,50.97794229539636,19.606900882844684,47.0565621188274,19.606900882844798,7.842760353137805,7.842760353137919,7.842760353137862,7.842760353137862,74.50622335481,74.50622335481,74.50622335480989
27,64,338,0,11.277933333333268,3.846153846153811,142.77470148669687,15.384615384615358,34.61538461538464,42.482157758412605,43.001307259611416,42.482157758412605,96.23073848612928,61.65853669954384,59.61538461538464,61.53846153846155,50.0,13.461538461538339,40.38461538461547,5.7692307692308304,1.923076923076792,7.692307692307736,7.692307692307679,7.692307692307679,73.0769230769231,73.0769230769231,73.0769230769231
28,64,339,0,11.311299999999934,3.846153846153811,146.60860425035324,19.230769230769283,34.61538461538464,42.48215775841262,43.001307259611416,38.65336777354187,96.23073848612928,61.65853669954384,59.61538461538464,61.53846153846155,50.0,17.307692307692264,40.38461538461547,5.7692307692308304,5.769230769230717,8.600261451922291,7.692307692307679,7.692307692307679,73.0769230769231,73.0769230769231,76.9230769230769
29,64,340,0,11.3446666666666,8.599863908230596,135.10273979624927,15.85736552571993,31.007250283137044,38.65158103686974,42.48019403743417,42.30573665131067,96.22629025821703,65.38159300657117,61.53561694736106,65.38159300657117,53.84366482894086,17.30689226644529,36.536772562495685,5.76896408881521,5.768964088815096,8.599863908230391,7.691952118420147,7.691952118420147,73.07354512499131,73.07354512499131,73.07354512499137
30,64,341,0,11.378033333333263,3.8093510537561315,137.61198299287895,19.42395535722762,30.474808430048824,38.28350428743468,46.34275570907943,41.902861591317105,95.30993291452478,64.87091089786158,62.85429238697577,64.75896791385378,53.3309147525855,17.142079741902535,36.188835010682965,5.71402658063414,5.71402658063414,3.8093510537561315,7.618702107512206,7.618702107512206,64.75896791385384,68.56831896760997,76.18702107512217
31,64,342,0,11.411399999999931,3.9215686274510517,141.66581857402684,19.99615495526585,31.372549019607845,39.41127694557192,39.41127694557193,43.13725490196077,98.11761571134755,66.78190731735852,64.70588235294122,66.66666666666674,54.901960784313815,17.647058823529505,37.25490196078431,5.882352941176464,1.9607843137255259,7.84313725490199,3.921568627450995,3.921568627450995,70.58823529411768,70.58823529411768,74.50980392156862
32,64,343,0,11.444766666666595,7.842760353137919,145.56720987262517,15.685520706275724,31.371041412551563,39.40938303764689,43.31305973584557,43.13518194225844,98.03450441422365,66.66346300167208,62.742082825103125,66.66346300167208,54.899322471965206,17.64621079456026,37.253111677404945,5.8820702648533825,5.882070264853496,7.842760353137919,7.842760353137862,5.882070264853439,70.58484317824104,70.58484317824104,74.50622335480989
33,64,344,0,11.478133333333265,7.842760353137919,145.56720987262517,15.685520706275724,31.371041412551563,39.40938303764689,43.31305973584557,43.13518194225844,98.03450441422365,66.66346300167208,62.742082825103125,66.66346300167208,54.899322471965206,17.64621079456026,37.253111677404945,5.8820702648533825,5.882070264853496,7.842760353137919,7.842760353137862,5.882070264853439,70.58484317824104,70.58484317824104,74.50622335480989
34,64,345,0,11.511499999999929,3.8459760592099883,134.82875302105612,19.229880296050396,34.61378453289069,38.65158103686974,42.48019403743418,42.30573665131078,99.99537753946186,65.38159300657117,63.45860497696617,65.38159300657117,57.689640888151075,19.229880296050396,38.45976059210068,3.8459760592099883,3.845976059210102,7.69195211842009,7.691952118420147,7.691952118420204,69.22756906578127,69.22756906578127,73.17468502824025
35,64,346,0,11.544866666666596,8.436490812191963,132.53616977614982,18.86456694761364,33.95622050570444,37.917310293965045,45.89947239169858,41.502047284750006,101.93850633952357,68.01716341904417,64.13952762188637,67.9124410114091,56.59370084284092,20.751023642375003,39.61559058998853,5.659370084284092,5.659370084284092,7.545826779045399,7.545826779045456,7.545826779045456,67.9124410114091,67.9124410114091,79.23118117997728
36,64,347,0,11.57823333333326,7.618702107512263,133.54478667838427,19.046755268780544,30.711970049134376,38.283504287434695,38.283504287434695,41.90286159131722,99.11635707671883,68.56831896761003,64.7589679138539,64.7589679138539,57.14026580634163,19.046755268780544,38.09351053756109,7.618702107512263,3.8093510537561315,7.618702107512263,7.618702107512206,7.618702107512206,64.75896791385384,64.75896791385384,80.08701960513147
37,64,348,0,11.611599999999926,7.618702107512263,130.02113712826446,19.42395535722762,34.284159483804956,38.283504287434695,42.07565762993907,41.90286159131722,102.92299781414033,68.67405275280221,64.7589679138539,68.56831896761003,57.14026580634163,20.951430795658553,39.99818606443921,5.714026580634254,5.71402658063414,8.517967906359063,7.618702107512206,7.618702107512206,72.37767002136604,72.37767002136604,76.2821954046412
38,64,349,0,11.644966666666592,8.598671607846939,131.25302566708785,19.22721423134317,34.608985616417726,38.646222313129094,42.99335803923477,42.29987130895506,103.89814434945708,69.32470679543887,65.37252838656696,69.21797123283557,57.68164269402962,21.14993565447753,40.3771498858207,5.768164269402973,5.768164269402973,7.690885692537279,7.690885692537279,7.690885692537279,69.21797123283557,69.21797123283557,77.00493298647407
39,64,350,0,11.678333333333258,12.398705642692862,137.45238851463495,19.60407493444552,27.445704908223775,39.403702951662225,43.30681701178851,43.12896485578028,102.01656208321015,74.59859273761117,68.6142622705595,66.65385477711493,58.81222480333679,19.60407493444552,39.208149868891155,11.76244496066738,3.920814986889013,7.841629973778197,7.841629973778254,7.841629973778254,78.41629973778231,74.49548475089318,78.41629973778231
40,64,351,0,11.711699999999924,23.171377854539706,137.3481055056042,15.237404215024412,26.665457376292807,38.09351053756109,45.870660997626096,42.07565762993897,106.93357982969243,80.35834851205561,68.56831896761003,68.56831896761003,60.94961686009776,22.856106322536675,41.90286159131722,15.237404215024412,7.618702107512263,7.618702107512206,7.618702107512206,9.523377634390272,72.37767002136604,72.37767002136604,80.08701960513147
41,64,352,0,11.74506666666659,19.238158996271885,136.29568025258922,15.091653558090911,30.18330711618171,37.917310293965045,41.67319047385819,41.67319047385819,105.91072585217137,75.83462058793009,66.02598431664774,67.9124410114091,56.59370084284092,20.751023642375003,43.388503979511256,13.205196863329547,9.43228347380682,7.545826779045399,5.335705285122086,5.659370084284092,67.9124410114091,67.9124410114091,79.32096158405562
42,64,353,0,11.778433333333256,26.682087440032024,140.07460603814368,15.093667972047228,30.18733594409457,37.73416993011824,42.188084519136396,37.92237144639271,109.68901974975444,79.6003186702282,66.0347973777067,64.1480888812008,52.827837902165356,20.75379346156501,50.94112940565947,20.753793461564896,5.660125489517782,11.32025097903545,7.546833986023614,7.546833986023614,71.69492286722442,71.69492286722442,79.33154924109596
43,64,354,0,11.811799999999922,26.682087440032024,140.07460603814368,15.093667972047228,30.18733594409457,37.73416993011824,42.188084519136396,37.92237144639271,109.68901974975444,79.6003186702282,66.0347973777067,64.1480888812008,52.827837902165356,20.75379346156501,50.94112940565947,20.753793461564896,5.660125489517782,11.32025097903545,7.546833986023614,7.546833986023614,71.69492286722442,71.69492286722442,79.33154924109596
44,64,355,0,11.845166666666588,14.95327102803742,142.8409209311611,11.21495327102798,26.1682242990654,41.29106922312996,45.478598357369854,37.56962849017159,89.79747401468646,63.66125744271554,56.07476635514024,63.551401869158894,48.598130841121474,18.691588785046747,33.644859813084054,7.476635514018653,11.214953271028094,7.47663551401871,7.47663551401871,7.47663551401871,67.28971962616822,71.0280373831776,75.13925698034295
45,64,356,0,11.878533333333252,15.558889153274093,147.94185497292565,11.320754716981128,30.188679245283083,41.680607612027224,45.90764173809976,37.7358490566038,94.41506417507021,64.26183534311843,56.60377358490564,64.15094339622635,49.056603773584925,18.86792452830184,37.7358490566038,7.547169811320714,7.547169811320714,7.547169811320771,3.773584905660357,5.660377358490564,67.92452830188677,75.47169811320754,79.33507940237219
46,64,357,0,11.91189999999992,7.6176658548688465,145.9831803576039,15.235331709737693,30.4706634194755,45.864421930520166,50.097375485706074,38.08832927434423,91.41199025842627,60.94132683895077,57.13249391151635,68.55899269381973,49.5148280566475,20.94858110088944,32.3750798831926,1.904416463717098,9.522082318586172,7.6176658548688465,11.42649878230327,11.42649878230327,68.55899269381973,72.36782562125416,80.07612662302087
47,64,358,0,11.945266666666583,3.7735849056603,132.9352071985548,15.094339622641542,30.188679245283083,37.924058947625916,41.68060761202724,41.68060761202734,90.64461999595704,60.49516808257121,58.49056603773579,64.15094339622635,49.05660377358481,15.094339622641542,33.96226415094338,3.7735849056603,3.773584905660414,7.547169811320714,3.773584905660357,5.660377358490564,64.15094339622641,67.92452830188677,71.69811320754707
48,64,359,0,11.978633333333253,7.546833986023557,132.92929200033197,15.093667972047228,33.96075293710635,37.92237144639284,42.188084519136396,37.92237144639271,94.4108630019453,60.49247623803822,56.601254895177135,64.1480888812008,49.054420909153464,18.867084965059007,37.73416993011813,3.7734169930117787,7.546833986023671,11.32025097903545,7.546833986023614,7.546833986023614,67.92150587421264,71.69492286722448,71.79415464186772
49,64,360,0,12.011999999999915,0.0,141.77366907374017,15.238095238095298,26.66666666666663,38.285240461413125,42.59177099999601,42.0775657797609,83.89605922112466,57.26970048903962,57.14285714285711,60.95238095238096,45.714285714285666,11.428571428571445,30.47619047619048,3.809523809523853,0.0,11.428571428571388,7.619047619047649,7.619047619047649,68.57142857142856,72.38095238095241,80.09065158715671
50,64,361,0,12.045366666666585,7.476309016255982,142.49185987629025,11.214463524383973,22.428927048767832,37.567987859218654,41.79383795285739,41.28926608029962,82.3243133978001,59.927175601273376,56.07231762191975,56.07231762191975,44.85785409753578,9.345386270319977,31.77431331908781,9.345386270319977,1.8690772540639955,7.476309016255982,7.476309016255982,7.476309016255982,67.28678114630367,71.02493565443166,82.3243133978001
51,64,362,0,12.078733333333249,7.7666242604746,148.381148153121,15.5332485209492,27.183184911661215,39.026803906874875,47.24253103852002,39.02680390687499,89.40055896609128,62.254229309485396,58.249681953559616,58.249681953559616,42.716433432610415,11.6499363907119,38.833121302373115,11.6499363907119,0.0,11.649936390711957,8.68334990106017,7.766624260474657,69.89961834427163,77.66624260474623,85.43286686522083
52,64,363,0,12.112099999999916,11.320754716981128,144.1884767890023,15.094339622641428,26.41509433962267,37.9240589476259,41.68060761202724,37.924058947626015,90.64461999595704,64.26183534311843,58.49056603773579,56.60377358490564,41.5094339622641,11.320754716981128,41.5094339622641,15.094339622641428,0.0,7.547169811320771,7.547169811320771,7.547169811320771,67.92452830188677,71.69811320754718,79.2452830188679
53,64,364,0,12.14546666666658,7.546833986023671,147.93527202611972,15.093667972047228,26.413918951082678,37.92237144639282,42.188084519136375,37.92237144639271,86.87058291314538,60.492476238038336,56.601254895177135,56.60125489517725,41.50758692312991,11.32025097903545,37.73416993011813,11.32025097903545,0.0,11.32025097903545,11.932592259500996,11.32025097903545,67.92150587421258,71.69492286722442,83.01517384625981
54,64,365,0,12.178833333333246,15.093667972047342,147.93527202611972,15.093667972047228,26.413918951082678,41.50758692313002,42.188084519136396,38.48145376057967,94.63681672679802,68.33948831702875,60.37467188818903,56.60125489517725,41.50758692312991,11.32025097903545,45.2810039161418,18.86708496505912,3.7734169930117787,7.546833986023614,7.546833986023614,7.546833986023614,67.92150587421258,71.69492286722442,75.56261639900563
55,64,366,0,12.212199999999912,11.711637450793305,144.86495477568167,14.814179789854165,29.628359579708217,40.90699098811427,40.90699098811427,33.53702587568508,89.19317352338071,59.71786789771943,53.70140173822108,51.849629264489295,40.7389944220987,12.96240731612238,42.590766895830484,12.962407316122267,1.8517724737317849,11.711637450793358,11.711637450793342,11.110634842390596,66.66380905434335,70.36735400180686,77.77444389673383
56,64,367,0,12.245566666666578,11.93099972543788,143.81680715880304,15.091653558090911,26.41039372665898,37.917310293965045,41.67319047385819,37.917310293965045,90.86378683505937,64.5818744334514,58.48015753760228,56.59370084284092,45.274960674272734,13.205196863329547,39.61559058998853,13.205196863329547,1.886456694761364,15.091653558090854,15.556120421309299,15.091653558090854,67.91244101140904,71.68535440093177,83.00409456950001
57,64,368,0,12.278933333333244,3.845976059210102,138.93505339424684,15.383904236840294,27.195157517485537,38.65158103686997,38.65158103686997,46.15171271052077,92.38351517617099,65.38159300657117,63.45860497696617,61.53561694736106,49.99768876973087,9.614940148025198,36.536772562495685,9.614940148025198,1.9229880296049942,15.857365525719874,15.857365525719874,17.30689226644529,69.22756906578121,73.07354512499131,80.76549724341157
58,64,369,0,12.31229999999991,3.772913389522728,136.29568025258922,15.091653558090911,26.678526425610315,37.72913389522728,41.67319047385819,45.274960674272734,90.6284896248006,64.13952762188637,62.25307092712501,60.366614232363645,49.04787406379546,9.43228347380682,35.8426772004658,5.659370084284092,1.886456694761364,15.091653558090854,15.091653558090854,15.091653558090854,67.91244101140904,71.68535440093177,79.32096158405562
59,64,370,0,12.345666666666576,3.738154508127991,131.31514810664726,11.21446352438386,29.905236065023928,37.567987859218654,37.567987859218654,45.013341059761885,89.7935526419902,59.92717560127326,57.94139487598363,59.81047213004763,48.59600860566377,9.345386270319977,35.5124678272158,5.607231762191873,1.8690772540641092,19.060922781769467,15.41280588189054,16.821695286575903,67.28678114630367,71.02493565443166,86.05877954699277
60,64,371,0,12.379033333333242,7.475329779549384,131.29794862855326,11.212994669324189,26.163654228422956,33.84599509420389,41.283858068827016,45.47065588466567,90.01489054810692,63.97851730603484,59.80263823639541,59.80263823639541,48.58964356707122,9.344162224436786,35.50781645285974,9.344162224436786,1.8688324448874027,14.950659559098824,14.950659559098824,16.819492003986227,67.27796801594485,71.01563290571954,78.57990431458008
61,64,372,0,12.412399999999908,3.772913389522728,136.29568025258922,15.091653558090911,26.678526425610315,34.16518383496378,38.47631799254377,45.8994723916986,91.25460062501675,64.5818744334514,62.25307092712501,60.366614232363645,49.04787406379546,9.43228347380682,35.8426772004658,13.205196863329547,1.886456694761364,18.86456694761364,18.864566947613582,20.751023642374946,67.91244101140904,71.68535440093177,79.32096158405562
62,64,373,0,12.445766666666572,19.054267431433274,138.71716076057265,11.210547859626217,26.15794500579443,37.5548705446221,41.77924513189827,41.27484943667569,97.44510742681926,71.39240537669552,61.658013227944025,56.05273929813097,44.842191438504756,9.342123216355162,46.71061608177581,20.55267107598138,1.8684246432710552,18.684246432710268,15.407424315426896,16.81582178943927,71.00013644429913,71.00013644429913,82.21068430392529
63,64,374,0,12.47913333333324,15.410787133703728,138.74743711267197,11.212994669324189,26.163654228422956,37.5630672556664,41.78836385325268,41.78836385325257,94.1119972007471,68.20598382699859,59.80263823639541,59.80263823639541,48.589643567071334,13.081827114211592,39.245481342634434,16.81949200398617,5.6064973346620945,19.058426208231857,14.950659559098881,16.819492003986227,71.01563290571954,71.01563290571954,82.22862757504367
64,64,375,0,12.512499999999903,14.9369717589218,138.62040945969295,8.35002105773591,22.405457638382586,37.52867708333974,37.52867708333974,44.96623953895138,89.93247907790285,67.63001603725918,59.74788703568697,59.74788703568697,48.54515821649568,9.33560734932621,35.475307927439076,13.06985028905649,5.601364409595703,19.040977618181582,18.671214698652193,18.671214698652193,67.21637291514787,67.21637291514787,74.77815659337676
65,64,376,0,12.545866666666573,11.699608033135553,133.65234031185483,11.09922273477332,29.597927292728855,33.50257886578109,41.36436088727377,38.626429120567394,90.01858155535116,61.01769026363653,53.64624321807116,51.79637276227561,40.69715002750229,9.249352278977767,42.54702048329773,12.949093190568874,1.8498704557955534,18.498704557955534,18.86505110344061,18.498704557955534,66.59533640863998,73.9948182318222,73.99481823182236
66,64,377,0,12.579233333333235,22.367476481919084,135.03074274133837,5.272064766131815,22.676007973590558,37.46505943360543,38.01739968371087,41.6793315822489,90.70403189436234,68.02802392077177,55.91869120479748,52.19077845781101,37.27912746986499,3.72791274698659,44.73495296383794,22.36747648191897,1.1368683772161603e-13,19.008699841855435,15.370578018911893,16.775607361439313,67.10242944575708,67.10242944575708,74.55825493972998
67,64,378,0,12.612599999999905,11.69410692409372,129.90463300134314,8.268982305947253,25.88600915717734,29.814239699997138,34.093887463783844,40.845759490748534,85.77450062381568,60.19909985981209,53.62101896843876,51.772018314354796,40.678014389850205,5.547001962252239,38.82901373576601,16.641005886756943,1.8490006540840795,18.856180831641254,18.490006540840966,18.490006540840966,62.86602223885933,66.56402354702749,81.35602877970018
68,64,379,0,12.645966666666569,10.992532957299659,128.71646425318474,11.587147133177954,22.288322528576877,33.18053985733915,33.78204876602727,40.96675156238141,85.54108859713052,63.25351345846447,56.794753612715,51.298487134065226,40.305954176765454,5.496266478649886,38.47386535054886,16.488799435949545,1.8320888262165909,14.656710609732954,15.10779149201004,14.656710609732897,65.95519774379812,65.95519774379812,77.03492362504998
69,64,380,0,12.679333333333236,3.693584275765602,122.78043047005507,11.680139041202622,22.46719603512571,29.778628446284912,34.05316443717878,44.93439207025126,82.59105521236192,60.12719578176285,57.250556274366545,55.4037641364838,40.62942703342151,3.693584275765602,33.2422584818903,11.080752827296692,3.693584275765488,18.467921378827953,15.229038106102058,16.62112924094515,66.4845169637806,66.4845169637806,81.25885406684279
70,64,381,0,12.7126999999999,8.276058886023751,133.70382316436263,11.103498152963994,25.90816235691625,37.196258465544936,41.38029443011839,42.19978575547768,86.40459145588001,61.041194264695264,55.51749076482031,51.81632471383227,40.71282656086828,5.551749076481997,38.86224353537432,12.954081178458068,1.850583025493961,15.26029856617379,11.103498152964107,12.954081178458125,66.62098891778442,66.62098891778442,74.11579241249129
71,64,382,0,12.746066666666566,5.187809998641193,125.58358305548137,11.005006888639741,25.678349406825987,33.21819194149596,36.86631681346925,41.01323915975318,81.45026913069974,56.11474487239697,53.19086662842528,51.35669881365209,36.68335629546573,3.6683356295466183,36.683356295465614,11.005006888639628,3.6683356295465046,18.704914957465657,15.124935270837144,16.507510332959555,66.03004133183828,69.69837696138484,73.36671259093146
72,64,383,0,12.779433333333232,10.892898631973935,131.5191898442858,11.482123332790078,25.674808298154797,32.87979746107151,37.02873512268233,37.028735122682214,84.76575968221076,59.107847533801376,52.649010054540895,47.20256073855387,32.67869589592192,3.63096621065813,43.57159452789574,18.154831053289854,3.6309662106579026,8.119087271036095,7.261932421315976,9.077415526644927,61.726425581185765,61.726425581185765,72.71004170538598
73,64,384,0,12.812799999999898,10.897838620476023,131.57883450890427,11.487330537883839,25.686451962717374,32.89470862722618,37.04552785452821,37.045527854528096,84.8042014131351,59.13465326265852,52.672886665633996,47.223967355395985,32.693515861427954,3.6326128734920076,43.59135448190398,18.163064367460038,3.6326128734920076,7.265225746984015,7.265225746983958,9.081532183729962,61.75441884936396,61.75441884936396,72.74301610293988
74,64,385,0,12.846166666666564,15.079347619442574,132.11841293937456,10.971837000064966,29.485925955614082,29.485925955614306,33.71844633342322,34.69599503631422,89.65929678557377,60.317390477770346,51.201906000302984,43.88734800025975,32.91551100019478,5.485918500032426,49.37326650029229,20.115034500119123,1.8286395000109223,10.971837000064966,7.314558000043348,7.314558000043348,65.83102200038968,65.83102200038968,69.48830100041141
75,64,386,0,12.87953333333323,18.48013730793024,130.92535964765221,8.104076311907676,25.627339477445247,32.819007709789965,36.42329293128652,33.41396263206126,85.30478684053934,59.77271347434133,48.9274169263324,43.491037267851084,32.61827795088834,5.436379658481428,45.30316382067804,19.933392081098305,1.8121265528271806,11.460894630806331,11.460894630806331,10.872759316962743,65.23655590177657,61.61230279612232,68.95611813125583
76,64,387,0,12.912899999999896,8.104076311907676,130.92535964765221,10.872759316962743,25.369771739579733,36.4232929312863,36.96027461586074,34.38268389241903,77.47768215587597,52.769921751458405,47.11529037350533,43.491037267851084,32.61827795088834,5.436379658481428,38.05465760936954,12.68488586978981,1.812126552827067,10.872759316962743,10.872759316962743,10.872759316962743,68.86080900743082,65.23655590177657,68.95611813125583
77,64,388,0,12.946266666666562,11.546043253608534,135.53697510788868,10.953538393267195,25.817737586221316,36.69389948783566,37.2348706734381,34.63812976082535,82.3743633908187,56.68154785309031,49.290922769702206,40.16297410864627,29.209435715379186,1.825589732211256,45.63974330527981,20.081487054323134,5.476769196633541,15.05419858989964,11.546043253608534,12.779128125478394,69.3724098240254,65.721230359603,73.11481179658003
78,64,389,0,12.979633333333227,11.556157632785471,131.76046941473876,7.308755823908314,25.840354025611443,36.726043487711195,40.85718713301652,38.152825500194396,82.44652365624489,56.73120111133081,49.33410181138163,40.19815703149618,32.88940120758775,0.0,43.85253494345022,18.271889559770898,3.654377911954157,15.067386126911186,11.556157632785542,12.790322691839663,69.43318032712966,62.124424503221235,69.52928166077297
79,64,390,0,13.012999999999892,11.640504929492964,136.64584414049037,11.640504929493035,29.677580891778828,33.33333333333315,41.15539986039948,34.92151478847878,87.49758029948926,58.202524647464784,49.69418673368091,40.49155956077709,29.44840695329242,1.8405254345808544,49.69418673368091,20.24577978038849,5.521576303742336,18.76975021238241,11.043152607484672,12.883678042065412,69.93996651406945,62.57786477574638,73.71298621032359
80,64,391,0,13.04636666666656,11.546043253608534,127.99975004141564,10.953538393267081,25.81773758622143,32.86061517980147,37.234870673438124,35.95994735393417,83.25970195922085,57.73021626804235,49.290922769702206,43.814153573068666,36.51179464422398,7.3023589288447965,40.16297410864627,14.60471785768948,1.1368683772161603e-13,18.617435336719037,10.953538393267195,12.779128125478394,65.721230359603,62.0700508951806,69.75568572323135
81,64,392,0,13.079733333333223,15.177361546824704,132.9771665710632,11.640504929493035,29.44840695329242,33.333333333333165,37.539500424764846,34.92151478847889,90.24207132105491,61.70565675755146,51.53471216826176,44.172610429938686,33.129457822454015,5.521576303742336,49.69418673368091,20.24577978038849,1.8405254345807407,15.17736154682476,14.72420347664621,16.56472891122695,73.62101738323105,66.25891564490792,66.36108828176617
82,64,393,0,13.113099999999893,18.432532352833512,133.94718761113168,10.84475101754174,25.561323282611696,29.14439263984838,36.86506470566725,34.29411387286065,88.62077973284468,63.13181141504589,52.41629658478519,39.764087064319824,32.53425305262533,3.6149170058472464,50.60883808186156,25.304419040930725,3.6149170058472464,14.459668023388986,10.84475101754174,12.652209520465362,68.6834231110978,61.4535890994033,68.77848671799389
83,64,394,0,13.146466666666557,18.465741429939253,130.57250984747463,8.097763301789131,25.607375986579203,32.59286857530674,36.39491947970784,37.808837547871164,89.58922651857598,64.17190029043275,52.51073270466077,39.83572825870817,32.59286857530674,0.0,50.70001778381038,25.35000889190519,7.242859683401548,14.931537753096025,11.451966686277414,12.675004445952595,68.80716699231414,65.18573715061336,69.18731997918161
84,64,395,0,13.179833333333224,3.690910215721715,133.3333333333334,11.67168292086432,29.75706948497723,33.422613513646674,37.640046425768645,37.64004642576852,82.53126141202306,52.845792029323064,49.827287912243946,44.29092258866126,33.218191941496,1.8454551078608574,42.44546748080052,12.91818575502623,5.536365323582686,15.21801267409217,14.763640862887144,14.763640862887144,70.12729409871378,66.436383882992,73.910419471332
85,64,396,0,13.213199999999889,11.687615606955088,136.94973250239198,11.687615606955196,25.871640014156696,33.468237783347966,37.69142779452349,37.691427794523584,86.28278821635747,60.95514542075669,53.59125431503878,44.35138288141138,36.959485734509485,3.6959485734508917,44.351382881411496,18.4797428672548,3.6959485734510054,14.783794293803851,14.783794293803851,16.631768580529297,73.91897146901903,66.52707432211713,74.28764693048244
86,64,397,0,13.246566666666554,7.602172631288454,137.05011613519758,11.403258946932624,23.121105415230005,34.42030053146218,38.200444697369036,39.68450620215126,81.25794441648674,58.14543988896121,53.21520841901918,45.61303578773072,38.01086315644227,3.80108631564417,38.01086315644227,11.403258946932738,3.801086315644284,19.381813296320406,15.204345262576908,17.10488842039905,68.41955368159603,60.817381050307574,76.11669415292613
87,64,398,0,13.27993333333322,0.0,130.6153066190429,15.380600784785884,30.07499179263705,33.77969821990925,41.202992053773556,41.70650962211984,87.08574877435163,57.063284805362116,55.95515437158542,52.22481074681309,48.49446712204076,9.325859061930942,35.43826443533737,5.595515437158497,1.8651718123861656,15.380600784785939,15.380600784785884,16.78654631147566,67.14618524590253,59.68549799635781,74.70007287219211
88,64,399,0,13.313299999999886,0.0,130.6153066190429,15.380600784785884,30.07499179263705,33.77969821990925,41.202992053773556,41.70650962211984,87.08574877435163,57.063284805362116,55.95515437158542,52.22481074681309,48.49446712204076,9.325859061930942,35.43826443533737,5.595515437158497,1.8651718123861656,15.380600784785939,15.380600784785884,16.78654631147566,67.14618524590253,59.68549799635781,74.70007287219211
89,64,400,0,13.346666666666552,3.765383451757316,124.31469208125584,11.907187971460148,26.625281725052524,34.09699734843223,37.841635355988345,45.341220959755795,87.33741778789512,60.71498381849205,58.363443502239306,52.71536832460322,48.9499848728459,5.648075177636088,35.77114279169507,9.413458629393403,1.882691725878658,15.52507369254851,15.061533807029491,16.944225532908206,71.54228558339008,60.246135228117964,75.40174486075288
90,64,401,0,13.380033333333218,8.650797396966846,124.04169611889542,11.606262623517523,27.081279454874448,30.950033662713395,35.03305935677369,47.06542626875574,93.57268076524268,66.78505235425595,61.900067325427244,58.031313117587956,50.29380470190961,7.737508415678349,38.687542078392084,7.737508415678462,3.8687542078391743,15.951282238473805,15.475016831356811,15.475016831356811,69.6375757411056,61.90006732542719,73.60806886261751
91,64,402,0,13.413399999999884,3.76288347353443,127.99336265977138,11.899282346174504,26.607604209509635,33.865951261809414,37.816510885792134,49.06199798232546,91.01200932134165,64.41018992653014,62.08757731331741,52.68036862948145,48.91748515594713,1.8814417367671012,39.51027647211117,13.17009215737039,5.644325210301645,15.051533894137606,15.51476601827331,16.932975630904764,63.969019050084626,56.44325210301582,71.88978782080503
92,64,403,0,13.44676666666655,11.914052274091286,128.15223381563632,15.070216539374883,30.140433078749766,30.140433078749766,37.67554134843704,39.33441995668166,95.3868519551038,65.79750427248955,58.39708909007766,52.74575788781203,48.978203752968284,13.186439471953008,43.326872550702774,13.186439471953008,1.8837770674218746,15.070216539374883,15.070216539374883,15.070216539374883,71.58352856203061,64.04842029234322,75.72690090203811
93,64,404,0,13.480133333333216,11.914052274091286,128.15223381563632,15.070216539374883,30.140433078749766,30.140433078749766,37.67554134843704,39.33441995668166,95.3868519551038,65.79750427248955,58.39708909007766,52.74575788781203,48.978203752968284,13.186439471953008,43.326872550702774,13.186439471953008,1.8837770674218746,15.070216539374883,15.070216539374883,15.070216539374883,71.58352856203061,64.04842029234322,75.72690090203811
94,64,405,0,13.51349999999988,8.32971878823448,130.4339278728106,11.78000128107522,26.34088363951875,33.526471399108914,37.43742973067943,45.318569777692375,91.32350548432866,65.05718346620198,59.60261582063845,52.152288843058614,48.427125354268696,5.587745233184933,39.11421663229385,13.03807221076454,5.587745233184819,15.359242536975136,18.62581744394953,18.62581744394953,67.05294279821823,59.60261582063845,74.87485946135864
95,64,406,0,13.546866666666547,5.153253011206703,123.89260507940344,8.148008437267016,25.50730104575962,36.439001493942214,40.24819266064187,48.61569167643741,85.7672233286725,61.082897213133265,56.480452315610364,51.01460209151901,51.01460209151901,3.6439001493941987,32.795101344548016,7.287800298788397,0.0,11.523024038313585,10.931700448182653,14.575600597576852,65.59020268909586,58.30240239030746,69.32992863222476
96,64,407,0,13.580233333333211,8.164285480499707,124.14010179036131,11.546043253608426,22.209257637582905,32.86061517980147,32.86061517980147,41.629850979610374,83.2597019592208,61.204920768504735,54.76769196633575,47.46533303749095,47.46533303749095,7.302358928844683,32.860615179801584,10.953538393267195,3.6511794644223983,15.054198589899585,10.953538393267195,14.604717857689593,69.3724098240254,62.0700508951806,73.38779897567156
97,64,408,0,13.61359999999988,10.5276828730686,126.55133114538125,7.444195949728282,26.31920718267163,33.498881773777384,37.22097974864164,46.039809297787464,88.47325886382632,62.39373163220063,55.83146962296223,48.38727367323395,48.38727367323395,3.722097974864141,37.220979748641525,11.166293924592424,3.722097974864141,11.770307274870857,14.888391899456622,14.888391899456622,66.99776354755477,55.831469622962345,67.41006136855248
98,64,409,0,13.646966666666543,8.322864090710473,126.55133114538125,8.322864090710574,26.31920718267163,33.498881773777384,37.22097974864164,46.039809297787464,88.47325886382632,62.39373163220063,55.83146962296223,48.38727367323395,48.38727367323395,3.722097974864141,37.220979748641525,11.166293924592424,3.722097974864141,11.770307274870857,14.888391899456622,14.888391899456622,66.99776354755477,55.831469622962345,67.41006136855248
99,64,410,0,13.68033333333321,8.074960568423668,119.17066092772825,11.419718751492528,29.778983180587293,32.50108934392574,36.112321493250874,36.8274863950446,85.83800827442543,56.06139875487344,50.557250090551406,43.334785791901254,43.334785791901254,7.222464298650266,39.72355364257601,10.833696447975285,0.0,14.889491590293646,10.833696447975285,12.639312522637852,65.00217868785177,57.77971438920156,68.99249333990251
100,64,411,0,13.713699999999877,19.46692384060073,130.1370122105011,8.083200158094447,29.144392639848153,36.14917005847269,36.32946628943979,34.29411387286054,90.37292514618127,61.771728873941925,48.80137957893794,39.76408706431971,39.76408706431971,7.229834011694493,46.99392107601432,18.074585029236346,0.0,14.459668023389042,14.459668023389042,16.267126526312666,68.6834231110978,61.4535890994033,68.77848671799389
101,64,412,0,13.747066666666544,26.028419642084902,125.33887914334532,7.150556801459857,25.281036017859222,35.93110323821568,35.93110323821568,31.97826217007531,89.38196001824798,64.45424798945302,48.26625840985389,28.602227205839313,35.75278400729917,3.575278400729985,53.629176010948754,25.02694880510944,3.5752784007298715,14.741250487198839,14.301113602919656,16.088752803284592,71.5055680145984,60.77973281240861,68.30559793746751
102,64,413,0,13.780433333333209,16.149921136847134,133.61558952502878,10.833696447975285,32.70109793536251,28.889857194600836,36.112321493250874,32.29984227369447,90.28080373312748,58.3412408428147,46.94601794122627,28.889857194600836,28.889857194600836,0.0,57.77971438920156,25.278625045275703,7.222464298650152,14.8894915902937,10.833696447975285,12.639312522637852,68.6134108371769,61.39094653852669,72.31486743515464
103,64,414,0,13.813799999999874,16.149921136847134,133.61558952502878,10.833696447975285,32.70109793536251,28.889857194600836,36.112321493250874,32.29984227369447,90.28080373312748,58.3412408428147,46.94601794122627,28.889857194600836,28.889857194600836,0.0,57.77971438920156,25.278625045275703,7.222464298650152,14.8894915902937,10.833696447975285,12.639312522637852,68.6134108371769,61.39094653852669,72.31486743515464
104,64,415,0,13.84716666666654,11.600783659405206,128.397146523042,11.600783659405312,25.940140854698697,33.01640910592505,33.219588925828724,34.80235097821555,83.65444063910039,58.00391829702607,49.52461365888769,33.01640910592505,33.01640910592505,0.0,47.69036870855848,22.010939403950147,7.336979801316716,14.673959602633317,14.673959602633374,16.508204552962525,66.0328182118501,58.69583841053344,73.46145301206688
105,64,416,0,13.880533333333206,10.112414407143788,118.03834567872954,7.994565542518879,25.28103601785919,28.602227205839426,32.37552289467356,39.97282771259408,81.52889140799999,56.53011507755377,50.05389761021888,35.75278400729917,39.32806240802904,1.7876392003648789,41.11570160839403,12.51347440255472,8.938196001824736,14.301113602919656,10.725835202189728,12.513474402554664,67.93028961386847,57.20445441167868,71.86220647643135
106,64,417,0,13.913899999999872,8.05659494510751,118.95419883248482,11.39374583791774,25.47719021193927,32.626722829551035,32.626722829551035,40.282974725538,82.16146967643338,56.968729189588515,52.243772496881206,43.236225514660305,46.8392443075486,5.4045281893324955,34.22867853243952,9.007546982221015,1.801509396444203,14.855627054164174,14.412075171553454,14.412075171553454,68.45735706487886,61.25131947910211,68.83557738550567
107,64,418,0,13.947266666666538,5.200289924245052,117.66912862623417,11.62820177331942,26.001449621225728,29.417282156558485,33.298102455611904,45.48396058128311,87.40510180291572,61.64043842411304,56.99598417833215,47.803083504407596,47.803083504407596,3.6771602695698675,36.77160269569822,7.354320539139621,3.6771602695698675,15.16132019376111,14.7086410782793,14.7086410782793,73.54320539139633,62.511724582686895,70.25204830862597
108,64,419,0,13.980633333333204,5.200289924245052,117.66912862623417,11.62820177331942,26.001449621225728,29.417282156558485,33.298102455611904,45.48396058128311,87.40510180291572,61.64043842411304,56.99598417833215,47.803083504407596,47.803083504407596,3.6771602695698675,36.77160269569822,7.354320539139621,3.6771602695698675,15.16132019376111,14.7086410782793,14.7086410782793,73.54320539139633,62.511724582686895,70.25204830862597
109,64,420,0,14.01399999999987,5.188028170939777,117.44898298841531,11.005469701975017,23.20156731881034,33.01640910592505,36.684899006583464,45.376714040777905,83.65444063910029,60.502285387703864,56.86159346020429,44.021878807900066,47.69036870855837,1.8342449503292073,34.85065405625414,9.17122475164581,5.502734850987508,15.125571346925952,11.005469701975017,14.673959602633431,69.70130811250846,58.69583841053344,70.0864011431586
110,64,421,0,14.047366666666536,3.8529280737043337,119.50289812793699,12.18402837371098,27.2443156834039,34.67635266333946,38.72144791785391,47.65808824737221,87.86027808624587,60.92014186855473,57.79392110556569,46.23513688445257,50.088064958156906,1.9264640368521668,36.602816700191624,5.779392110556614,5.779392110556614,15.88602941579072,12.184028373710962,13.485248257965338,73.20563340038325,57.793921105565744,69.77949523386998
111,64,422,0,14.0807333333332,5.147489341239524,116.47438781683127,10.919473857827938,25.737446706197954,32.7584215734837,32.960013762818505,41.500385825693044,82.11818640761355,56.50527325338846,52.77745697950172,43.677895431311754,43.677895431311754,3.6398246192759416,36.39824619275987,7.279649238551997,3.6398246192760553,15.00738136399846,14.559298477103937,14.559298477103937,69.15666776624357,58.237193908415634,76.78218445898719
112,64,423,0,14.114099999999867,3.67716026956964,117.66912862623417,11.628201773319311,29.64621387507491,33.09444242612835,33.298102455611904,41.111901634597814,82.96051707218504,53.540261685929195,51.48024377397735,44.12592323483773,44.12592323483773,3.677160269569754,36.77160269569822,7.354320539139621,3.6771602695698675,11.628201773319365,14.708641078279243,14.708641078279243,66.1888848522567,55.15740404354722,62.61978295993844
113,64,424,0,14.147466666666531,5.215518392060902,121.70163794017162,11.662253662548647,26.077591960304737,33.19135580186503,37.0632219450125,41.23229324352908,83.20345767407836,57.25204509709737,53.474962125226966,44.25514106915341,44.25514106915341,3.6879284224294224,36.87928422429445,7.375856844858845,3.6879284224294224,15.205718425394071,14.751713689717747,14.751713689717747,70.07064002615948,55.31892633644168,60.035125159986045
114,64,425,0,14.1808333333332,5.268176727903696,122.9303951300667,11.78000128107522,30.033228201175156,33.52647139910914,37.4374297306792,41.64859394117243,87.67993517384795,57.83008877210386,54.014870587453515,48.427125354268696,48.427125354268696,7.450326977579834,37.251634887898945,7.450326977579834,3.725163488789917,14.900653955159612,14.900653955159612,14.900653955159612,67.05294279821823,55.87745233184853,63.76452779042986
115,64,426,0,14.214199999999863,3.693584275765488,125.58186537603001,15.229038106102058,29.778628446284813,33.2422584818903,36.93584275765579,41.295527606180855,86.9366487760442,57.33984755234398,55.4037641364838,44.323011309186995,44.323011309186995,3.693584275765602,40.62942703342151,11.080752827296806,7.387168551531204,11.680139041202747,14.77433710306235,14.77433710306235,70.17810123954621,55.40376413648386,71.04751210850145
116,64,427,0,14.24756666666653,3.693584275765602,125.58186537603001,15.229038106101948,29.778628446284785,33.2422584818903,37.120062567571956,41.29552760618096,89.86878414050238,60.12719578176285,57.25055627436666,44.323011309186995,44.323011309186995,3.693584275765488,44.32301130918711,11.080752827296806,11.080752827296806,15.229038106102003,15.229038106102058,14.77433710306235,66.4845169637806,51.710179860718256,74.69811914695559
117,64,428,0,14.280933333333197,14.629116000086583,128.00476500075774,11.565331678771418,29.485925955614082,32.91551100019478,40.230069000238245,37.29707397552705,92.59490853952818,63.134424253586204,54.859185000324715,43.88734800025975,43.88734800025975,7.314558000043235,47.54462700028148,18.286395000108314,3.657279000021731,15.079347619442574,14.629116000086583,14.629116000086583,69.4883010004113,54.859185000324715,69.87221718723241
118,64,429,0,14.314299999999864,18.8561808316412,129.43004578588693,11.69410692409372,29.584010465345614,33.28201177351389,36.980013081682046,37.71236166328256,97.27922626772822,68.1877749275678,57.319020276607034,44.37601569801825,44.37601569801825,7.396002616336318,51.772018314354796,22.188007849009182,3.6980013081682728,15.24724999724977,14.792005232672807,14.792005232672807,70.26202485519565,55.4700196225229,78.00942305561603
119,64,430,0,14.347666666666528,15.785294491053735,134.05205094851436,11.48548879731095,30.627970126162495,34.668508186471016,42.28712340838642,39.97067448286147,96.92978347313083,66.86181283356174,57.427443986554636,45.941955189243686,42.11345892347333,5.742744398655418,51.68469958789922,21.056729461736722,1.9142481328851773,19.521577166879922,15.313985063081248,15.313985063081248,72.74142904963588,57.427443986554636,73.14331845637922
120,64,431,0,14.381033333333194,3.8687542078391743,135.46165391706145,15.951282238473805,31.190893588414227,34.8187878705528,38.88049859747223,39.453706398132624,90.316976370819,59.18055959719889,56.09693601366848,50.29380470190961,46.42505049407043,9.671885519597936,40.62191918231167,9.67188551959805,5.803131311758875,15.951282238473805,15.475016831356811,17.4093939352764,69.63757574110565,58.03131311758801,73.9124453596677
121,64,432,0,14.41439999999986,5.317522438901554,131.65567027849448,15.040224702635669,30.080449405271224,37.60056175658883,37.78809689379949,38.345199623779514,87.2138525403592,57.517799435669346,54.52081454705399,45.12067410790678,41.36061793224792,5.6400842634883475,43.240646020077406,9.400140439147322,9.400140439147322,15.503108770497557,15.040224702635612,15.040224702635612,71.44106733751909,60.16089881054239,71.83577237073732
122,64,433,0,14.447766666666526,5.371910859116514,136.7992724449715,15.194058385643757,26.859554295582488,38.17459923894204,41.95596504641413,38.737400099532664,84.93736851100012,58.106100149299024,55.07846164795842,49.38068975334215,45.58217515693116,9.496286491027377,36.08588866590378,9.496286491027263,1.899257298205498,15.661676901452644,15.194058385643757,15.194058385643757,72.17177733180768,56.977718946163975,76.3491984778843
123,64,434,0,14.481133333333192,5.371910859116514,136.7992724449715,15.194058385643757,26.859554295582488,38.17459923894204,41.95596504641413,38.737400099532664,84.93736851100012,58.106100149299024,55.07846164795842,49.38068975334215,45.58217515693116,9.496286491027377,36.08588866590378,9.496286491027263,1.899257298205498,15.661676901452644,15.194058385643757,15.194058385643757,72.17177733180768,56.977718946163975,76.3491984778843
124,64,435,0,14.514499999999858,15.283214398017321,137.7610329149032,12.082441866603636,30.804303424830984,38.208035995043474,42.20215513229415,39.890360689174095,97.41176055739118,66.72746619290699,57.31205399256521,49.67044679355661,42.02883959454789,7.6416071990087175,49.67044679355661,19.104017997521737,0.0,15.283214398017378,15.283214398017378,15.283214398017378,68.77446479107829,57.31205399256521,76.79720189549937
125,64,436,0,14.547866666666524,11.556157632785471,131.6083502921535,10.963133735862584,25.840354025611443,36.54377911954202,40.36392333076896,34.668472898356555,82.44652365624489,56.73120111133081,49.33410181138163,43.85253494345034,40.19815703149618,9.135944779885449,38.370968075519045,12.79032269183972,1.8271889559771353,14.617511647816798,14.617511647816741,14.617511647816741,65.7788024151755,54.81566867931292,66.18359886609532
126,64,437,0,14.58123333333319,15.067386126911186,135.21198274230528,11.556157632785542,29.462536635863717,32.88940120758775,40.36392333076896,33.691699623010834,89.58817573737382,60.269544507644966,51.16129076735865,40.198157031496066,40.198157031496066,7.308755823908314,47.506912855404494,18.27188955977101,3.6543779119542705,15.067386126911241,10.963133735862584,12.790322691839663,65.77880241517545,51.16129076735871,58.92507327172741
127,64,438,0,14.614599999999855,18.580317967344815,134.82430552758592,10.931700448182596,25.766265056033244,36.62074327719575,36.62074327719575,35.88825441532725,90.14511123093803,64.57007515722076,52.836552166216165,40.08290164333641,40.08290164333641,7.287800298788397,47.37070194212481,21.863400896365306,0.0,11.52302403831353,10.931700448182653,12.753650522879752,65.59020268909586,54.65850224091321,65.99383851536234
128,64,439,0,14.64796666666652,18.580317967344815,134.82430552758592,10.931700448182596,25.766265056033244,36.62074327719575,36.62074327719575,35.88825441532725,90.14511123093803,64.57007515722076,52.836552166216165,40.08290164333641,40.08290164333641,7.287800298788397,47.37070194212481,21.863400896365306,0.0,11.52302403831353,10.931700448182653,12.753650522879752,65.59020268909586,54.65850224091321,65.99383851536234
129,64,440,0,14.681333333333187,18.285277970315228,136.26944572769276,11.340047999689718,25.357118195416852,32.27434240919047,36.03923632953677,30.639122491309383,85.23915126215559,60.11295160488317,48.4115136137857,32.27434240919047,32.27434240919047,3.586038045465557,50.20453263651848,21.516228272793683,7.1720760909312276,14.785613638938162,14.344152181862455,14.344152181862455,68.13472286384649,53.790570681984036,68.51116066151027
130,64,441,0,14.714699999999851,8.148008437267118,134.82430552758592,15.024185205156282,29.37806221347975,36.62074327719553,40.248192660641635,34.56907211494067,86.61451777154156,57.61512019156776,51.01460209151901,36.439001493942214,36.439001493942214,3.6439001493941987,47.37070194212481,18.219500746971107,7.287800298788397,11.523024038313512,10.931700448182653,12.753650522879752,69.23410283849012,54.658502240913265,69.61661460488901
131,64,442,0,14.74806666666652,10.388734331563485,139.57294538208566,14.691888987587959,29.38377797517603,33.05675022207288,36.91291424114385,31.381888633935304,82.86603097395259,54.60265792936365,47.74863920966095,33.05675022207299,33.05675022207299,3.6729722468969612,47.74863920966095,18.36486123448492,7.3459444937939224,15.14405253391851,14.691888987587959,14.691888987587959,66.11350044414587,51.421611456557855,70.17203624780733
132,64,443,0,14.781433333333185,11.407173946099212,133.46880994099615,14.87313516519504,25.50721637464233,36.072651335404316,39.843545684666374,30.82048681132285,82.2583011415953,57.035869730496174,48.69807930279592,32.46538620186391,32.46538620186391,3.607265133540409,46.89444673602566,18.036325667702158,7.2145302670809315,14.87313516519493,10.82179540062134,14.42906053416175,68.53803753726817,50.50171186956601,65.82641157345287
133,64,444,0,14.81479999999985,11.407173946099212,133.46880994099615,14.87313516519504,25.50721637464233,36.072651335404316,39.843545684666374,30.82048681132285,82.2583011415953,57.035869730496174,48.69807930279592,32.46538620186391,32.46538620186391,3.607265133540409,46.89444673602566,18.036325667702158,7.2145302670809315,14.87313516519493,10.82179540062134,14.42906053416175,68.53803753726817,50.50171186956601,65.82641157345287
134,64,445,0,14.848166666666517,8.14800843726712,131.1804053781916,10.931700448182596,29.378062213479833,36.62074327719575,40.248192660641635,35.88825441532725,83.0937080370873,54.17047012925858,47.37070194212481,32.795101344548016,32.795101344548016,0.0,47.37070194212481,18.219500746970994,7.287800298788397,15.024185205156337,14.575600597576852,16.39755067227395,72.87800298788432,54.658502240913265,73.69331987494427
135,64,446,0,14.881533333333184,8.156473902861785,135.01366682188234,14.590744082801734,29.408584883752393,36.476860207004165,40.29000897598347,34.60498804370833,85.85633215616528,56.62731502245892,51.06760428980601,40.12454622770463,36.47686020700428,5.471529031050636,45.59607525875538,16.41458709315191,5.471529031050636,15.039794752436835,11.53499601456942,14.590744082801734,69.3060343933081,54.71529031050636,66.06240356088469
136,64,447,0,14.914899999999848,8.171437426603287,135.26135721272644,15.067386126911298,25.580645383679325,36.54377911954202,40.36392333076919,33.691699623010884,81.71437426603319,56.731201111330876,51.161290767358764,40.19815703149618,36.54377911954202,5.481566867931406,42.02534598747309,12.790322691839606,5.481566867931178,18.63374428309695,10.963133735862584,12.79032269183972,69.43318032712966,51.16129076735871,69.81679197752669
137,64,448,0,14.948266666666514,8.090802899817868,133.87773104643475,14.473268221236253,29.17180471496617,36.363636363636424,39.96561815053444,34.32636957423009,85.16506880909657,56.17138607307482,50.656438774326716,43.419804663708646,43.419804663708646,10.854951165927218,39.8014876083995,10.854951165927105,0.0,10.854951165927105,10.854951165927162,10.854951165927162,65.12970699556291,47.038121719017624,61.9356114495768
138,64,449,0,14.98163333333318,11.651858392038607,129.0150672167541,11.05392344777681,26.054347428799755,37.03018525851602,37.03018525851602,37.57611424131619,86.01881374067281,59.98161222979245,53.427296664254186,44.2156937911069,40.531052641847964,5.526961723888348,42.3733732164776,12.896244022406222,1.8423205746295253,14.738564597035634,11.651858392038589,12.896244022406222,70.00818183591934,55.26961723888371,70.3949703144082
139,64,450,0,15.014999999999846,11.662253662548576,140.18979702799865,11.063785267288381,29.733029498902283,37.063221945012515,40.73450083127908,34.986760987646015,86.80352579892984,57.25204509709737,49.787033702797544,44.25514106915341,40.567212646723874,9.21982105607367,42.411176857938585,12.907749478502978,1.843964211214825,15.205718425394126,14.751713689717803,14.751713689717803,66.38271160373,51.630997914012255,70.93871959738412
140,64,451,0,15.048366666666512,14.931537753095968,134.1885143261121,11.45196668627736,32.592868575306625,36.21429841700751,43.607789949300226,29.86307550619205,88.1131909888043,56.219709512811605,47.07858794210972,47.07858794210961,39.83572825870817,14.485719366802982,43.45715810040883,10.864289525102208,3.621429841700774,14.485719366802982,18.1071492085037,16.29643428765337,68.80716699231408,54.3214476255111,69.65959385751158
141,64,452,0,15.081733333333178,22.450930362887338,133.077660359187,11.072730647165372,29.757069484977116,36.90910215721783,41.26563070601153,35.01504876259271,97.72203217588182,68.05702164344687,55.36365323582663,51.67274302010492,44.290922588661374,14.7636408628872,47.981832804382975,18.4545510786088,3.6909102157218285,15.218012674092115,14.763640862887087,16.609095970747944,70.12729409871372,55.36365323582663,67.35279108866206
142,64,453,0,15.115099999999844,19.021094935120782,138.0227141165774,11.796382309369077,33.77969821990925,37.303436247723766,41.202992053773556,34.39206888956794,98.76608706825807,65.14765065187187,54.08998255919926,44.764123497268315,44.764123497268315,11.191030874316994,52.22481074681309,18.651718123861883,0.0,18.651718123861826,14.921374499089495,16.78654631147566,70.87652887067492,55.95515437158548,71.7545923045037
143,64,454,0,15.14846666666651,19.021094935120782,138.0227141165774,11.796382309369077,33.77969821990925,37.303436247723766,41.202992053773556,34.39206888956794,98.76608706825807,65.14765065187187,54.08998255919926,44.764123497268315,44.764123497268315,11.191030874316994,52.22481074681309,18.651718123861883,0.0,18.651718123861826,14.921374499089495,16.78654631147566,70.87652887067492,55.95515437158548,71.7545923045037
144,64,455,0,15.181833333333175,22.852353566196875,139.0054400015888,11.270711351480145,30.28912664076906,37.56903783826715,41.49635859920303,34.63694145676237,98.82870848252867,68.55706069859048,56.35355675740084,48.83974918974741,48.83974918974741,15.02761513530686,48.83974918974741,18.78451891913369,3.756903783826715,15.490111126000176,15.02761513530686,16.906067027220217,71.3811718927077,56.35355675740084,71.77554600934785
145,64,456,0,15.21519999999984,18.845713897261867,133.05414864423437,14.783794293803794,29.797690023617886,33.26353716105859,36.95948573450937,30.47757271037832,93.57394394123735,63.8019645901523,53.59125431503878,44.35138288141138,44.35138288141138,14.783794293803794,48.04733145486239,14.783794293803908,0.0,18.479742867254743,14.783794293803794,16.631768580529297,70.22302289556808,55.439228601764285,71.0929902825155
146,64,457,0,15.248566666666507,7.819124531863054,136.83467930760503,19.934934283591105,31.519898670962537,35.186060393384196,39.09562265931595,35.40259203953964,94.5596960128874,63.039797341924846,58.643433988973584,50.82430945711042,50.82430945711042,15.63824906372622,43.00518492524736,7.819124531863167,0.0,19.54781132965786,15.638249063726334,15.638249063726334,74.28168305269992,54.73387172304206,74.6920822148275
147,64,458,0,15.281933333333171,3.8052119532359256,133.23676744463214,15.689290811054748,30.678599553894813,34.24690757912367,38.052119532359484,38.24190684202388,88.26123298973785,57.583305775827135,55.17557332192143,49.46775539206749,53.272967345303414,13.318241836325797,36.14951355574158,1.9026059766180197,1.9026059766180197,15.689290811054748,15.220847812943816,15.220847812943816,68.49381515824717,53.27296734530336,73.19471335655618
148,64,459,0,15.31529999999984,3.8052119532359256,133.23676744463214,15.689290811054748,30.678599553894813,34.24690757912367,38.052119532359484,38.24190684202388,88.26123298973785,57.583305775827135,55.17557332192143,49.46775539206749,53.272967345303414,13.318241836325797,36.14951355574158,1.9026059766180197,1.9026059766180197,15.689290811054748,15.220847812943816,15.220847812943816,68.49381515824717,53.27296734530336,73.19471335655618
149,64,460,0,15.348666666666505,3.9480306397975937,134.23304175312137,15.792122559190716,31.584245118381546,35.53227575817914,39.67721687834106,40.26217054518121,91.14736519599694,59.74454467653853,57.246444277066416,55.27242895716756,55.27242895716756,15.792122559190716,35.53227575817914,3.9480306397975937,0.0,11.844091919393065,15.792122559190716,15.792122559190716,71.06455151635828,55.27242895716756,68.15357575335885
150,64,461,0,15.38203333333317,3.9480306397977074,142.12910303271656,20.131085272590607,31.584245118381432,39.48030639797685,43.60742372348202,39.48030639797685,94.83495032536695,63.29174594467118,61.194474916864124,59.22045959696527,59.22045959696527,19.740153198988423,35.53227575817914,0.0,0.0,15.792122559190716,16.278147341060652,15.792122559190773,67.11652087656057,51.324398317369855,71.50187596107018
151,64,462,0,15.415399999999837,8.742046988891106,136.8905188036278,19.54781132965786,27.36693586152103,35.40259203953964,43.00518492524725,39.29061450563987,94.15472757378515,66.92092642500128,62.55299625490511,58.643433988973584,62.552996254905224,21.502592462623625,33.23127926041843,1.954781132965877,1.9547811329657634,15.638249063726334,11.728686797794694,13.683467930760514,74.28168305269992,54.73387172304206,71.34281658322921
152,64,463,0,15.448766666666502,31.015382780154937,139.56922251069727,15.984962402692691,31.256751266968667,34.892305627674205,42.64615132271297,35.107029535132284,113.0307531195604,81.78377706305731,65.90768840782926,58.15384271279049,58.15384271279049,23.261537085116174,54.27691986527111,23.261537085116174,7.753845695038763,19.76850525219492,15.507691390077468,15.507691390077468,73.66153410286796,54.27691986527111,74.57409994950356
153,64,464,0,15.482133333333168,31.015382780154937,139.56922251069727,15.984962402692691,31.256751266968667,34.892305627674205,42.64615132271297,35.107029535132284,113.0307531195604,81.78377706305731,65.90768840782926,58.15384271279049,58.15384271279049,23.261537085116174,54.27691986527111,23.261537085116174,7.753845695038763,19.76850525219492,15.507691390077468,15.507691390077468,73.66153410286796,54.27691986527111,74.57409994950356
154,64,465,0,15.515499999999834,26.917876023809647,140.85021376965165,19.033812671574537,30.454100274519305,38.067625343149075,45.681150411778845,30.69110073821303,106.86091662632786,76.51497997801563,62.81158181619605,57.101438014723726,57.101438014723726,26.64733774020442,49.48791294609384,19.033812671574537,7.613525068629883,15.227050137259653,15.227050137259653,15.227050137259653,72.32848815198338,53.294675480408785,65.71491014841136
155,64,466,0,15.5488666666665,23.733311944061825,146.35542365504807,20.169436787492607,31.890679685633224,39.75280551918085,47.46662388812365,35.81904670950613,111.38935541559708,79.50561103836137,67.24438384150847,59.33327986015456,59.33327986015456,23.733311944061825,51.42217587880066,19.777759953384816,3.9555519906770087,16.30915866518337,15.822207962707864,17.79998395804637,71.19993583218547,55.37772786947761,68.28341440044315
156,64,467,0,15.582233333333166,22.9497361958493,139.64877142112863,19.238158996271885,30.183307116181822,37.72913389522728,41.502047284750006,33.95622050570455,105.91072585217148,75.83462058793009,64.13952762188637,56.59370084284092,60.366614232363645,24.52393703189773,47.1614173690341,16.978110252852275,5.659370084284092,15.091653558090911,11.318740168568183,13.205196863329547,67.91244101140904,52.82078745331819,72.5734380788919
157,64,468,0,15.615599999999832,26.664296612298813,143.34384615199946,18.854504950126056,26.39630693017648,33.938108910226674,41.65096279489709,34.14696078246191,105.8542351062988,79.54724352908158,65.99076732544114,56.56351485037811,60.33441584040321,24.510856435163873,47.13626237531503,16.969054455113337,5.656351485037817,15.083603960100788,15.083603960100788,15.083603960100788,71.64711881047884,56.563514850378056,72.5347288016714
158,64,469,0,15.648966666666498,23.39091565768625,146.12682815820835,19.22721423134317,30.763542770149115,38.45442846268634,46.14531415522379,34.82196599965792,107.94672472533806,77.2924446262579,65.3725283865669,57.68164269402968,57.68164269402968,23.072657077611893,49.990757001492284,15.381771385074558,3.8454428462687247,15.381771385074558,15.381771385074558,15.381771385074558,73.06341407910418,53.83619984776101,66.38263586065064
159,64,470,0,15.682333333333164,22.625405940151154,139.57428545009682,19.227897731964905,34.146960782461946,37.709009900251885,45.40766091864986,33.93810891022679,109.61588235152892,75.51223347846219,64.10531683042836,56.563514850378056,60.33441584040327,24.510856435163873,50.90716336534024,16.969054455113337,5.656351485037817,11.312702970075634,11.312702970075577,11.312702970075577,64.10531683042842,49.02171287032763,64.54742770270474
160,64,471,0,15.71569999999983,26.932515913954898,140.97827963441372,19.044164637172116,30.470663419475386,38.08832927434446,41.89716220177888,34.49044908473816,110.71852142887768,80.34741862532593,66.65457623010246,60.94132683895083,64.75015976638525,28.566246955758174,47.61041159293029,13.330915246020481,9.522082318586058,15.235331709737693,15.235331709737693,15.235331709737693,68.55899269381973,53.32366098408198,68.98089816947645
161,64,472,0,15.749066666666495,26.67852642561043,143.37070880186366,18.86456694761364,30.183307116181822,37.72913389522728,41.502047284750006,34.16518383496372,109.67438055849544,79.58969514298781,66.02598431664768,60.36661423236359,60.36661423236359,26.410393726659095,49.04787406379546,18.86456694761364,7.545826779045456,15.556120421309355,11.318740168568183,11.318740168568183,67.91244101140904,52.82078745331813,72.08140909670506
162,64,473,0,15.78243333333316,15.093667972047228,135.8954102119933,19.24072688028989,34.169744158514405,37.734169930118014,41.50758692312979,37.73416993011807,105.9248626757781,71.79415464186766,64.14808888120075,60.37467188818897,64.14808888120086,24.52721045457679,43.39429541963591,9.43354248252956,5.660125489517668,15.093667972047285,15.093667972047285,15.093667972047285,64.1480888812008,49.05442090915352,68.33948831702877
163,64,474,0,15.815799999999829,15.093667972047228,135.8954102119933,19.24072688028989,34.169744158514405,37.734169930118014,41.50758692312979,37.73416993011807,105.9248626757781,71.79415464186766,64.14808888120075,60.37467188818897,64.14808888120086,24.52721045457679,43.39429541963591,9.43354248252956,5.660125489517668,15.093667972047285,15.093667972047285,15.093667972047285,64.1480888812008,49.05442090915352,68.33948831702877
164,64,475,0,15.849166666666491,26.423514707860047,138.26342360205626,18.684246432710268,29.89479429233654,37.554870544621856,41.10534215196253,33.83860949281238,108.62603734293532,78.82892205717901,65.39486251448608,56.052739298130916,56.052739298130916,22.421095719252378,52.31589001158886,22.42109571925232,3.7368492865421103,14.947397146168214,14.947397146168214,14.947397146168214,67.26328715775708,52.31589001158886,67.67721898562475
165,64,476,0,15.88253333333316,23.162976339450427,140.94633422609667,19.416912588556276,30.463758825468744,42.06040177097826,41.88766838501965,34.27172867865238,106.8948076819966,76.53924678694635,64.73548750412124,57.11954779775397,60.9275176509376,24.751804045693348,47.59962316479505,13.327894486142668,5.711954779775283,15.231879412734429,15.231879412734429,15.231879412734429,68.54345735730476,57.11954779775397,65.73575170347566
166,64,477,0,15.915899999999825,19.048449715029577,134.53737501872774,18.678541692428155,29.885666707885093,41.09279172334209,41.09279172334209,33.828277768738864,101.140465725838,71.37060759468395,61.63918758501296,52.29991673879891,56.03562507728458,20.546395861670987,46.69635423107047,13.074979184699714,5.603562507728498,14.942833353942547,14.942833353942547,13.074979184699714,67.24275009274152,52.29991673879891,64.48832455172702
167,64,478,0,15.94926666666649,19.238158996271885,135.8248820228182,18.86456694761364,26.410393726659095,37.72913389522728,41.502047284750006,33.95622050570449,98.16827734129079,71.78457293201673,62.25307092712495,56.59370084284086,56.59370084284086,22.637480337136367,41.502047284750006,11.318740168568183,7.545826779045456,15.091653558090911,15.091653558090911,15.091653558090911,64.13952762188632,52.82078745331813,72.57343807889188
168,64,479,0,15.982633333333157,19.238158996271885,135.8248820228182,15.091653558090911,30.183307116181822,37.72913389522728,45.274960674272734,34.16518383496372,98.38554417439131,68.3303676699275,58.480157537602224,56.59370084284086,56.59370084284086,22.637480337136367,41.502047284750006,11.318740168568183,7.545826779045456,15.091653558090911,11.318740168568183,13.205196863329547,64.13952762188632,49.047874063795405,68.33036766992754
169,64,480,0,16.015999999999824,14.942833353942547,134.48550018548303,15.40272006607683,29.885666707885207,37.35708338485642,41.09279172334209,37.35708338485642,97.20023079698157,67.34643982294172,59.77133341577024,59.77133341577024,59.77133341577024,22.41425003091382,37.35708338485642,3.735708338485665,7.47141667697133,11.207125015456938,14.942833353942547,13.074979184699714,63.50704175425591,48.564208400313305,67.65655553747777
170,64,481,0,16.04936666666649,7.546833986023671,132.06959475541362,15.093667972047228,26.413918951082678,33.960752937106236,41.50758692313002,41.50758692312996,90.56200783228354,64.14808888120086,60.37467188818897,60.37467188818897,60.37467188818897,18.867084965059007,30.18733594409457,0.0,7.546833986023557,11.32025097903545,8.437616903827237,9.43354248252956,64.1480888812008,49.05442090915352,65.13927685612404
171,64,482,0,16.082733333333156,7.545826779045456,135.8248820228182,15.556120421309355,26.410393726659095,37.72913389522728,41.502047284750006,45.27496067427268,94.398262846674,68.01716341904412,64.13952762188632,64.13952762188632,64.13952762188632,18.86456694761364,30.183307116181822,0.0,7.545826779045456,11.318740168568183,11.318740168568183,11.318740168568183,64.13952762188632,49.047874063795405,68.33036766992755
172,64,483,0,16.116099999999822,3.809351053756018,133.38169508078275,15.706356759694497,26.665457376292807,38.09351053756109,38.09351053756109,45.71221264507324,91.50375235521409,64.87091089786159,62.85429238697577,64.75896791385378,60.94961686009776,17.142079741902535,28.570132903170816,1.904675526878009,5.71402658063414,15.237404215024412,11.428053161268338,13.332728688146403,64.75896791385384,49.52156369882937,69.51413356361904
173,64,484,0,16.149466666666488,3.809351053756018,133.38169508078275,15.706356759694497,26.665457376292807,38.09351053756109,38.09351053756109,45.71221264507324,91.50375235521409,64.87091089786159,62.85429238697577,64.75896791385378,60.94961686009776,17.142079741902535,28.570132903170816,1.904675526878009,5.71402658063414,15.237404215024412,11.428053161268338,13.332728688146403,64.75896791385384,49.52156369882937,69.51413356361904
174,64,485,0,16.182833333333154,11.932592259500996,135.8954102119933,15.093667972047342,26.413918951082678,37.73416993011824,41.67875295620474,45.281003916141685,98.1813807131106,71.79415464186772,66.0347973777067,67.92150587421258,64.1480888812008,20.75379346156501,32.07404444060046,1.8867084965058893,5.660125489517668,15.093667972047228,11.32025097903545,13.206959475541339,64.1480888812008,52.827837902165356,68.85839848884856
175,64,486,0,16.21619999999982,11.320754716981128,139.6736265911074,19.241583070161393,30.188679245283083,37.73584905660368,41.509433962263984,41.680607612027394,101.8867924528302,71.69811320754712,66.03773584905656,67.92452830188682,64.15094339622641,24.52830188679252,35.84905660377353,1.88679245283015,9.433962264150978,11.320754716981128,8.437992367923766,9.43396226415092,67.92452830188677,49.05660377358487,65.14217547785692
176,64,487,0,16.249566666666485,11.428571428571445,137.1957569932884,15.707069049972054,30.47619047619048,34.28571428571422,38.095238095238074,45.87274125254209,102.85714285714289,72.38095238095241,66.66666666666674,68.57142857142856,64.76190476190482,20.95238095238102,36.19047619047615,1.9047619047618127,9.523809523809632,11.428571428571445,11.428571428571445,13.333333333333371,68.57142857142856,53.333333333333314,69.51728606055119
177,64,488,0,16.28293333333315,19.240726880289778,135.8430117484254,15.093667972047228,30.18733594409457,33.96075293710646,37.92237144639282,41.50758692312996,105.72303677757746,75.56261639900558,66.0347973777067,71.69492286722442,71.69492286722442,30.187335944094457,33.96075293710635,0.0,15.093667972047228,11.32025097903545,11.32025097903545,13.206959475541339,67.92150587421264,49.05442090915358,68.85839848884835
178,64,489,0,16.316299999999817,22.9497361958493,135.87727349324214,15.091653558090854,30.183307116181822,37.72913389522728,41.67319047385819,41.502047284750006,109.47951920133356,79.32096158405557,67.91244101140904,71.68535440093177,67.91244101140904,28.2968504214204,39.61559058998864,9.43228347380682,13.205196863329547,11.318740168568183,11.318740168568183,13.205196863329547,64.13952762188632,49.047874063795405,65.130583312007
179,64,490,0,16.349666666666483,19.229880296050283,134.66409337930003,15.857365525719874,26.921832414470487,34.613784532890804,42.30573665131078,42.48019403743434,103.84135359867179,76.9195211842013,67.30458103617616,69.22756906578121,73.07354512499131,28.84482044407548,32.69079650328558,1.9229880296051078,13.460916207235186,11.537928177630192,11.537928177630192,11.537928177630192,69.22756906578121,53.84366482894097,70.18247719616117
180,64,491,0,16.38303333333315,26.666666666666686,137.1957569932884,19.42483624225818,22.85714285714289,38.28524046141289,38.095238095238074,38.095238095238074,106.734672199024,83.8960592211247,70.47619047619042,68.57142857142856,72.38095238095235,32.38095238095235,36.19047619047626,9.523809523809518,13.333333333333314,15.23809523809524,15.707069049972054,15.238095238095298,68.57142857142858,53.33333333333337,62.0145546518084
181,64,492,0,16.416399999999815,23.072657077611893,134.6454233105763,19.227214231343225,26.918099923880504,34.82196599965797,38.45442846268634,38.454428462686394,107.67239969552202,80.75429977164151,69.21797123283557,69.21797123283557,73.06341407910418,32.68626419328348,36.531707039552145,5.768164269402973,13.459049961940252,11.536328538805947,11.53632853880589,13.459049961940195,69.21797123283557,53.83619984776101,65.82337875244765
182,64,493,0,16.44976666666648,19.394637542218163,139.85672025501304,15.515710033774553,27.428159449515302,38.98273900320297,46.708472457203335,38.78927508443638,100.92668241287846,73.6996226604291,64.00230388932005,65.94176764354182,73.6996226604291,31.03142006754905,31.031420067549107,5.684341886080802e-14,11.636782525330887,11.636782525330887,7.757855016887277,9.697318771109053,69.82069515198549,50.42605760976733,58.69882454537922
183,64,494,0,16.483133333333146,19.394637542218163,139.85672025501304,15.515710033774553,27.428159449515302,38.98273900320297,46.708472457203335,38.78927508443638,100.92668241287846,73.6996226604291,64.00230388932005,65.94176764354182,73.6996226604291,31.03142006754905,31.031420067549107,5.684341886080802e-14,11.636782525330887,11.636782525330887,7.757855016887277,9.697318771109053,69.82069515198549,50.42605760976733,58.69882454537922
184,64,495,0,16.516499999999812,11.537928177630192,138.66863885688838,19.22988029605034,30.76780847368053,38.651581036869736,42.480194037434394,38.65158103686987,100.06931128526621,69.33431942844413,63.458604976966114,65.38159300657117,73.07354512499131,30.76780847368059,30.767808473680475,3.845976059210102,11.53792817763025,15.383904236840294,11.537928177630192,11.537928177630192,69.22756906578124,49.99768876973093,66.39184054316516
185,64,496,0,16.549866666666478,3.9950093555113426,148.03113509531036,19.97504677755694,31.960074844091082,43.94510291062534,43.94510291062534,39.95009355511377,95.88022453227313,63.92014968818205,61.92264501042632,63.92014968818205,71.91016839920485,27.965065488579626,27.96506548857974,3.9950093555113426,7.990018711022685,11.985028066534142,12.633328837097338,11.985028066534142,71.91016839920485,47.940112266136566,65.03404057810975
186,64,497,0,16.583233333333144,8.066008053585392,145.24414810836095,20.165020133963424,32.26403221434157,40.330040267926734,44.36304429471943,40.53118884874624,100.90572851210638,68.67958378758969,64.52806442868302,64.52806442868302,68.56106845547572,26.214526174152468,34.28053422773792,2.016502013396348,6.049506040189044,12.099012080378088,12.099012080378031,12.099012080378031,72.59407248226842,44.3630442947196,69.62044384430179
187,64,498,0,16.61659999999981,11.970707605699431,139.88608304785257,15.96094347426606,28.21522841197176,39.90235868566492,39.90235868566492,44.073595712046874,99.7558967141627,71.93500012656061,65.83889183134744,67.83400976563058,75.81448150276361,27.93165107996549,27.931651079965604,3.990235868566515,11.970707605699431,12.618233745970459,16.45216395722797,15.96094347426606,75.81448150276367,43.89259455423161,69.68647356174922
188,64,499,0,16.649966666666476,3.843312210120473,126.88752157506404,19.216561050602195,30.985773645173932,38.43312210120439,42.27643431132469,42.4507708625441,96.08280525301097,65.44924855102349,63.414651466987266,65.33630757204747,69.17961978216789,24.981529365782876,28.824841575903292,5.764968315180681,9.608280525301097,15.846382194552671,12.153620343116241,11.529936630361362,73.02293199228833,42.276434311324806,71.7989972897731
189,64,500,0,16.68333333333314,3.996803834887146,140.11633687555818,23.980823009322933,32.22326268624835,40.16738142263504,43.96484218375895,39.96803834887157,99.99999999999999,67.94566519308165,65.94726327563802,67.94566519308165,75.93927286285594,31.974430679097225,27.977626844210135,7.993607669774292,7.993607669774292,12.639003479138948,7.993607669774292,9.992009587217865,75.939272862856,43.96484218375872,65.91697750445373
190,64,501,0,16.716699999999808,3.950918386598346,134.56343141125205,20.145809949877567,31.60734709278688,39.50918386598369,43.46010225258192,39.70623837451312,94.82204127836059,63.214694185573705,61.239234992274476,63.214694185573705,71.1165309587704,27.65642870618848,27.656428706188535,7.901836773196692,7.901836773196692,12.493900951088408,11.852755159795095,11.852755159795095,79.0183677319672,47.41102063918032,68.9998232588759
191,64,502,0,16.750066666666473,4.027276487244649,141.18461958334217,20.5351613950939,32.21821189795719,40.473627788673596,44.482722717647,44.30004135969119,100.76242551839815,68.5820473037001,66.45006203953687,68.46370028315914,76.51825325764844,28.190935410712598,28.19093541071254,8.054552974489297,8.054552974489297,12.735366466935227,9.00526398966565,8.054552974489297,76.51825325764844,40.272764872446544,67.50945570232753
192,64,503,0,16.78343333333314,3.9838977553728228,132.01076689096752,19.919488776864625,28.170411183780576,35.8550797983562,40.03767692876048,40.03767692876048,91.62964837357703,63.86673954879166,61.75041520828023,63.742364085966585,75.6940573520854,29.879233165296853,21.911437654551037,9.959744388432227,9.959744388432227,12.598190872210735,11.951693266118696,11.951693266118696,75.69405735208534,39.83897755372914,66.78229565086527
193,64,504,0,16.816799999999805,0.0,137.1008712432522,19.514284806274134,31.465838776377552,42.931426573803265,43.10846413550193,39.02856961254827,89.85051476651688,58.5428544188224,58.5428544188224,62.44571138007717,74.15428226384171,29.27142720941123,21.465713286901405,9.757142403137095,9.757142403137095,16.091891492930838,11.70857088376448,11.70857088376448,74.15428226384165,39.02856961254821,64.36756597172328
194,64,505,0,16.85016666666647,3.976017423741723,128.77632378290204,20.273790430043956,32.05567728193186,40.54758086008814,39.958480576013834,35.784156813675565,91.7934902769665,59.772648336684085,57.65225264425504,59.640261356125905,79.52034847483463,33.79614810180476,21.868095830579477,13.916060983096145,9.940043559354422,16.39353980738339,12.573271075538685,11.928052271225226,75.54433105109291,39.760174237417345,65.57415922953356
195,64,506,0,16.883533333333137,23.856104542450453,140.0664655132955,20.273790430043956,28.11468882443639,40.54758086008814,44.453226196050394,32.0556772819318,104.06233453762223,75.96170622210056,63.61627877986774,59.640261356125905,75.54433105109291,35.78415681367562,35.78415681367551,0.0,11.928052271225283,12.573271075538685,11.92805227122517,11.928052271225226,83.49636589857636,43.73619166115907,65.57415922953356
196,64,507,0,16.916899999999803,35.305996903244704,138.6950545935308,16.1744838277564,27.73901091870611,40.0057704792204,47.72399890175152,31.627338566065504,110.46954442843003,82.7534245095519,64.72766098928196,54.9204396272695,74.5348823512943,33.3445526308422,45.113218265257046,9.807221362012342,13.73010990681746,12.405262808567237,12.405262808567166,11.768665634414901,78.4577708960993,39.22888544804965,67.7195559009264
197,64,508,0,16.95026666666647,42.431448096832185,132.0562541995875,15.904485668286604,27.275967895304486,43.127091967395785,46.9273495617644,30.85923497951427,115.97900636422263,88.80411759052774,67.50457651768755,57.86106558658929,73.2906830763464,34.71663935195352,50.14625684171074,15.42961748975722,15.42961748975705,11.572213117317858,12.198183673200587,11.572213117317858,73.2906830763464,34.71663935195352,64.6618801644088
198,64,509,0,16.983633333333135,31.732979754983603,144.76813517124475,20.225885374388255,28.0482564650055,40.45177074877667,43.812777193111096,31.979932738277185,111.70110292618314,83.6759926589926,67.43258197934017,55.53271457122128,79.33244938745906,35.69960222435657,43.6328471631025,11.899867408118894,11.899867408118894,12.543561621219967,12.543561621220022,9.916556173432355,79.33244938745901,39.66622469372953,60.677656123164915
199,64,510,0,17.0169999999998,34.8897476169351,136.8196405074095,19.646155432288136,26.970496515930677,38.721447917853915,46.39539780479544,31.06329921586019,112.33119126034619,85.54888653501996,67.42624128982675,53.94099303186135,77.0585614740877,34.6763526633394,46.235136884452686,11.558784221113228,15.411712294817448,15.886029415790775,15.411712294817562,15.411712294817562,80.91148954779203,42.38220881074824,63.54411766316314
200,64,511,0,17.050366666666466,34.84612834742451,132.24295787470228,15.392444524824214,28.014671901343718,39.24318749698665,46.81429240264758,35.477831650757864,113.24174466531751,85.44193305461434,67.34194479610608,53.87355583688486,73.11411149291519,28.860833484045543,48.10138914007564,13.468388959221102,9.620277828015219,12.16879586405821,12.16879586405821,11.544333393618217,80.81033375532729,42.329222443266644,64.50609705407277
201,64,512,0,17.083733333333132,34.636941456762266,132.82660709046357,18.78451891913363,26.56532141809282,37.75641574797693,41.49635859920303,30.980222252000463,110.55770597948712,84.0069224556272,65.74581621696757,52.59665297357412,71.3811718927077,31.93368216252719,46.961297297833994,16.90606702722016,13.14916324339356,11.880372906997366,15.490111126000286,15.027615135306917,78.89497946036118,41.32594162209392,67.72854614785963
202,64,513,0,17.117099999999798,31.843044715261055,136.52592788242296,15.446145506151538,31.132701572079164,39.38009867282981,42.6520633598619,35.60160629694462,113.63682114624497,82.5502191190771,65.64611840114384,54.06150927153027,73.36919115421966,28.96152282403409,48.26920470672337,13.515377317882553,9.653840941344697,12.211250217453303,12.211250217453303,11.584609129613568,81.09226390729538,38.61536376537879,61.05625108726641
203,64,514,0,17.150466666666464,31.843044715261055,136.52592788242296,15.446145506151538,31.132701572079164,39.38009867282981,42.6520633598619,35.60160629694462,113.63682114624497,82.5502191190771,65.64611840114384,54.06150927153027,73.36919115421966,28.96152282403409,48.26920470672337,13.515377317882553,9.653840941344697,12.211250217453303,12.211250217453303,11.584609129613568,81.09226390729538,38.61536376537879,61.05625108726641
204,64,515,0,17.18383333333313,31.06329921586022,136.8196405074095,19.64615543228808,31.06329921586011,39.29231086457619,42.55698154732093,31.772058831581496,113.38349706119791,82.36619462316254,65.49977725297447,50.088064958156906,73.20563340038325,30.82342458963501,50.08806495815702,15.411712294817562,7.705856147408667,15.886029415790775,15.88602941579072,13.485248257965338,80.91148954779203,42.38220881074818,52.40548756676906
205,64,516,0,17.217199999999796,26.513915171382937,133.15160433272894,19.119456132744734,30.920272781668572,41.9221808150318,45.15157055268765,30.920272781668515,107.37317282510907,76.47782453097894,61.86895840451609,44.99560611237541,67.49340916856306,26.247436898885667,48.745239955073316,14.998535370791842,7.499267685395921,15.460136390834313,11.857383334575003,11.248901528093825,78.74231069665694,37.49633842697949,59.2869166728752
206,64,517,0,17.25056666666646,11.955488885441047,137.41012948147792,15.588050379468248,30.480635560702826,42.26903631647895,45.52514536059858,30.480635560702826,88.26033899606225,57.8329397408067,51.03887681540925,45.36789050258608,64.27117821199693,24.574274022234135,32.135589105998406,1.890328770941096,5.670986312823288,15.122630167528655,15.122630167528655,15.122630167528655,79.39380837952558,41.58723296070383,59.77744442720552
207,64,518,0,17.283933333333128,8.45380726329584,129.42886593885046,19.277646580268872,26.733285852089505,37.99513806196844,41.75872743244034,30.480635560702826,84.5380726329579,57.8329397408067,52.92920558635035,49.14854804446816,64.27117821199693,26.46460279317523,26.46460279317523,3.780657541882192,7.561315083764384,11.955488885441103,11.341972625646463,11.341972625646463,75.61315083764339,37.806575418821694,59.77744442720552
208,64,519,0,17.317299999999793,7.422057266541742,130.73148547516382,15.300963034667458,26.240935117632898,37.29537619079074,37.29537619079073,33.604793532923686,82.39820764955701,56.15805352202855,51.954400865792536,44.53234359925068,59.37645813233428,18.55514316635447,29.688229066167082,0.0,3.711028633270871,11.735302943237777,11.735302943237777,11.13308589981267,77.93160129868875,37.11028633270894,62.2081756545293
209,64,520,0,17.35066666666646,15.621579115921795,129.7072577986348,15.155157819738406,30.54619713971856,38.07686277670749,37.88789454934613,30.54619713971856,91.63859141915555,61.09239427943698,53.04305236908465,41.6766840042809,56.83184182401931,18.943947274673064,41.6766840042809,7.577578909869203,3.7887894549346584,15.621579115921739,11.366368364803861,13.26076309227119,79.56457855362709,41.676684004280844,63.511684554926376
210,64,521,0,17.384033333333125,26.484839699130713,135.66857520162165,19.09848951153184,33.91714380040542,33.917143800405405,41.370642135315094,30.886365245664027,110.2227627622868,76.39395804612784,61.80111217465003,48.69178534972423,63.67387314963946,26.21865364985149,52.43730729970309,18.727609749893986,7.491043899957617,11.844380388088256,11.844380388088256,11.236565849936369,78.65596094955458,41.20074144976667,65.41272870566345
211,64,522,0,17.41739999999979,35.22606864821509,130.4120365229873,15.283214398017435,30.80430342483087,38.39860094774992,42.02883959454789,31.50715363099312,112.43814195558082,81.6794518022454,63.04325939182172,49.67044679355661,61.13285759206963,24.83522339677836,55.401652192813,21.014419797273945,5.73120539925651,15.753576815496587,12.08244186660353,13.372812598265227,80.23687558959136,45.84964319405225,63.0143072619865
212,64,523,0,17.450766666666457,22.808132240701273,135.8175142904966,15.460136390834258,30.23051450157398,37.68335374385997,41.416059474861946,34.56991591132373,102.96142229760896,72.80471990725114,59.994141483167255,48.745239955073316,63.74377532586516,22.49780305618765,44.99560611237541,11.248901528093825,3.7496338426979037,15.460136390834258,15.460136390834313,14.998535370791785,74.99267685395904,41.24597226967745,62.85531688854928
213,64,524,0,17.484133333333123,22.808132240701273,135.8175142904966,15.460136390834258,30.23051450157398,37.68335374385997,41.416059474861946,34.56991591132373,102.96142229760896,72.80471990725114,59.994141483167255,48.745239955073316,63.74377532586516,22.49780305618765,44.99560611237541,11.248901528093825,3.7496338426979037,15.460136390834258,15.460136390834313,14.998535370791785,74.99267685395904,41.24597226967745,62.85531688854928
214,64,525,0,17.51749999999979,27.352385586781054,136.26869557123808,15.472845864033616,27.35238558678094,42.725792132886184,42.550326126092386,31.89808891315595,101.75675644626823,74.40653318043245,59.95727772313023,46.41853759210085,61.89138345613446,23.209268796050424,46.41853759210085,19.341057330042077,7.736422932016808,19.724085747880217,15.949044456578056,17.406951597037846,85.10065225218494,50.28674905810925,63.796177826311954
215,64,526,0,17.550866666666455,23.04630653166533,133.09386953852754,15.621579115921849,30.54619713971856,38.07686277670728,41.848547347864994,34.930912819092185,104.03659862040449,73.56498437607098,60.620631278953965,49.254262914150104,60.620631278953965,20.838342002140394,47.35986818668289,13.260763092271304,1.8943947274672155,11.981204252421222,11.366368364803861,11.366368364803861,79.56457855362709,45.4654734592155,69.86182563818444
216,64,527,0,17.58423333333312,16.018856812672524,136.86517260317953,19.810422261745916,35.18147025149189,43.4372242763071,46.783322298475504,32.03771362534516,102.86462985629082,67.85111336526221,58.27715174143589,46.62172139314873,62.16229519086494,23.31086069657431,46.62172139314873,7.770286898858103,0.0,12.285902336679007,16.01885681267258,15.540573797716206,81.58801243801014,46.621721393148675,64.07542725069034
217,64,528,0,17.617599999999786,19.621593748493314,135.56060439573506,19.621593748493314,34.84612834742451,38.67303824487153,42.329222443266644,35.47783165075791,109.45153747660468,74.71680298198139,63.49383366489997,50.025444705678865,65.41788923050308,23.088666787236434,50.02544470567875,11.544333393618217,3.8481111312061103,15.866168653077604,15.39244452482427,15.39244452482427,84.65844488653329,50.02544470567875,64.50609705407275
218,64,529,0,17.650966666666452,19.621593748493314,135.56060439573506,19.621593748493314,34.84612834742451,38.67303824487153,42.329222443266644,35.47783165075791,109.45153747660468,74.71680298198139,63.49383366489997,50.025444705678865,65.41788923050308,23.088666787236434,50.02544470567875,11.544333393618217,3.8481111312061103,15.866168653077604,15.39244452482427,15.39244452482427,84.65844488653329,50.02544470567875,64.50609705407275
219,64,530,0,17.684333333333118,11.955488885441047,133.18436082437483,15.588050379468193,34.23531011714703,38.555293160537836,41.75872743244035,34.235310117146916,95.71860372363844,61.54464585959107,54.81953435729133,45.367890502585965,60.49052067011462,18.903287709410733,41.587232960704,3.780657541882306,1.1368683772161603e-13,15.588050379468193,11.955488885441103,13.232301396587559,79.39380837952558,41.587232960703886,69.7118805703648
220,64,531,0,17.717699999999784,5.35263763935801,133.33333333333331,15.605486292817432,30.514729479283215,41.805436388041656,41.805436388041656,38.037637278920734,88.35906202976085,57.897628403051485,54.88085239435384,45.41863646429283,60.55818195239044,15.13954548809761,34.06397734821951,0.0,0.0,15.605486292817377,15.605486292817432,15.13954548809761,79.48261381251234,45.418636464292774,62.421945171269726
221,64,532,0,17.75106666666645,5.4869219893751024,132.14258016303492,15.519358986115321,31.280268058608865,38.99190688249584,42.678237211817304,39.566757154326915,90.57577087729366,59.35013573149021,56.25767632466818,54.31775645140374,62.0774359444614,19.39919873264421,31.038717972230643,3.879839746528887,3.879839746528887,12.269130555481485,15.996989085408089,15.519358986115435,81.47663467710555,46.55807695834602,71.54071006058915
222,64,533,0,17.784433333333116,3.780657541882192,132.53887546983862,15.588050379468138,34.85594028518229,37.99513806196845,41.587232960703886,34.23531011714703,88.26033899606236,53.46657170417898,51.03887681540937,49.14854804446827,56.70986312823254,18.903287709410733,34.025917876939616,1.1368683772161603e-13,3.7806575418820785,15.588050379468248,11.34197262564652,13.232301396587559,79.39380837952558,45.36789050258602,66.99342232624817
223,64,534,0,17.81779999999978,3.780657541882192,132.53887546983862,15.588050379468138,34.85594028518229,37.99513806196845,41.587232960703886,34.23531011714703,88.26033899606236,53.46657170417898,51.03887681540937,49.14854804446827,56.70986312823254,18.903287709410733,34.025917876939616,1.1368683772161603e-13,3.7806575418820785,15.588050379468248,11.34197262564652,13.232301396587559,79.39380837952558,45.36789050258602,66.99342232624817
224,64,535,0,17.851166666666447,8.675585415043942,136.29231478733954,15.996989085408034,35.133443179072074,38.99190688249584,42.678237211817304,31.280268058608865,90.57577087729366,55.55085124498737,50.437916704874965,46.55807695834608,58.19759619793251,21.33911860590854,36.858477592023974,1.9399198732644436,5.819759619793217,15.996989085407979,15.519358986115378,15.519358986115321,85.35647442363438,50.43791670487485,68.75093547033312
225,64,536,0,17.884533333333113,11.941096557959208,128.60954588503387,15.56928508028096,30.44394218136482,37.76106288314804,41.53716917146289,34.19409676323308,91.87663136393896,61.47055681928057,54.753541180564525,45.31327545977763,52.865488036407214,15.104425153259172,41.53716917146278,7.552212576629586,0.0,15.569285080281015,11.941096557959153,13.216372009101804,83.07433834292556,49.08938174809242,74.18871732582474
226,64,537,0,17.91789999999978,11.968861620528513,129.1861062546721,15.605486292817321,26.76318819679005,38.03763727892073,38.037637278920734,38.037637278920734,92.0902600207455,65.337269035693,58.66573876637813,45.41863646429283,56.773295580365925,13.247102302085409,39.74130690625611,9.462215930060893,1.8924431860120876,11.968861620528513,15.605486292817377,15.139545488097554,79.48261381251234,45.418636464292774,69.78985634536193
227,64,538,0,17.951266666666445,5.397280118812541,134.06565691530756,15.735640367900277,26.986400594062403,38.16453371975649,38.16453371975649,45.95618423419552,92.858318278735,65.88219994397848,62.97148063759812,49.61389383568337,61.06325395161036,9.541133429939123,36.25630703376862,5.724680057963496,1.90822668598787,19.460170216420735,15.735640367900277,17.174040173890376,80.14552081148855,45.797440463707744,74.10212048487566
228,64,539,0,17.98463333333311,5.35263763935801,132.95676073007277,15.605486292817321,26.76318819679005,34.06397734821962,41.63375009226843,45.57606721871388,92.0902600207455,65.337269035693,62.45062513840253,49.20352283631712,60.55818195239033,9.462215930060893,35.956420534231825,5.677329558036604,1.8924431860122013,19.29920946768383,15.605486292817377,17.031988674109755,79.48261381251234,45.418636464292774,66.1001987817472
229,64,540,0,18.017999999999777,5.333333333333269,136.23509092741116,15.549205052920835,22.939534045447065,37.712361663282536,41.65466493816901,41.65466493816878,84.32740427115678,61.391276977180404,58.45416057808791,45.254833995939066,56.568542494923804,9.428090415820634,32.055507413790224,5.656854249492426,1.8856180831642178,15.54920505292078,15.54920505292078,16.970562748477164,71.6534871602368,45.254833995939066,73.22416116131194
230,64,541,0,18.051366666666443,3.672972246897075,128.7637417149659,15.144052533918565,25.97183582890854,36.72972246896984,40.56930447308686,40.56930447308674,85.19395587742042,59.22489791366171,56.93106982690347,44.07566696276399,51.42161145655791,7.345944493794036,36.72972246896995,7.3459444937939224,3.6729722468969612,15.144052533918567,15.14405253391851,14.691888987587959,73.45944493793985,44.07566696276393,67.72626184133944
231,64,542,0,18.08473333333311,5.340220725897109,132.21765346200024,15.104425153259172,30.443942181364907,37.761062883147815,41.53716917146289,38.508879299035236,88.15408891171505,57.763318948552744,54.75354118056464,45.31327545977763,49.089381748092364,9.440265720786897,39.64911602730547,9.44026572078701,5.664159432472275,15.56928508028096,11.328318864944436,13.216372009101804,75.52212576629597,45.31327545977757,65.94686121187607
232,64,543,0,18.11809999999977,5.2840112416137925,134.7163821551614,14.945440723244133,30.12349881817804,37.363601808110616,41.09996198892168,38.103546943533225,87.22620668932558,57.155320415299784,54.177222621760166,44.83632216973251,52.309042531354635,11.209080542433071,37.3636018081105,7.472720361622123,3.7363601808110616,15.405407680835854,15.405407680835854,16.81362081364972,74.72720361622095,48.57268235054363,68.18217512260719
233,64,544,0,18.15146666666644,5.2840112416137925,134.7163821551614,14.945440723244133,30.12349881817804,37.363601808110616,41.09996198892168,38.103546943533225,87.22620668932558,57.155320415299784,54.177222621760166,44.83632216973251,52.309042531354635,11.209080542433071,37.3636018081105,7.472720361622123,3.7363601808110616,15.405407680835854,15.405407680835854,16.81362081364972,74.72720361622095,48.57268235054363,68.18217512260719
234,64,545,0,18.184833333333103,7.404234118735303,133.3276225148989,11.707122072166614,29.847421946994963,40.72328765304428,40.72328765304405,37.754334254640675,86.42679297004604,56.631501381961094,51.82963883114701,44.425404712411705,48.12752177177936,9.255292648419072,38.872229123360285,5.553175589051534,1.8510585296838826,15.264219674173846,15.264219674173846,16.659526767154432,70.34022412798521,44.425404712411705,68.26366562988494
235,64,546,0,18.21819999999977,7.4821925288306375,134.7314151700704,15.424935053787905,30.16168234491305,37.41096264415296,41.32175884051762,34.491203328789155,87.33677167433,57.227768563448016,52.37534770181412,44.8931551729836,48.6342514373988,13.093836925453616,39.28151077636062,9.352740661038183,1.8705481322076594,20.14641994323168,14.964385057661218,16.834933189868877,71.08082902389071,44.8931551729836,72.63895012235187
236,64,547,0,18.25156666666644,11.106351178102955,133.32762251489913,11.707122072166543,29.84742194699499,40.72328765304405,44.57939271213599,34.13183281494236,86.42679297004604,56.631501381961044,49.97858030146324,44.425404712411705,48.12752177177936,12.957409707786724,38.872229123360285,9.255292648419186,1.851058529683769,16.556370810815338,14.80846823747055,16.659526767154375,74.04234118735286,44.425404712411705,71.21164347820199
237,64,548,0,18.284933333333104,15.24399308169468,133.304852433012,15.24399308169468,33.479673074630014,36.97211390118355,40.6693252913019,30.487986163389248,94.26076512045476,60.97597232677861,51.76095946165685,40.66932529130179,48.0637480715385,14.788845560473419,48.0637480715385,14.788845560473419,0.0,18.852153024090942,11.091634170355064,12.940239865414242,77.64143919248528,48.0637480715385,64.56902104943494
238,64,549,0,18.31829999999977,15.24399308169468,133.304852433012,15.24399308169468,33.479673074630014,36.97211390118355,40.6693252913019,30.487986163389248,94.26076512045476,60.97597232677861,51.76095946165685,40.66932529130179,48.0637480715385,14.788845560473419,48.0637480715385,14.788845560473419,0.0,18.852153024090942,11.091634170355064,12.940239865414242,77.64143919248528,48.0637480715385,64.56902104943494
239,64,550,0,18.35166666666644,18.998801195198123,134.18671228073038,11.782556318797797,33.74010660810443,40.98568608927076,44.711657551931694,30.725147797176675,94.99400597599099,61.4502955943534,50.300614745923326,40.98568608927087,44.71165755193181,13.040900119313505,50.30061474592321,13.040900119313392,1.8629857313304683,18.998801195198133,11.177914387982923,13.040900119313392,74.51942925321958,44.71165755193175,65.07129412323081
240,64,551,0,18.3850333333331,15.105890224117521,128.28240658377968,11.585688927269766,33.17636419108628,36.637165272365564,43.96459832683877,34.757066781809556,94.19385978648764,61.415080237160915,51.29203138131186,40.300881799602166,43.964598326838654,9.159291318091391,49.460173117693444,16.48672437256448,1.8318582636181873,15.105890224117411,14.654866108946237,16.486724372564538,73.27433054473119,43.96459832683871,60.42356089646983
241,64,552,0,18.418399999999767,11.449620692872244,126.77579263292279,14.928478951926335,32.78672406458666,36.20687973447184,39.827567707919115,33.38109373718213,92.30979314618976,59.713915807705234,52.49997561498435,39.827567707919115,43.44825568136628,9.05171993361796,48.879287641537076,16.293095880512283,1.8103439867235238,16.192208867887715,10.862063920341598,10.862063920341598,76.03444744239101,47.068943654813495,59.71391580770526
242,64,553,0,18.45176666666644,8.305622057675038,130.0566004628872,14.857548413106656,30.629620722483164,37.143871032766356,37.143871032766356,35.237770073727766,88.28997353855151,57.66279428080182,52.00141944587301,37.143871032766356,40.85825813604299,5.5715806549148965,46.429838790958115,16.71474196474503,5.571580654915124,15.314810361241555,11.745923357909334,13.000354861468281,78.00212916880952,44.57264523931974,64.86898198416014
243,64,554,0,18.4851333333331,8.305622057675038,130.0566004628872,14.857548413106656,30.629620722483164,37.143871032766356,37.143871032766356,35.237770073727766,88.28997353855151,57.66279428080182,52.00141944587301,37.143871032766356,40.85825813604299,5.5715806549148965,46.429838790958115,16.71474196474503,5.571580654915124,15.314810361241555,11.745923357909334,13.000354861468281,78.00212916880952,44.57264523931974,64.86898198416014
244,64,555,0,18.518499999999765,5.150262026246091,120.23407762257202,10.925355610938368,30.03093012088914,36.417852036461454,36.417852036461454,34.54900797786588,79.53778942709931,49.53363404654216,45.522315045576875,32.77606683281533,36.417852036461454,1.8208926018230613,41.88052984193064,9.104463009115307,5.462677805469184,15.015465060444596,11.516335992621993,12.746248212761543,76.47748927656914,47.343207647399936,62.866959858973736
245,64,556,0,18.55186666666643,5.1586070417532595,124.07495554943618,11.53499601456942,29.40858488375228,36.65879081294081,36.47686020700439,38.082960104380696,83.18003918560582,54.226751152365196,49.243761279455725,36.47686020700428,40.12454622770474,1.8238430103501742,41.948389238054915,9.119215051751098,5.47152903105075,16.312947805723724,11.534996014569474,12.766901072451503,72.95372041400856,43.772232248405146,63.70409765636794
246,64,557,0,18.585233333333097,5.158607041753179,131.36734928200553,10.943058062101272,26.555555072291515,36.47686020700439,36.658790812940595,38.082960104380696,79.66666521687438,53.11111014458286,49.243761279455725,32.82917418630382,36.47686020700428,1.8238430103501742,41.9483892380548,12.766901072451446,9.119215051750984,16.312947805723773,14.590744082801677,16.41458709315191,72.95372041400856,43.772232248405146,60.15917900974742
247,64,558,0,18.618599999999763,11.059555542290127,125.39583126754262,8.243305997831792,26.83825989149134,33.17866662687038,36.86518514096724,38.48838323794316,84.0655562789214,57.23015743383432,49.767999940305685,36.86518514096713,40.551703655063875,1.8432592570483166,42.39496291211242,12.902814799338671,5.529777771145177,15.199905224415874,14.74607405638693,14.74607405638693,73.73037028193443,47.92474068325737,60.01217351518054
248,64,559,0,18.65196666666643,11.059555542290127,125.39583126754262,8.243305997831792,26.83825989149134,33.17866662687038,36.86518514096724,38.48838323794316,84.0655562789214,57.23015743383432,49.767999940305685,36.86518514096713,40.551703655063875,1.8432592570483166,42.39496291211242,12.902814799338671,5.529777771145177,15.199905224415874,14.74607405638693,14.74607405638693,73.73037028193443,47.92474068325737,60.01217351518054
249,64,560,0,18.68533333333309,10.41070249805287,132.5066099992,8.230382984062985,26.026756245132045,36.807391666444346,40.6550929056889,37.53632167033055,80.38855682085112,54.71812149228426,47.84960916637783,33.1266524998,33.1266524998,3.6807391666444573,44.168869999733374,14.72295666657783,11.042217499933372,15.17607636442294,15.17607636442294,14.722956666577772,73.61478333288892,47.849609166377775,67.16718685999777
250,64,561,0,18.71869999999976,8.143279274805645,134.7952568646595,10.925355610938482,26.512596475699823,36.417852036461454,40.22483232132248,35.86742461539594,80.61435194835373,54.139029200370906,47.343207647399936,32.77606683281533,36.417852036461454,1.8208926018230613,41.88052984193075,16.388033416407666,9.10446300911542,18.56953381770522,14.567140814584548,16.388033416407666,72.83570407292297,43.701422443753756,70.05113706224563
251,64,562,0,18.752066666666423,8.230382984062883,132.5577215189404,11.639519239586582,26.79618560695034,36.807391666444346,36.807391666444346,34.918557718759494,81.47663467710557,54.71812149228418,47.84960916637783,33.1266524998,36.80739166644446,1.8403695833221718,42.3285004164112,16.563326249900115,9.2018479166112,18.768160835165254,14.722956666577772,14.722956666577772,73.61478333288892,47.849609166377775,63.53940952066996
252,64,563,0,18.78543333333309,8.083860415408724,133.81169973187374,11.432305035802235,25.563411199567,36.33243377699125,39.93132480729714,34.29691510740674,78.95742805581183,53.743994318798016,46.99775966463221,28.921698255158276,32.53691053705313,1.8076061409474278,45.190153523684785,16.26845526852651,9.038030704736912,14.905902097282464,14.460849127579138,14.460849127579138,72.30424563789563,46.997759664632156,62.40824010707682
253,64,564,0,18.81879999999976,10.343828305046397,138.77701942602152,13.877701942602243,27.755403885204373,37.00720518027242,41.6331058278065,33.6770650509418,84.4147653831073,57.21923095018811,50.88490712287455,46.259006475340584,46.259006475340584,13.877701942602243,37.00720518027242,9.251801295068049,0.0,9.251801295068105,9.251801295068105,11.56475161883509,69.38850971301076,50.88490712287455,65.42011433933133
254,64,565,0,18.852166666666424,10.237581268122229,141.9299513723388,13.735156584419883,32.04869869697973,36.62708422511969,41.20546975325965,37.75433425464071,92.59211707327522,61.08328167250098,54.94062633767953,45.78385528139961,45.78385528139961,9.156771056279922,45.78385528139961,13.735156584419883,4.578385528139961,10.237581268122229,13.735156584419883,13.735156584419883,68.67578292209942,54.94062633767953,69.28354506042865
255,64,566,0,18.88553333333309,10.131941075132437,135.93425392811014,13.593425392811014,32.040010916033616,36.5312330663697,40.78027617843304,37.364752472341955,92.41752177934798,60.452971690549624,54.37370157124394,45.31141797603664,45.31141797603664,9.062283595207305,45.31141797603675,13.593425392811014,4.531141797603709,10.131941075132385,9.062283595207361,11.32785449400916,63.43598516645136,49.842559773640346,68.11799757580938
256,64,567,0,18.91889999999976,9.06985175165039,136.0477762747555,14.340694787641464,32.066768389743324,36.27940700660156,41.06550037850223,33.014758715749096,88.05233311848852,56.09393517112178,49.88418463407697,40.8143328824267,40.8143328824267,9.06985175165039,45.349258758251835,13.604777627475528,4.534925875825138,10.14040253126788,9.069851751650333,11.337314689562959,63.48896226155256,49.88418463407703,64.13353677948665
257,64,568,0,18.95226666666642,10.366034321866865,139.0749444047417,14.659786326009181,32.450820361106366,37.37526827071066,41.72248332142249,38.228045710510315,94.55278071621468,63.054125160837295,55.62997776189684,46.358314801580605,46.358314801580605,9.271662960316121,46.358314801580605,13.907494440474238,4.635831480158117,10.366034321866865,10.366034321866815,11.589578700395123,64.90164072221285,50.994146281738665,60.97484315395511
258,64,569,0,18.985633333333087,10.366034321866865,139.0749444047417,14.659786326009181,32.450820361106366,37.37526827071066,41.72248332142249,38.228045710510315,94.55278071621468,63.054125160837295,55.62997776189684,46.358314801580605,46.358314801580605,9.271662960316121,46.358314801580605,13.907494440474238,4.635831480158117,10.366034321866865,10.366034321866815,11.589578700395123,64.90164072221285,50.994146281738665,60.97484315395511
259,64,570,0,19.01899999999976,10.366034321866865,139.0749444047417,14.659786326009181,32.450820361106366,37.37526827071066,41.72248332142249,38.228045710510315,94.55278071621468,63.054125160837295,55.62997776189684,46.358314801580605,46.358314801580605,9.271662960316121,46.358314801580605,13.907494440474238,4.635831480158117,10.366034321866865,10.366034321866815,11.589578700395123,64.90164072221285,50.994146281738665,60.97484315395511
260,64,571,0,19.05236666666642,10.366034321866865,139.0749444047417,14.659786326009181,32.450820361106366,37.37526827071066,41.72248332142249,38.228045710510315,94.55278071621468,63.054125160837295,55.62997776189684,46.358314801580605,46.358314801580605,9.271662960316121,46.358314801580605,13.907494440474238,4.635831480158117,10.366034321866865,10.366034321866815,11.589578700395123,64.90164072221285,50.994146281738665,60.97484315395511
261,64,572,0,19.085733333333085,10.247655316482518,137.48672338584993,13.748672338584925,27.8766363141641,36.663126236226844,36.94844669685823,33.3639484855367,84.50433056955825,56.68722826399378,50.411798574811655,41.246017015755,41.246017015755,9.165781559056654,41.246017015755,9.165781559056654,4.58289077952827,9.165781559056654,9.165781559056654,11.457226948820846,64.1604709133967,50.41179857481171,64.81186295283577
262,64,573,0,19.11909999999975,10.237581268122229,141.9299513723388,13.735156584419883,32.04869869697973,36.62708422511969,41.45904426818203,34.867945373484844,88.89616692914323,57.91250510110082,50.36224080953957,41.20546975325965,41.20546975325965,9.156771056279922,45.78385528139961,13.735156584419883,4.578385528139961,9.156771056279922,9.156771056279922,11.445963820349903,64.09739739395945,50.36224080953957,64.7481490766824
263,64,574,0,19.152466666666417,9.165781559056768,142.06961416537843,14.492373131094078,32.40593147641788,36.663126236226844,41.24601701575489,33.3639484855367,88.98364308793701,56.68722826399378,50.411798574811655,41.246017015755,41.246017015755,9.165781559056654,45.828907795283385,13.748672338585038,4.58289077952827,9.165781559056654,9.165781559056654,11.457226948820846,64.1604709133967,50.41179857481171,64.81186295283577
264,64,575,0,19.185833333333083,9.156771056279922,141.9299513723388,14.478126275275205,27.84923193982938,36.62708422511969,41.20546975325965,33.33114976035054,84.4212578386255,56.63150138196107,50.36224080953957,41.20546975325965,41.20546975325965,9.156771056279922,41.20546975325965,13.735156584419883,4.578385528139961,9.156771056279922,10.237581268122229,11.445963820349903,64.09739739395945,50.36224080953957,64.7481490766824
265,64,576,0,19.21919999999975,9.165781559056768,142.06961416537843,14.492373131094078,27.8766363141641,36.663126236226844,41.499841054647746,33.3639484855367,84.50433056955825,56.68722826399378,50.411798574811655,41.246017015755,41.246017015755,9.165781559056654,41.246017015755,13.748672338585038,4.58289077952827,9.165781559056654,10.247655316482316,9.165781559056654,64.1604709133967,50.41179857481171,64.81186295283577
266,64,577,0,19.25256666666641,13.580361906377789,140.33040636590385,14.314958357846546,32.00921998322406,36.21429841700751,40.74108571913325,32.95550900487651,92.32870714969656,60.39487547471681,52.05805397444817,40.741085719133366,40.741085719133366,9.053574604251821,49.79466032338519,18.107149208503643,4.526787302125854,9.053574604251878,10.12220412723644,9.053574604251821,63.375022229762976,49.79466032338519,63.53648751624262
267,64,578,0,19.28593333333308,14.492373131094114,142.06961416537843,13.748672338584925,27.497344677170076,36.663126236226844,41.24601701575489,33.36394848553677,88.15366425691992,61.14338922304907,52.70324396457579,41.246017015755,41.246017015755,9.165781559056654,45.828907795283385,13.748672338585038,4.58289077952827,9.165781559056654,9.165781559056654,9.165781559056654,64.1604709133967,50.41179857481171,64.81186295283577
268,64,579,0,19.319299999999743,9.165781559056768,142.06961416537843,14.492373131094078,27.8766363141641,41.246017015755115,41.499841054647746,33.3639484855367,84.50433056955825,56.68722826399378,50.411798574811655,41.246017015755,41.246017015755,9.165781559056654,41.246017015755,13.748672338585038,4.58289077952827,9.165781559056654,10.247655316482316,11.457226948820846,64.1604709133967,50.41179857481171,64.81186295283577
269,64,580,0,19.35266666666641,10.25641025641027,137.68060877579344,14.504754485877845,32.10764275384315,41.28125496922689,41.28125496922689,33.39245250481989,89.05966500960983,58.01901794351152,50.454867184610634,41.28125496922689,45.86806107691871,11.467015269229705,43.57465802307274,11.467015269229591,2.29340305384585,10.25641025641027,9.173612215383741,9.173612215383741,64.2152855076863,50.454867184610634,64.37889159579579
270,64,581,0,19.38603333333308,10.147578806997624,136.14405611689722,13.61440561168979,27.228811223379466,36.3050816311727,40.84321683506914,33.038122976779505,82.81319632706814,56.1336323669986,49.919487242862374,40.84321683506914,40.84321683506914,9.076270407793118,40.843216835069256,13.61440561168979,4.5381352038966725,9.076270407793174,10.147578806997574,11.345338009741454,58.995757650655435,49.91948724286232,64.17892353233329
271,64,582,0,19.419399999999744,9.062283595207305,135.93425392811014,14.32872848161733,32.040010916033616,36.249134380829446,40.78027617843304,32.040010916033616,87.15825271479855,55.12371909186348,49.842559773640346,40.78027617843304,40.78027617843304,9.062283595207305,45.31141797603675,13.593425392811014,4.531141797603709,9.062283595207361,9.062283595207361,11.32785449400916,63.43598516645136,49.842559773640346,59.07886101050414
272,64,583,0,19.45276666666641,9.173612215383741,142.19098933844816,14.504754485877845,32.433617027368015,36.694448861534966,41.535295859110946,33.39245250481989,89.05966500960983,56.73565819872538,50.454867184610634,41.28125496922689,41.28125496922689,9.173612215383741,45.86806107691871,13.760418323075555,4.586806107691814,9.173612215383741,10.25641025641027,11.467015269229648,64.2152855076863,50.454867184610634,64.86723405473602
273,64,584,0,19.48613333333308,9.173612215383741,142.19098933844816,14.504754485877845,32.433617027368015,36.694448861534966,41.535295859110946,33.39245250481989,89.05966500960983,56.73565819872538,50.454867184610634,41.28125496922689,41.28125496922689,9.173612215383741,45.86806107691871,13.760418323075555,4.586806107691814,9.173612215383741,10.25641025641027,11.467015269229648,64.2152855076863,50.454867184610634,64.86723405473602
274,64,585,0,19.51949999999974,13.452610468426997,139.0103081737459,14.180296518418,31.70810695628627,35.8736279158054,40.606189634982,32.64549416927806,91.46016438302921,59.82673655176746,51.56834012897025,44.842034894756694,44.842034894756694,13.452610468426997,44.842034894756694,13.452610468426997,0.0,8.96840697895135,10.026983827409385,8.968406978951407,62.77884885265934,49.32623838423234,63.41621391257252
275,64,586,0,19.552866666666407,18.33156311811331,142.1435125392523,14.492373131094187,23.368249513479434,36.663126236226844,45.828907795283385,37.791485509329185,93.47299805391778,70.10474854043834,59.57758013386842,50.41179857481177,54.99468935434004,16.040117728349173,38.954571625990866,11.45722694882079,2.291445389764135,9.165781559056711,10.247655316482316,9.165781559056654,68.74336169292508,54.994689354340096,68.89595535836186
276,64,587,0,19.58623333333308,18.895742754664592,142.1435125392523,13.748672338585038,32.40593147641788,41.246017015755115,45.828907795283385,37.791485509329185,102.47655316482363,70.10474854043834,59.57758013386842,50.41179857481177,54.99468935434004,16.040117728349173,48.12035318504752,16.040117728349173,2.291445389764135,9.165781559056654,9.165781559056711,9.165781559056768,68.74336169292502,54.99468935434004,69.35172188513165
