,frame_seq,video_id,gap,time_seconds,m1,m3,m4,m5,m6,m7,m8,m9,m10,m11,m12,m13,m14,m15,m16,m17,e1,e2,e3,b1,b2,b3,label_measures
0,161,3,1,5.372033333333337,5.234239225902115,39.604206224654114,4.13802944301185,7.959658559483692,11.849513023922544,10.549946438869435,9.252915127470056,26.46398431365589,18.50583025494011,15.70271767770646,18.31983729065746,13.085598064755343,6.542799032377729,10.46847845180423,2.617119612951001,3.9256794194267286,5.234239225902115,5.39533029953641,5.234239225902115,10.46847845180423,14.394157871230846,14.394157871230874,{}
1,162,3,0,5.405400000000004,5.316348152192632,38.63507654616415,5.316348152192632,6.777040742270849,10.715442270666994,11.961783342433506,6.777040742270851,24.07079002326485,17.329174830334487,14.619957418529792,15.949044456578008,13.290870380481692,7.974522228288947,9.303609266337162,1.3290870380482147,3.9872611141444168,5.316348152192632,3.9872611141445296,4.651804633168695,11.961783342433478,13.29087038048158,13.290870380481664,{}
2,163,3,0,5.438766666666671,4.10343350266055,39.76074376343004,4.103433502660664,6.9744958342657055,11.027646183817849,10.942489340428352,8.32007051851811,23.413155816648587,16.470627540024218,14.36201725931221,16.41373401064243,13.678111675535432,6.8390558377677735,8.206867005321214,1.367811167553441,4.103433502660664,5.471244670214219,5.471244670214219,5.471244670214219,12.31030050798188,12.31030050798188,13.678111675535432,"{'anger': (['e1', 'e2', 'b1'], 1.9389236153376272, 3)}"
3,164,3,0,5.472133333333337,4.3364556347082726,36.25258467376671,4.336455634708159,7.370557300402136,10.221123952056011,10.118396480985863,7.784176090576997,23.53079443345358,16.16101596769934,13.732109509909378,15.900337327263514,13.009366904124704,7.227426057847083,8.672911269416318,1.4454852115693484,2.890970423138924,5.781940846277621,4.3364556347082726,5.059198240492947,11.563881692555242,13.009366904124704,14.526946588442172,"{'anger': (['e1', 'e2', 'b1'], 1.9389236153376272, 3)}"
4,165,3,0,5.505500000000004,2.9767969928650477,38.81268423137119,4.706729314696766,8.930390978595028,10.524566699352848,11.999852310418884,7.589372977311488,23.99970462083782,15.17874595462308,13.3955864678926,16.372383460757533,13.3955864678926,7.441992482162618,8.930390978595028,0.0,4.465195489297571,5.953593985729981,5.953593985730095,5.953593985730095,11.907187971459962,13.395586467892484,13.47802162422098,"{'anger': (['e1', 'e2', 'b1'], 1.9389236153376272, 3)}"
5,166,3,0,5.538866666666671,4.465195489297571,35.84538253144853,2.9767969928650477,7.589372977311488,10.524566699352876,10.524566699352876,7.5893729773114815,22.52355631950257,14.958219763810092,12.651387219676394,16.372383460757533,13.3955864678926,7.441992482162618,7.441992482162504,0.0,4.465195489297571,4.706729314696766,4.465195489297571,4.465195489297571,11.907187971459962,13.395586467892484,11.907187971460049,"{'anger': (['e1', 'e2', 'b1'], 1.9389236153376272, 3)}"
6,167,3,0,5.572233333333338,3.118914307759041,36.00286413163447,4.678371461638562,7.951702458243543,10.916200077156589,11.027027284780768,7.951702458243426,23.59886893022613,15.672350432956248,14.035114384915572,17.154028692674615,14.035114384915572,7.797285769397604,7.797285769397604,0.0,3.118914307759041,4.678371461638562,4.678371461638562,5.458100038578323,10.916200077156532,10.916200077156532,12.47565723103611,"{'anger': (['e1', 'e2', 'b1'], 1.9389236153376272, 3)}"
7,168,3,0,5.605600000000004,3.653432734035911,36.09325289346189,4.901594366716267,8.16932394452715,9.803188733432592,9.938411517527529,8.331108441200946,24.72486076784502,16.662216882401893,14.704783100148802,19.606377466865183,16.3386478890543,9.803188733432648,6.535459155621652,1.6338647889054982,4.901594366716381,6.736597102634526,5.166734121691456,4.901594366716381,14.704783100148802,14.704783100148802,13.070918311243418,"{'anger': (['e1', 'e2', 'b1'], 1.9389236153376272, 3)}"
8,169,3,0,5.638966666666671,1.6358310640168838,37.65965922710164,4.907493192050765,8.179155320084533,9.950371902099882,11.4508174481183,8.809219876361134,23.13414476483911,15.08161721932451,13.904564044143626,16.358310640168952,14.722479576152068,7.361239788076091,7.361239788076091,0.8179155320084419,4.08957766004221,5.1729520295500615,6.744704262608248,6.543324256067649,13.086648512135184,11.4508174481183,13.08664851213524,{}
9,170,3,0,5.672333333333338,1.688861533723525,35.626573083031936,5.066584601170916,8.611537916212962,10.133169202341662,11.8220307360653,9.09479769553151,24.180817240505064,15.570533992376594,14.355323036650589,18.57747687095969,15.199753803512408,8.44430766861808,6.7554461348944415,1.6888615337236388,3.377723067447164,5.066584601170916,5.066584601170803,5.066584601170803,11.822030736065358,11.822030736065358,11.822030736065244,{}
10,171,3,0,5.705700000000005,3.4401045807690025,36.12109809807356,5.160156871153276,6.880209161537778,10.320313742306723,10.320313742306723,7.692307692307753,22.623755645927343,15.858098560068006,13.760418323075667,15.48047061346017,15.48047061346017,8.600261451922279,6.880209161537778,1.7200522903845012,3.4401045807690025,5.16015687115339,3.440104580768889,4.300130725961139,12.040366032691168,12.040366032691168,12.040366032691168,{}
11,172,3,0,5.739066666666671,3.5001640740365474,38.50180481440202,5.250246111054821,7.000328148073095,10.500492222109642,12.250574259127916,7.215773092122459,22.81827805006296,15.847666868536532,14.00065629614619,14.00065629614619,14.00065629614619,7.000328148073095,8.750410185091368,0.0,1.7500820370182737,5.250246111054821,3.5001640740365474,3.5001640740365474,12.250574259127916,12.250574259127916,14.00065629614619,{}
12,173,3,0,5.772433333333338,1.8133923944704973,33.09130592943934,3.6267847889411087,7.476808383093712,9.066961972352717,9.066961972352658,9.246523205206037,22.06087061962628,14.620036883025769,13.600442958529127,19.947316339175813,14.50713915576432,8.16026577511741,4.533480986176301,0.9066961972353056,4.533480986176301,5.734450258153426,4.054868663917248,4.533480986176301,10.880354366823212,10.880354366823212,10.880354366823212,{}
13,174,3,0,5.805800000000005,3.756903783826601,33.8642730739298,3.7569037838268287,7.745055563000323,11.270711351480202,9.392259459566844,8.400692245562734,23.23516668900054,15.490111126000215,13.14916324339356,15.02761513530686,13.14916324339356,6.57458162169678,8.453033513610308,0.9392259459566504,2.817677837869951,5.635355675740016,5.635355675740129,5.635355675740129,13.14916324339356,13.14916324339356,13.14916324339356,{}
14,175,3,0,5.839166666666672,1.910401799752208,28.909625098877825,3.820803599504416,7.876788407748197,9.741176055739116,9.741176055739071,9.74117605573906,23.241040970693568,15.402151712415506,14.328013498141216,21.01441979727406,17.193616197769643,9.55200899876104,3.820803599504188,3.820803599504416,5.731205399256623,5.731205399256623,3.820803599504302,4.776004499380406,11.46241079851302,11.46241079851302,11.462410798513076,{}
15,246,3,1,8.208200000000007,8.437992367923725,44.34965763601192,4.218996183961889,5.500898014004994,11.399099975089216,12.656988551885616,11.399099975089204,29.532973287733064,24.051978837701814,18.678292333229564,25.349111023668684,13.341637380878268,8.67206429757087,8.67206429757087,4.669573083307398,7.337900559483046,5.500898014005008,4.218996183961876,4.002491214263486,4.002491214263486,20.012456071317388,16.12076178361799,{}
16,266,3,1,8.875533333333324,2.1955497397959447,32.69821546766464,3.4714689469726068,5.554350315156171,6.97756622793167,7.76244054721039,9.818796932331445,20.932698683794957,15.415823881128128,14.233022682587716,13.885875787890456,11.802994419706891,3.124322052275346,7.984378578036996,2.4300282628808247,0.3471468946972607,6.977566227931656,7.762440547210375,7.637231683339749,12.4972882091014,13.885875787890456,20.84038203245364,{}
17,267,3,0,8.90889999999999,1.3969287360664282,32.250604231773224,4.190786208199313,6.286179312298941,7.019480024518609,7.963719077388724,9.186864421568584,21.00044370875253,14.734121984982949,13.96928736066434,14.66775172869754,11.873894256564654,4.190786208199313,7.683108048365369,2.095393104099628,0.6984643680332283,6.286179312298941,7.122966884301255,7.333875864348769,11.175429888531454,14.66775172869754,20.965568881960944,{}
18,268,3,0,8.942266666666656,1.4042437178171383,31.87509515130284,4.21273115345133,6.319096730177023,6.357983846321972,8.005420889524613,8.541681070144643,20.409898665104706,14.112474705802423,13.34031531926263,15.446680895988294,11.233949742536936,4.914853012359913,7.021218589085578,2.106365576725665,1.4042437178171383,6.319096730177023,6.473243692644574,6.6701576596313,10.53182788362838,16.14880275489685,20.361533908348207,{}
19,269,3,0,8.975633333333322,2.1657404091210424,32.99547350210482,4.331480818242113,5.820252464746505,7.362101738323092,8.929576464474492,9.412600056124331,21.65740409121051,15.898494991855213,14.799226128993835,18.04783674267543,12.272528985019278,5.775307757656151,6.497221227363156,1.4438269394140375,2.1657404091210424,7.219134697070174,7.362101738323098,7.21913469707016,9.384875106191217,16.604009803261377,22.42584425887616,{}
20,309,3,1,10.310299999999955,3.4074962184799347,33.61396143692844,3.4074962184799347,7.853890718583253,8.561228293790696,9.524241471993074,10.537100120764126,25.06884569886376,17.228086562885856,15.333732983159734,13.62998487391974,8.518740546199865,0.8518740546199979,13.629984873919682,5.963118382339872,1.703748109239939,1.904848294398684,2.40946368295472,1.7037481092399958,9.37061460081975,17.037481092399617,17.122456587581386,{}
21,310,3,0,10.343666666666625,3.583303083788678,35.34824514905319,3.693584275765594,7.222378262944446,9.135666173677958,9.894719048611648,10.015636599170268,24.45128503494993,17.231552756511807,15.229038106102053,12.541560793260544,7.16660616757747,0.0,14.333212335154885,7.166606167577413,1.791651541894339,0.8958257709471695,2.0031273198340016,1.791651541894339,9.85408348041898,17.916515418943618,16.347286299578986,{}
22,311,3,0,10.377033333333287,4.670340516162912,34.99760298599185,3.663716527236545,6.4115039226639965,9.204973852443093,10.11676792699068,9.340681032325778,23.972159467394697,17.61824862362197,15.112830674850784,10.991149581709635,7.32743305447309,0.0,14.654866108946235,7.32743305447309,2.7477873954273946,1.831858263618301,2.048079801297524,1.3738936977136973,10.075220449900542,17.40265350437369,17.426740233554597,{}
23,312,3,0,10.410399999999957,4.789570856434352,32.91937240943635,3.029190584219177,6.773476063116349,8.674281750282187,9.626918277142138,10.709806018039105,25.19878757420939,18.4258469828206,15.805583826233374,13.410798398016198,8.621227541581845,0.4789570856434579,13.8897554836596,7.184356284651528,1.436871256930317,2.1419612036077686,2.709390425246601,1.436871256930317,9.579141712868704,16.284540911876775,16.396849421422313,{}
24,313,3,0,10.44376666666662,2.962321895750108,34.91129834237142,3.949762527666792,7.961000885655255,7.961000885655325,8.94165522305147,9.10375280489347,23.883002656965797,15.92200177131054,14.317889162792198,11.84928758300049,6.912084423416957,0.4937203159583418,14.317889162792198,6.418364107458558,2.468601579791766,2.207984376711053,2.2079843767110026,1.9748812638334243,9.874406319167065,16.78649074258402,15.922001771310658,{}
25,314,3,0,10.477133333333288,4.068731789585286,33.95014756079701,4.193952732692188,7.192569598112613,8.387905465384266,9.210983344619494,9.37796340472064,24.749129275522726,17.559300163879428,15.257744210944908,13.223378316152264,8.137463579170628,1.5257744210945248,13.731969789850382,6.611689158076104,0.5085914736981181,1.4385139196225565,2.274490215931831,1.0171829473963498,9.15464652656692,16.2749271583412,16.4015821981663,"{'anger': (['e1', 'e2', 'b1'], 1.8723004551458589, 3)}"
26,315,3,0,10.510499999999952,4.159001959280317,33.417910718008024,3.2879797461071485,7.352146220938012,8.318003918560635,9.415341132887873,9.41534113288782,24.116832744405336,16.765472885698244,14.556506857481054,11.437255388020844,8.318003918560635,0.5198752449100539,14.036631612570943,6.758378183830473,2.599376224550156,2.324952774876413,2.324952774876464,1.039750489820051,10.397504898200737,16.636007837121156,15.630877273023629,"{'anger': (['e1', 'e2', 'b1'], 2.2124649765503004, 3)}"
27,316,3,0,10.543866666666618,4.253153653201196,32.18094686100083,2.377585171827417,7.51858447401731,8.506307306402505,8.57250524880652,9.62848609535324,23.6088341342881,16.090473430500293,13.822749372903957,10.632884133003015,6.379730479801822,1.0632884133002565,14.886037786204213,7.443018893102078,3.1898652399008824,1.503716894803351,2.377585171827417,2.126576826600626,9.56959571970276,17.01261461280484,17.045809989956044,"{'anger': (['e1', 'e2', 'b1'], 2.2124649765503004, 3)}"
28,317,3,0,10.577233333333284,3.329840887354692,34.85304158639639,3.5099604833323435,6.751543793818714,8.948678498225641,8.948678498225634,10.050997227904672,23.5455307172074,16.796545401221664,14.984283993096142,12.209416586967222,6.659681774709384,0.5549734812257725,13.874337030644597,7.214655255935213,2.77486740612892,1.569702047813715,3.139404095627631,2.219893924903147,8.87957569961253,16.649204436773516,16.686161650809165,"{'anger': (['e1', 'e2', 'b1'], 2.2124649765503004, 3)}"
29,318,3,0,10.61059999999995,3.622380098825902,35.96934063093848,3.436491498946737,6.872982997893473,9.235293404781808,9.235293404781585,9.446011621129676,23.16624650298657,16.401023455796494,14.31871457894465,11.454971663155732,5.727485831577894,0.572748583157761,14.31871457894465,7.445731581051177,2.8637429157889187,2.5614095319149404,1.6199776282634806,1.1454971663156357,9.163977330524515,17.18245749473357,16.199776282634286,"{'anger': (['e1', 'e2', 'b1'], 2.211683847923006, 3)}"
30,319,3,0,10.643966666666616,3.535533905932766,35.66822426505455,3.726779962499613,7.1686043892021845,8.333333333333133,9.428090415820634,9.501461875826148,23.83391607679181,16.66666666666666,14.731391274719726,11.785113019775793,7.071067811865476,0.0,14.142135623730953,7.071067811865476,2.3570226039551585,2.635231383473637,2.635231383473637,2.3570226039551585,9.428090415820634,16.49915822768611,16.541194367732732,"{'anger': (['e1', 'e2', 'b1'], 1.557344364276298, 3)}"
31,320,3,0,10.677333333333282,3.656905373312384,33.27136389261615,2.437936915541627,7.414695660543572,8.619408625422219,9.75174766216628,11.23833388845562,24.6521114171871,17.23881725084479,15.23710572213497,13.408653035478778,8.532779204395581,5.684341886080803e-14,13.40865303547872,6.094842288853954,1.218968457770757,2.437936915541627,2.725696334003493,2.4379369155415134,9.751747662166396,17.06555840879122,15.893404203531132,"{'anger': (['e1', 'e2', 'b1'], 1.557344364276298, 3)}"
32,321,3,0,10.710699999999948,4.996098321684372,35.3277500273776,2.792903867389704,7.59751991720693,8.831937506844403,8.743172062947679,10.069958101315354,25.25995888003194,17.663875013688788,14.988294965053171,12.490245804210986,7.494147482526614,0.0,14.988294965053171,7.494147482526557,1.2490245804210645,1.2490245804211213,1.7663875013690349,1.2490245804211213,9.992196643368745,17.486344125895357,17.6638750136888,"{'anger': (['e1', 'e2', 'b1'], 1.557344364276298, 3)}"
33,322,3,0,10.744066666666614,3.7938227839697447,32.01730701019184,3.999040345461831,7.692307692307725,8.942126057216775,8.942126057216775,9.206482255918685,24.554237982690516,16.871969700851064,14.542987338550802,11.381468351909348,6.323037973282965,0.0,15.17529113587915,7.587645567939546,2.52921518931322,1.2646075946565816,1.7884252114433552,1.2646075946565816,10.11686075725271,16.439898730535674,16.63331595756314,"{'anger': (['e1', 'e2', 'b1'], 1.5062027307478265, 3)}"
34,323,3,0,10.77743333333328,5.358751367269785,35.30752924832924,2.599376224550213,6.498440561375446,9.190182776172682,9.190182776172676,9.19018277617257,23.53835283221944,17.09472812681527,14.296569235026029,10.39750489820068,6.498440561375446,0.6498440561375673,14.946413291163594,7.1482846175130135,1.9495321684126448,2.599376224550213,1.8380365552345408,1.299688112275021,10.397504898200737,18.19563357185132,17.094728126815397,"{'anger': (['e1', 'e2', 'b1'], 1.5062027307478265, 3)}"
35,324,3,0,10.810799999999944,3.992907795839528,34.834799293334704,2.6619385305597234,6.786638255654222,8.095969975822781,10.7306172717498,10.975453730399067,24.287909927468448,17.50616745680467,15.306146550718267,11.978723387518642,7.985815591679113,0.6654846326399024,13.975177285438406,7.320330959039154,1.996453897919764,1.8822747860604137,1.8822747860605344,1.3309692652798049,10.64775412223878,17.30260044863803,17.506167456804462,"{'anger': (['e1', 'e2', 'b1'], 1.5062027307478265, 3)}"
36,325,3,0,10.844166666666611,4.322165359441747,34.41486000556046,2.7335773919432995,6.833943479858135,9.664655553706607,9.567520871801207,9.664655553706536,23.395653922356928,16.627702133382755,14.351281307702097,10.934309567773028,6.833943479858192,0.683394347985768,14.351281307702038,7.517337827843903,2.050183043957418,1.3667886959716498,1.932931110741384,1.366788695971593,9.567520871801436,17.76825304763122,16.458315351766583,"{'anger': (['e1', 'e2', 'b1'], 1.5062027307478265, 3)}"
37,326,3,0,10.877533333333275,5.645012145168494,34.133657179968075,2.822506072584247,7.196006770670581,8.46751821775274,9.979065919322766,9.97906591932267,25.558879541982,18.400488377090312,15.523783399213356,12.70127732662911,8.46751821775274,0.7056265181460049,14.818156881067353,7.761891699606735,2.116879554438242,1.4112530362921234,1.995813183864611,1.4112530362921234,9.878771254044864,16.93503643550548,18.562135596767167,"{'anger': (['e1', 'e2', 'b1'], 1.5062027307478265, 3)}"
38,327,3,0,10.910899999999945,4.355150288546611,35.11234415883911,2.9034335256976647,7.402332101976079,8.710300577092994,10.265187673726038,10.568657561650197,25.06051684905627,17.660896659325633,15.24302600991291,13.065450865639605,8.710300577093108,0.7258583814243593,13.791309247064191,6.532725432819916,2.1775751442733053,2.0530375347453056,2.053037534745265,1.4517167628488323,10.16201733994194,15.968884391337385,17.48098470146263,"{'anger': (['e1', 'e2', 'b1'], 1.5062027307478265, 3)}"
39,342,3,1,11.411399999999931,1.0254927073755198,45.41207779147004,4.101970829502193,7.251328474425987,12.305912488506465,12.348567425724436,14.50265694885202,25.963401601800054,18.71348584655416,18.45886873275984,12.30591248850655,17.43337602538429,0.5127463536877599,10.767673427443242,2.5637317684388847,2.5637317684388847,3.0764781221266446,3.0764781221266446,3.5892244758144187,12.305912488506564,7.178448951628837,14.393476046370573,{}
40,343,3,0,11.444766666666595,1.4990633779917082,41.46204437308309,3.179993640019063,6.447715386698226,11.708059262123347,12.764064725415958,13.942095340081096,24.74589967169911,18.298400494965616,17.489965020104933,12.719974560076338,15.8999682000954,0.5299989400031677,10.069979860060414,2.6499947000158954,2.6499947000158954,2.119995760012728,3.179993640019092,3.179993640019092,10.599978800063596,6.359987280038155,12.764064725415844,{}
41,344,3,0,11.478133333333265,1.0828702045605496,41.27710321147742,3.248610613681564,6.5868423054771394,11.96069234412646,11.911572250165705,14.242933799853784,24.213713882064383,17.627849788902584,17.325923272968396,12.994442454726313,16.243053068407875,0.5414351022802464,9.204396738764473,1.624305306840796,2.707175511401317,3.2486106136815778,3.248610613681592,2.7071755114013456,9.74583184104472,6.497221227363141,13.03948398477179,{}
42,345,3,0,11.511499999999929,1.5871016626723815,34.9522884588957,3.174203325344763,4.7613049880171445,7.935508313361936,9.522609976034287,9.522609976034268,15.871016626723794,11.10971163870665,11.90326247004284,11.10971163870665,12.69681330137903,2.3806524940085723,3.9677541566809538,0.7935508313361908,0.7935508313361908,4.761304988017137,4.761304988017137,4.761304988017137,12.696813301379033,11.109711638706653,14.283914964051403,{}
43,346,3,0,11.544866666666596,1.7200522903845048,46.36171140093584,3.648781915578894,6.081303192631481,12.223268140054351,13.43403784351748,13.598207330510512,24.597349162029957,18.605210188381264,17.635779258631345,12.16260638526299,15.811388300841884,0.6081303192631538,10.338215427473529,3.0406515963157403,3.0406515963157403,2.4325212770525866,2.7196414661021238,3.0406515963157403,9.730085108210403,4.865042554105202,12.223268140054351,"{'anger': (['e1', 'e2', 'b1'], 2.2824823676855757, 3)}"
44,347,3,0,11.57823333333326,1.807753815155343,44.90367322704288,2.556549962824562,6.39137490706139,12.78274981412278,12.846504572784236,14.291548761875758,24.58811020389105,18.302112453523986,17.256712249065828,12.782749814122838,16.617574758359694,0.6391374907061333,9.587062360592114,1.9174124721184285,1.9174124721184285,4.042260417272134,3.834824944236857,3.195687453530724,11.504474832710542,6.391374907061419,15.392469086380002,"{'anger': (['e1', 'e2', 'b1'], 2.2824823676855757, 3)}"
45,348,3,0,11.611599999999926,1.3469311461009283,47.21949487935915,4.259370273099868,6.868028197434494,12.19698028249663,13.53649048852814,13.53649048852798,25.90873789987825,19.04848294398647,18.183570472362305,13.469311461009111,16.163173753210913,1.3469311461008715,10.77544916880737,2.6938622922018567,2.6938622922018567,2.6938622922018283,2.6938622922018283,2.6938622922018283,9.428518022706385,4.040793438302728,13.736056394868829,"{'anger': (['e1', 'e2', 'b1'], 2.2465157483582883, 3)}"
46,349,3,0,11.644966666666592,1.9624826980315653,43.21919822180286,4.163054471218118,6.938424118696901,12.56602052930852,12.566020529308526,12.566020529308414,25.132041058616828,18.25214415942221,17.346060296742223,12.48916341365441,16.652217884872528,2.0815272356090877,10.407636178045324,2.0815272356090304,2.0815272356090304,2.7753696474787546,2.7753696474787546,2.775369647478783,11.101478589915018,8.326108942436264,8.326108942436349,"{'anger': (['e1', 'e2', 'b1'], 2.2465157483582883, 3)}"
47,350,3,0,11.678333333333258,0.0,47.66364657073447,4.459764877482996,7.58014271210719,13.46162953038231,14.940027439382634,13.46162953038226,25.446292699619256,17.90089352379585,17.839059509931985,13.379294632448987,16.352471217437653,1.486588292494332,10.406118047460325,1.486588292494332,2.973176584988664,2.1023533249105864,2.973176584988664,2.973176584988664,11.892706339954628,7.432941462471632,13.46162953038231,"{'anger': (['e1', 'e2', 'b1'], 2.2465157483582883, 3)}"
48,351,3,0,11.711699999999924,1.4883984964325236,46.35590773199319,2.9767969928649904,6.136824213801779,11.90718797146019,13.3955864678926,14.958219763810026,25.477278399889705,19.406342115685597,18.60498120540632,13.395586467892542,17.860781957190056,0.744199248216205,9.674590226811349,2.232597744648785,2.232597744648785,3.328160215631601,2.9767969928649904,2.9767969928649904,10.418789475027552,5.953593985730038,13.478021624221038,"{'anger': (['e1', 'e2', 'b1'], 2.2465157483582883, 3)}"
49,352,3,0,11.74506666666659,0.0,44.663596952643445,4.844447267382503,7.811436503535535,12.350965574477264,12.35096557447704,12.350965574477144,24.938318651242383,17.127707569333847,16.85143610645798,12.255589895605794,16.85143610645798,2.2979231054260936,9.9576667901797,2.2979231054260936,2.2979231054260936,1.531948736950767,3.06389747390142,3.063897473901477,10.723641158655084,6.127794947802897,12.350965574477264,"{'anger': (['e1', 'e2', 'b1'], 2.2465157483582883, 3)}"
50,353,3,0,11.778433333333256,2.276257268029903,45.325535243146646,3.219113899898275,6.438227799796493,12.876455599592871,12.976662991054985,12.976662991055102,24.357016416315457,17.995393768717324,16.90034797446583,11.26689864964385,16.095569499491262,0.8047784749745688,10.46212017466928,2.4143354249237063,2.4143354249237063,3.219113899898275,3.2191138998982183,3.2191138998982183,11.266898649643906,8.047784749745631,9.657341699694824,"{'anger': (['e1', 'e2', 'b1'], 2.2465157483582883, 3)}"
51,354,3,0,11.811799999999922,0.0,46.7008361467938,5.244306462729563,6.633581268066621,11.726625745504869,13.370410494359444,13.370410494359492,25.096075017781743,18.541423312082653,18.242348487183108,13.267162536133185,18.242348487183108,2.487592975524933,9.12117424359161,2.48759297552499,2.48759297552499,3.316790634033282,3.7082846624165993,3.316790634033282,9.950371902099905,4.97518595104998,15.017408306869124,{}
52,355,3,0,11.845166666666588,1.7218361809347016,43.35472724790904,3.85014274668862,5.444924089439303,12.175220396312628,13.774689447477158,13.881887091041284,24.65294233889772,19.250713733442765,18.079279899814026,12.052853266542684,17.218361809346675,0.8609180904673508,9.470098995140688,2.5827542714019955,2.5827542714019955,1.7218361809346447,3.4436723618693463,2.5827542714019955,8.609180904673394,5.165508542804048,12.052853266542796,{}
53,356,3,0,11.878533333333252,0.0,45.40766091865012,3.482608615005745,7.179581586177393,12.312880839446343,14.038844145310678,14.03884414531072,24.625761678892616,17.49989170892596,17.41304307502878,12.189130152520192,15.671738767525936,0.0,10.447825845017292,1.7413043075029009,3.482608615005745,3.482608615005745,3.482608615005745,2.6119564612542945,12.189130152520136,6.96521723001149,14.038844145310678,{}
54,409,3,1,13.646966666666543,0.8411830305316528,31.22591058075621,3.808618156564873,4.2268924157203225,8.422338529657614,8.422338529657614,14.81652636037142,22.01586678364659,17.789579293357004,18.08543515643052,24.394307885417877,21.870758793822944,8.411830305316528,1.261774545797465,5.467689698455729,5.047098183189917,3.468286485359149,3.364732122126611,3.154436364493691,10.09419636637982,11.776562427443125,12.617745457974763,{}
55,410,3,0,13.68033333333321,0.0,30.327431253235986,3.858424089711233,3.858424089711233,8.106946732921639,8.140469743190259,15.010284540118112,22.72710767748877,18.868693548406448,18.74803306071351,24.713316307304183,22.582858004950367,8.734879039650622,1.065229151176908,4.900054095413765,5.326145755884539,3.5136418446315307,3.435260791115777,3.1956874535307094,9.374016530356757,12.356658153652091,12.782749814122838,{}
56,411,3,0,13.713699999999877,0.9498342446414428,30.63123399383834,3.424676072246258,4.2477878767507775,8.537947965250046,8.506188594308338,15.018198063462306,21.76758164042493,17.544958064656445,17.840709082353158,23.78761210980423,22.088496959103907,8.070796965826446,1.2743363630252134,5.522124239775991,5.522124239775991,3.235018867117304,3.398230301400602,3.398230301400602,8.920354541176593,11.469027267227048,12.750441311236871,{}
57,412,3,0,13.747066666666544,0.4116760412658209,31.33068348791129,2.881732288860718,4.137293010916847,7.832670871977838,8.243806301937813,15.0979066155157,22.473138312167947,18.34154215054723,17.907907795062926,23.465534352151398,21.81883018708814,7.821844784050455,0.4116760412657925,4.940112495189737,5.351788536455558,2.997046819199103,3.319038353484182,3.2934083301265105,9.880224990379546,13.173633320506056,13.173633320506042,{}
58,413,3,0,13.780433333333209,0.0,33.554497788016285,3.940775911356916,3.940775911356916,9.58397523690542,9.583975236905362,14.525042407416118,22.402565232132726,18.463373965098263,18.27780770802579,23.93522437955758,22.19448078831704,8.70371795620278,0.8703717956202865,5.2222307737216624,5.2222307737216624,3.5886348469009,3.4814871824811178,3.263894233576039,9.138903854012897,12.620391036494,14.361134627734543,{}
59,414,3,0,13.813799999999874,0.0,32.92392074368925,3.481812844444448,3.910710531676087,9.540225842887462,9.970394656514562,14.910316849038098,22.294480214467267,18.38855685123333,18.1383607460985,24.184480994798008,21.59328660249824,8.205448908949336,0.8637314640999421,4.3186573204996535,5.182388784599567,3.2889914274903367,3.481812844444462,3.23899299037474,8.637314640999293,11.660374765349047,12.963167725431342,"{'anger': (['e1', 'e2', 'b1'], 2.2378520455222333, 3)}"
60,415,3,0,13.84716666666654,3.390743823760147,33.15741793692452,3.838061403613554,3.4171313332006843,10.207490611565852,10.604547920775872,13.799327598581051,24.395836288708956,20.97915707166289,19.07293400865069,23.735206766320857,21.19214889850076,8.900702537370307,1.6953719118800734,2.1192148898500704,5.933801691580214,3.2278919527332883,3.4171313332006843,3.17882233477512,8.900702537370321,11.443760405190403,12.298751827666097,"{'anger': (['e1', 'e2', 'b1'], 2.2378520455222333, 3)}"
61,416,3,0,13.880533333333206,4.220611714794018,31.755720987183672,3.821926459599404,4.718787350455648,9.744038798506992,10.164579028810168,13.001950438859724,25.672978793686628,20.954816487861173,18.57069154509358,23.213364431366983,20.68099740249059,9.285345772546805,3.376489371835163,1.266183514438211,5.908856400711613,3.072651708368485,3.4027659500157483,2.9544282003557925,8.863284601067392,12.239773972902585,12.239773972902585,"{'anger': (['e1', 'e2', 'b1'], 2.2378520455222333, 3)}"
62,417,3,0,13.913899999999872,3.3464877157038946,31.175297508144457,3.7587157433834,4.998233695011721,9.582882460780173,9.961937174961122,13.191471505758615,25.248374240432668,20.27107350760105,18.263551487428717,22.829439359285917,21.169116496792384,9.131775743714371,2.9055650093636416,2.4904842937402805,5.81113001872734,3.021833222659389,3.346487715703909,3.1131053671753506,8.716695028090982,12.452421468701402,14.118847139839636,"{'anger': (['e1', 'e2', 'b1'], 2.3331748474289897, 3)}"
63,418,3,0,13.947266666666538,3.76545966098152,31.896152037100645,3.788631939145368,5.089865985592875,10.493027539418978,10.467974513128404,13.210616007498576,25.797733156022797,20.70897158216791,18.618106101519857,23.429526779440693,20.919220338786342,9.204456949065984,3.347075254205805,1.6735376271029168,5.85738169486018,3.045884457288728,2.9584245117382744,2.92869084743009,8.786072542290256,11.714763389720346,12.140359177695306,"{'anger': (['e1', 'e2', 'b1'], 2.3331748474289897, 3)}"
64,419,3,0,13.980633333333204,4.924638303392692,33.99047441064875,3.676621137372536,5.864317493116632,9.849276606785445,10.264371405297563,14.440497890519936,28.880995781039868,23.016698561753703,20.28643902681856,25.41378075887161,22.73864594214828,9.808827661318873,4.458558027872215,1.3375674083616786,6.687837041808336,3.152676615822175,3.5946044006451308,3.5668464222977576,9.808827661318889,14.267385689191102,12.93750316607302,"{'anger': (['e1', 'e2', 'b1'], 2.3331748474289897, 3)}"
65,420,3,0,14.01399999999987,5.249935620796277,33.237838970667475,3.947997807571502,4.874442852557559,10.499871241592547,10.908301754133428,13.430837136555397,27.453111405754942,22.57872236517965,19.61925402736216,23.979088255664838,21.363187718683207,9.5916353022659,4.359834228302702,0.8719668456605234,6.103767919623749,3.1740072281090064,3.515010728843076,3.2698756712270267,9.155651879435652,12.643519262077817,13.086767057967418,"{'anger': (['e1', 'e2', 'b1'], 2.4492770064778666, 3)}"
66,421,3,0,14.047366666666536,4.649905549752784,35.21540486952748,3.676073110469017,5.547001962252296,10.980989053000668,10.952553125112876,13.867504905630753,27.73500981126148,22.188007849009185,19.6063123612648,24.62188063972789,21.886116124202573,9.575175804338611,4.103646773287977,1.823843010350231,6.383450536225752,4.203750429261704,4.128900222555278,4.103646773287977,10.943058062101288,14.590744082801706,14.597866731057398,"{'anger': (['e1', 'e2', 'b1'], 2.4492770064778666, 3)}"
67,422,3,0,14.0807333333332,3.6594870400502177,35.47713966572102,3.742984179559473,4.628925645770609,10.449643394752156,10.90313631213342,13.737612816367042,25.74477292425156,21.119930537101684,19.063947157301698,24.05688569849977,21.78736817977338,9.305021826778216,2.4964692705990217,2.4964692705990217,6.127697300561266,2.870737819531674,3.659487040050253,3.404276278089611,9.98587708239613,13.16320160861308,14.078327736815034,"{'anger': (['e1', 'e2', 'b1'], 2.4492770064778666, 3)}"
68,423,3,0,14.114099999999867,4.145300953312165,34.24506825506116,3.624960526486128,5.469875747639863,10.351053141402296,10.800267445635896,13.315160326540912,26.54287700560675,21.074711197738544,18.659272197161076,23.380292873551213,21.13218778955593,9.217230844380763,3.8217786427920544,2.02329457559577,6.06988372678731,2.843652993931725,3.179300699426084,3.1473471175934407,8.093178302383123,12.589388470373748,11.698789799462356,"{'anger': (['e1', 'e2', 'b1'], 2.4492770064778666, 3)}"
69,424,3,0,14.147466666666531,4.516307713342054,32.405931476417884,3.623093282773528,5.411365128026541,9.479880067706963,9.886567101856656,13.101840267292358,26.650724613841117,21.24048464835528,18.87435537627184,22.46947068603791,20.671913031154872,8.538398860694429,4.943283550928328,0.8987788274415323,5.392672964649108,2.420036055467853,2.733529087293335,2.4716417754642066,10.785345929298202,15.279240066505778,11.243719539051265,"{'anger': (['e1', 'e2', 'b1'], 2.4492770064778666, 3)}"
70,425,3,0,14.1808333333332,2.283550061301694,35.89718794958076,4.055372848089753,5.392719907281988,9.86267522608969,10.300343285592136,13.554128534173596,25.274267706556564,19.8873683723659,18.58540201530755,23.28773264568656,21.048527583601327,8.732899742132474,2.910966580710806,2.9109665807108343,5.150171642796067,3.2603317833227683,2.7241105298612767,2.6870460745023195,10.300343285592136,14.778753409762617,11.19602531042625,"{'anger': (['e1', 'e2', 'b1'], 1.8433753797463104, 3)}"
71,426,3,0,14.214199999999863,1.3988484445819154,37.840796812153705,4.222370471857932,6.132992888805963,10.734636538803326,10.734636538803326,14.112278756666988,25.85242823019196,19.722164634848586,18.88445400185589,23.78042355789259,21.44900948358938,8.62623207492183,3.030838296594169,3.4971211114547884,4.895969556036704,2.377585171827365,2.377585171827354,2.331414074303183,9.325656297212774,13.988484445819168,12.667111415573718,"{'anger': (['e1', 'e2', 'b1'], 1.8433753797463104, 3)}"
72,427,3,0,14.24756666666653,0.6462718684681219,37.086095925777606,4.138159064959233,5.502806672786348,10.06401147820878,10.064011478208778,13.830821964429916,23.977470195064477,18.483827371032618,18.050837217014248,22.392177813511356,20.10726171009182,7.540223141284457,2.5134077137614668,3.427374155129286,3.8843573758132095,2.779720411751061,2.779720411751052,2.7418993241034286,9.596647634362014,13.252513399833248,12.372351260055746,"{'anger': (['e1', 'e2', 'b1'], 1.8433753797463104, 3)}"
73,428,3,0,14.280933333333197,1.0403580113388091,37.29360611964961,4.187360221722173,6.5302668241979305,10.246338116635458,10.70103167773442,14.150398809751604,25.79584419964034,19.27893154428705,18.610489874320763,23.263112342900968,20.936801108610865,8.142089320015344,3.489466851435111,3.489466851435168,4.419991345151203,2.942576818717746,2.791573481148106,2.558942357719076,9.30524493716038,13.027342912024537,13.060533648395854,"{'anger': (['e1', 'e2', 'b1'], 1.8433753797463104, 3)}"
74,429,3,0,14.314299999999864,2.3604042374988072,36.643327736724,4.191858727989636,6.035651733174241,10.194609170716594,10.647007197707351,14.010300439583922,26.58428825033468,20.556689066879485,19.21090429151548,23.608581177525025,21.29401439541473,8.563897093808094,3.9347635295875136,2.5460234603213223,4.860590242431613,2.8157920192186863,3.273291734278609,3.008936816743386,10.184093841285318,14.350314049083847,13.918227369200402,"{'anger': (['e1', 'e2', 'b1'], 2.2170235238144245, 3)}"
75,430,3,0,14.347666666666528,1.055477309798477,39.2234455067475,4.351844433742023,6.154437419535807,10.39524593722777,10.866804003889373,14.286032577126006,25.767484966400843,19.633012851287543,18.880952107344484,23.6011901341806,21.713094923446132,8.49642844830501,2.83214281610168,3.776190421468897,4.720238026836114,3.4363851538927563,2.83214281610168,2.83214281610168,11.32857126440669,14.632737883191965,13.292310970926676,"{'anger': (['e1', 'e2', 'b1'], 2.2170235238144245, 3)}"
76,431,3,0,14.381033333333194,0.64600885064026,37.59360795381391,4.136474929130959,5.500567156680743,10.090980832692296,10.05991565636133,13.892945646490263,23.130364714058413,17.65035212981084,17.586693701279557,22.38306471071945,19.18548403775952,7.080357204411257,2.0555875754742203,3.425979292457072,3.882776531451327,2.889039408196368,2.740783433965646,2.740783433965646,10.5063364968683,13.247119930833932,11.429063268179425,"{'anger': (['e1', 'e2', 'b1'], 2.2170235238144245, 3)}"
77,432,3,0,14.41439999999986,0.4484485293308466,37.439409740397885,4.060874147722391,5.400035379658045,9.906551808172413,10.3240604528104,13.572515332408605,23.08530097630125,17.69525845942075,17.48949264390413,22.422426466543754,18.38638970256588,6.950952204628578,2.466466911319799,3.3633639699815774,3.811812499312453,2.836237532076781,2.7278059109811843,2.6906911759852505,9.865867645279252,13.453455879926253,13.035898147917356,"{'anger': (['e1', 'e2', 'b1'], 2.2170235238144245, 3)}"
78,433,3,0,14.447766666666526,0.4720238026836227,40.22185700396683,4.274357327668302,5.683919263455894,10.42734661869213,10.897515710924418,14.23134152153641,24.23923806931292,18.559601371894853,18.40892830466086,23.12916633149697,20.297023515395296,7.552380842937794,2.360119013418057,3.776190421468897,4.24821422415252,2.4068585807640077,2.360119013418057,2.1241071120762456,9.912499856355836,15.104761685875571,12.779559567129986,"{'anger': (['e1', 'e2', 'b1'], 2.273520272027241, 3)}"
79,434,3,0,14.481133333333192,0.6480811987731778,37.25762390265722,4.605482236451017,5.518212565200624,9.634419654806708,10.09218711426301,14.235675551166675,24.85203387489501,19.334120713932737,19.01789833209898,22.913130520601182,19.70529224771701,7.103070461386352,3.436969578090185,2.520444357266115,3.436969578090157,4.149744431689099,3.694631281549863,3.666100883296195,10.998302649888572,16.03919136442083,13.869543323884354,"{'anger': (['e1', 'e2', 'b1'], 2.273520272027241, 3)}"
80,435,3,0,14.514499999999858,1.4745157287542194,38.83886745140232,3.759292237008629,5.672575269512579,10.764974714810736,10.734636538803326,15.63960106152508,26.52489454971673,20.852801415366745,19.817019631577157,24.24670637275324,20.98272666872876,7.227383630339915,3.4971211114547884,2.564555481733521,4.429686741176084,2.5110098047591483,1.9225332970807276,1.8651312594425349,10.25822192693407,14.921050075540464,14.484818784305135,"{'anger': (['e1', 'e2', 'b1'], 2.273520272027241, 3)}"
81,436,3,0,14.547866666666524,1.0168042806671735,37.05969146635236,4.569966859037237,5.084021403335889,10.045285274688393,10.468640799521626,14.615124675309078,25.21182565976867,20.136832638248052,19.553334025907475,24.555349706953564,20.462791422461294,7.957752219846071,2.5010078405230445,2.955736538799954,4.319922633630711,3.2154174615174305,3.6661399710567855,3.1831008879383944,10.004031362092192,14.551318344861372,12.764842849046614,"{'anger': (['e1', 'e2', 'b1'], 2.273520272027241, 3)}"
82,437,3,0,14.58123333333319,3.6929915953581056,35.034794463571394,3.6106096723652046,4.9465656604489325,9.862675226089635,10.310074363138495,14.062493036054809,26.285635182117943,21.351263524002523,19.257163533933124,23.73557365810362,21.048527583601327,8.508979235923931,3.5827280993363786,1.3435230372511455,5.3740921490046105,2.724110529861268,2.239205062085233,2.239205062085233,10.300343285592149,14.330912397345584,13.502239418484638,"{'anger': (['e1', 'e2', 'b1'], 2.273520272027241, 3)}"
83,438,3,0,14.614599999999855,3.04186115660099,33.730386250987735,4.323297003213718,5.18010289072618,9.50307804499836,9.903582409310348,13.932919537228177,26.46594020075743,21.29302809620692,19.57337792647067,24.52049542436984,21.07902238235303,9.033866735294168,3.44147304201681,2.1509206512605203,5.59239369327733,4.387034549186831,4.3018413025210265,4.3018413025210265,8.603682605042053,13.33570803781518,12.075843991438294,"{'anger': (['e1', 'e2', 'b1'], 2.273520272027241, 3)}"
84,439,3,0,14.64796666666652,3.9825153146676455,33.528438762878515,3.545742612113896,4.485049060397955,9.765039131813838,10.124846859864483,14.182970448455618,26.185365974726125,21.710923293304948,19.57088834977617,24.188738409835707,21.54996694694455,8.795904876303894,3.0785667067063684,1.3193857314455784,6.157133413412737,2.7815093491302183,3.07856670670634,3.07856670670634,8.356109632488696,12.314266826825444,9.68548555282578,"{'anger': (['e1', 'e2', 'b1'], 1.7146275083244358, 3)}"
85,440,3,0,14.681333333333187,2.1852026574225265,33.89909651741284,3.8807169917849422,4.370405314845064,9.009821369933476,9.428176992682722,14.245778420124196,24.666967632477142,20.30547805798362,19.07063073519916,23.141888982039404,21.427674983369823,8.142516493680517,2.142767498337008,2.142767498336952,4.714088496341333,2.710410316370357,2.6067891700050225,2.357044248170709,9.856730492350124,14.142265489024084,11.64215097535476,"{'anger': (['e1', 'e2', 'b1'], 1.7146275083244358, 3)}"
86,441,3,0,14.714699999999851,0.0,34.67620256588433,3.5718305857898045,3.5718305857898045,8.673783579037725,8.67378357903778,14.828601742697364,21.93286704150676,18.376916754950678,18.192219436616824,22.09055217303469,20.79110792756208,6.713795268275248,0.2165740409121213,3.248610613681564,3.6817586955057777,2.9056456658477137,2.6347369221908727,2.598888490945285,9.096109718308412,13.860738618374723,10.47645443654366,"{'anger': (['e1', 'e2', 'b1'], 2.397802268056214, 3)}"
87,442,3,0,14.74806666666652,0.0,36.141285335989,3.540541867473085,4.478470580960404,9.701144355242118,9.67127929405492,15.09169448650205,23.104474700813004,18.63156382535736,18.44430717502823,23.2749590542023,20.200907858364275,6.8068276479270935,1.0978754270850004,3.293626281255058,4.171926622923053,1.9639392686309651,2.239235290480191,1.9761757687530237,8.783003416680117,13.613655295854189,10.186012243681184,"{'anger': (['e1', 'e2', 'b1'], 1.7801475752227378, 3)}"
88,443,3,0,14.781433333333185,0.435185897810129,34.91265134219292,3.588634846900886,4.865526251763739,9.149259555753424,9.180256571333,14.034323506280211,22.40256523213275,17.542904382850242,17.407435912405532,21.759294890506936,19.148179503646105,6.527788467152078,1.740743591240545,3.0463012846709887,3.4814871824811178,3.168201158323012,3.50858087657003,3.263894233576025,8.703717956202766,13.055576934304156,11.389904936924571,"{'anger': (['e1', 'e2', 'b1'], 1.7801475752227378, 3)}"
89,444,3,0,14.81479999999985,0.6330318533659102,35.09760607724245,3.6911782848811314,5.004556220184654,9.442577791107706,9.888273655178663,14.87961536381714,23.92994376968013,18.93283875539205,18.57627632321683,23.27629804354882,19.69532911377206,6.714316743331381,2.23810558111046,2.685726697332541,4.02859004599884,3.691178284881145,3.165159266829334,2.9095372554436096,9.40004344066395,14.77149683532906,10.382494356564656,"{'anger': (['e1', 'e2', 'b1'], 1.7801475752227378, 3)}"
90,445,3,0,14.848166666666517,0.4274519237127094,35.57108929409425,3.8707417972562874,4.779057792673335,9.442721629796072,9.8684939781445,13.784910335911563,22.85169338081781,18.07975105294058,17.739254834077343,20.94514426192262,18.380432719646397,5.984326931977876,2.992163465988966,2.137259618563519,2.992163465988938,2.301899056319625,2.6000885450635294,2.350985580419888,9.403942321679551,13.251009635093908,11.57282173084046,"{'anger': (['e1', 'e2', 'b1'], 2.5083420367930187, 3)}"
91,446,3,0,14.881533333333184,0.0,35.06405541422303,3.944101287822564,4.869631967707635,8.808516805853904,9.1880032206827,15.037625364956185,23.84429601498144,18.97532562476782,18.728784340944543,22.21320933460865,18.29323121673653,5.444414052600166,3.2666484315601,1.5244359347280465,2.8310953073520864,4.015601392148589,3.944101287822564,3.91997811787212,8.275509359952224,13.06659372624037,10.677716091394393,"{'anger': (['e1', 'e2', 'b1'], 2.5083420367930187, 3)}"
92,447,3,0,14.914899999999848,0.6387136486221816,36.71909159979763,3.724308559697072,4.605829620891924,9.133828499017548,9.52732991442605,16.35905137708738,24.27952132009385,19.67611276559747,19.646285719705787,22.58193760885723,19.42046634361722,4.742206897860029,2.935651889151444,1.5807356326200193,2.484013136974312,4.163903554333477,3.6412280291720847,3.61311001741717,9.032775043542898,14.000801317491494,12.327338887154667,"{'anger': (['e1', 'e2', 'b1'], 2.5083420367930187, 3)}"
93,448,3,0,14.948266666666514,0.4336772794337094,35.8249983380934,3.998306957856775,5.704134027754147,9.148432231818152,9.148432231818152,15.479302373039625,24.750019709975188,19.052208444304515,18.864961655365647,22.551218530552035,18.21444573621511,5.2041273532043135,3.903095514903242,1.7347091177347806,2.1683863971684616,2.742815944951539,2.6379559055809447,2.3852250368853163,8.673545588673875,13.877672941878188,10.489254019126031,"{'anger': (['e1', 'e2', 'b1'], 2.5083420367930187, 3)}"
94,449,3,0,14.98163333333318,0.9759930290922704,35.572234715355094,3.518992910887647,4.451213067356356,8.773086192509897,9.207499821475398,15.929928482316075,24.82938542622293,20.379332748566974,19.641480827546477,23.133299641332517,19.20500347582322,5.455966896540701,3.273580137924398,1.5276707310314066,2.8371027862011715,1.951986058184566,2.2256065336781727,1.9641480827546327,9.166024386188354,14.403752606867414,10.99021889735126,"{'anger': (['e1', 'e2', 'b1'], 2.5083420367930187, 3)}"
95,450,3,0,15.014999999999846,1.352525069918509,34.482758620689616,4.298391914897535,4.781898243320948,9.448333946267688,9.448333946267688,14.698407126213644,25.10382720441557,20.32391138099091,19.46062215106545,23.096122992473283,18.819063179052307,6.415589720131464,3.84935383207889,1.2831179440262872,2.993941869394689,3.1137465444730488,3.526953875563839,3.207794860065718,8.981825608184053,14.54200336563133,11.194136788333765,"{'anger': (['e1', 'e2', 'b1'], 2.5083420367930187, 3)}"
96,451,3,0,15.048366666666512,3.6450591203943112,35.55352278323982,4.16828457475551,5.154892043713351,10.437860850173792,10.888345551289357,15.090043571412314,28.02377120563448,22.89322142246104,20.79724126576366,25.31838067136445,20.79724126576366,8.13805093008142,4.52113940560082,0.9042278811201356,4.973253346160874,2.2605697028003875,2.750101737064344,2.26056970280041,7.685936989521338,14.467646097922554,10.200155428307037,{}
97,452,3,0,15.081733333333178,3.609095768082804,32.68175218041166,3.5285853629105173,4.893267483009838,9.717787757928804,10.1043307665298,14.607858230296095,26.62225334460503,21.729634017644027,19.695021703378785,24.5093603419825,20.132688852342767,7.878008681351503,3.9390043406757513,0.8753342979279353,5.2520057875676684,2.7680500955167,3.094774089350092,2.84483646826584,8.753342979279452,15.318350213739052,11.513225135960765,{}
98,453,3,0,15.115099999999844,5.502987692801259,31.656524686774542,3.788631939145362,4.266700508664775,9.289641399629284,9.659154093761536,13.13753685693833,26.688203155116856,22.425560316220157,19.454874915071287,23.429526779440693,19.24568271168343,8.367688135514555,5.020612881308722,0.418384406775715,5.438997288084465,2.6460953258193407,2.95842451173826,2.5103064406543467,9.204456949065971,14.643454237150422,12.662609874709796,{}
99,454,3,0,15.14846666666651,5.180102890726208,30.844532125137164,3.895482979747467,5.658188823668845,8.218656268580434,9.074744169106726,14.091403340085504,28.7837869948906,23.126148302538205,20.21865412184883,24.09031129411773,19.788469991596717,8.173498474789966,6.452761953781533,0.8603682605042025,4.732025432773128,2.885762874255948,3.041861156600962,3.0112889117646944,8.603682605042053,14.626260428571484,12.318598802421562,{}
100,455,3,0,15.181833333333175,4.167153642160929,30.4609218106662,3.7002389438759993,4.971113753332588,8.619912333031792,9.407208683836004,12.831023516001837,25.66204703200364,20.691017778994656,18.388036503621265,22.88288987117312,19.205282570448876,8.376772184982997,4.29054185084496,0.6129345501207126,5.107787917672567,2.974820586543657,3.294424217273694,3.268984267310429,8.58108370168992,14.301806169483186,12.5014609264828,{}
101,456,3,0,15.21519999999984,5.250593829622406,32.228415100424264,3.908269400155895,5.250593829622406,9.534270672893074,9.93608964112053,13.871637366396111,28.26542951425844,23.02070934266461,20.28501924602952,24.60098078773791,20.28501924602952,8.631923083416808,5.610750004220932,0.0,5.179153850050085,2.729653753098064,3.4796394380997144,3.2369711562812995,9.495115391758487,15.537461550150256,13.552394140185298,{}
102,457,3,0,15.248566666666507,4.339711284745082,31.667264498080083,3.981159830220917,4.508306140396106,9.58790252577875,9.969279108680924,13.133213877633802,25.91624069614398,21.43920180928321,18.99996614161944,22.88632285240521,19.863600966238494,8.420439540035886,4.102265416940554,0.2159087061547495,5.397717653869137,2.159087061547677,3.143678213718142,2.806813180011972,8.204530833881122,14.681792018524106,11.857300421705212,"{'anger': (['e1', 'e2', 'b1'], 1.8625023635150186, 3)}"
103,458,3,0,15.281933333333171,3.870953987650186,32.58921397008635,3.9411280510832607,4.359410365909154,9.017602518336842,9.414168172801618,13.078231097727528,25.235532546717803,20.87638389956167,18.59517799564489,22.228718523529523,19.663866386199203,8.122031768212707,3.84727820599548,0.8549507124434399,5.129704274660668,2.4925882383607467,3.1120675682534693,2.77858981544118,8.549507124434442,14.534162111538537,12.65933461976306,"{'anger': (['e1', 'e2', 'b1'], 1.8625023635150186, 3)}"
104,459,3,0,15.31529999999984,2.5688688417824608,33.103097723839774,3.53057252434243,4.366237450703149,9.031724597210694,9.428911296064928,13.444019639594533,23.861151954955044,19.49822406436209,17.982081892477368,21.835385155151076,18.83837150640485,7.064389314901803,3.2110860522281257,1.498506824373095,4.067375666155584,2.1407240348187657,3.0274409633387,2.78294124526434,8.134751332311197,14.128778629803648,12.679159858414586,"{'anger': (['e1', 'e2', 'b1'], 1.8625023635150186, 3)}"
105,460,3,0,15.348666666666505,1.7272696492381383,33.387054487264706,3.910272977816706,4.827865438960846,9.109198291852994,9.539158424932785,13.559341786667549,23.99988190440032,19.1758050515575,18.136331317000383,22.454505440095687,19.43178355392897,7.556804715416831,2.806813180011972,2.374995767702416,4.534082829250082,2.896719263376487,3.0534102047849747,2.806813180011972,7.772713421571595,14.24997460621458,12.365368882909802,"{'anger': (['e1', 'e2', 'b1'], 1.8625023635150186, 3)}"
106,461,3,0,15.38203333333317,0.6003813632870071,33.33333333333335,3.5007948478881583,4.746431431759771,9.3782566960654,9.378256696065344,13.749912957362492,22.335477819674672,17.59127639816827,17.193616197769558,22.924821597026096,19.104017997521737,7.429340332369577,1.0613343331956455,3.608536732865218,4.457604199421752,2.286184119891546,2.5823378856326205,2.5472023996695583,8.06614093228697,14.00961319818262,12.572220851391442,"{'anger': (['e1', 'e2', 'b1'], 1.8625023635150186, 3)}"
107,462,3,0,15.415399999999837,0.6153118017281726,34.162275255592995,4.437076503058032,5.722730559306904,9.178257812323354,9.61147760005777,13.599643657813187,24.1230478736152,18.402864033567035,18.0562826231629,23.059830819942988,19.144010492028144,7.61409508205665,2.8280924590496,2.8280924590496284,4.13336590168791,2.751758032044079,3.076559008640803,2.8280924590496,8.70182295092188,14.358007869021094,12.034026533327372,"{'anger': (['e1', 'e2', 'b1'], 1.8625023635150186, 3)}"
108,463,3,0,15.448766666666502,0.4500989763948269,32.55992476021704,4.075819581536777,5.419909394076192,9.046877459924133,9.046877459924133,14.654160974439735,24.57062237477998,19.16491631978117,18.679107520386225,23.40514677253213,20.254453937768204,7.426633110514984,2.47554437017169,2.925643346566517,3.825841299356199,2.6245054792774725,2.737845188540176,2.700593858369104,8.551880551502137,14.40316724463517,13.176450542114846,"{'anger': (['e1', 'e2', 'b1'], 2.20734285134503, 3)}"
109,464,3,0,15.482133333333168,0.8810914672734498,32.7903371525422,4.061630976734495,5.359470162896448,8.854859656929134,9.29332243195928,13.833416635725406,24.117615733033976,18.75814557013753,18.062375079105777,22.90837814910978,19.384012280015952,7.489277471824351,2.6432744018203493,3.0838201354571027,3.964911602730552,2.568800980315074,3.1151287567733066,2.863547268638712,7.929823205461076,14.538009210011978,11.437232456709122,"{'anger': (['e1', 'e2', 'b1'], 1.7014625927160631, 3)}"
110,465,3,0,15.515499999999834,0.8821536015634877,34.54225597878813,3.9941203065761854,5.365930873557985,9.74370500188066,9.713708917355389,14.224299418789316,24.454914427032243,19.094091929391205,18.525225632833127,22.935993640650565,19.848456035178373,7.277767212898766,2.8669992050813,2.866999205081356,4.1902296074265735,2.789614627061304,3.2110875793033804,2.866999205081328,7.939382414071332,14.114457625015715,12.03905371779493,"{'anger': (['e1', 'e2', 'b1'], 1.7014625927160631, 3)}"
111,466,3,0,15.5488666666665,0.9723505269374132,33.11992040906165,3.9377195144730015,5.290158806517021,9.14216355003644,9.566664255235024,13.730470862965722,23.881055631869152,18.59199300960723,17.828783384756292,21.74241876189788,19.568176885708112,7.174998191426312,2.8265144390467185,2.826514439046747,3.696211189522643,2.3417301667710904,2.21730035079247,2.1742418761897966,7.827270754283248,13.91514800761466,11.813158543419034,"{'anger': (['e1', 'e2', 'b1'], 1.7014625927160631, 3)}"
112,467,3,0,15.582233333333166,0.6265068971505835,34.21496362585635,4.452168017376671,5.389416111334969,8.904336034753289,9.746160059577107,14.3482390190215,24.689459604278102,19.300073488881264,18.827809206001263,22.593371047201515,19.935327394589564,7.088116406965213,3.101050928047244,2.6580436526119517,3.5440582034826207,2.3856671889788563,2.801824020802375,2.436540014894291,7.531123682400505,14.176232813930367,12.600422845511964,"{'anger': (['e1', 'e2', 'b1'], 1.7014625927160631, 3)}"
113,468,3,0,15.615599999999832,0.6149684698374308,33.23106617565881,4.370172085187967,5.290158806517021,9.22452704756139,9.173136524872788,13.654515953150176,23.8057146293266,18.51555582280958,18.046207572375263,22.612115512373805,19.133328510470136,7.392422379045286,2.6090902514277445,2.6090902514277445,3.913635377141617,2.9170515808122146,2.750222605151013,2.6090902514277445,8.262119129521196,14.34999638285261,12.796664908529154,"{'anger': (['e1', 'e2', 'b1'], 1.7014625927160631, 3)}"
114,469,3,0,15.648966666666498,0.6179789909253686,33.74923531124738,3.956996255018488,5.316056288138748,9.218042763656062,9.218042763656005,14.226944774241508,23.99796312405479,18.683008386439464,18.134551107236945,21.84885675570717,19.226993945022315,6.554657026712192,3.0588399457989794,2.621862810684888,3.4958170809131843,2.3531938895391216,2.7636860647516728,2.4033742431278142,8.302565567168728,14.420245458766743,11.569583425750803,"{'anger': (['e1', 'e2', 'b1'], 1.7014625927160631, 3)}"
115,470,3,0,15.682333333333164,0.6230257513546614,34.98110670487594,4.061630976734495,4.925451038046191,10.170788054315327,9.70201337668519,13.770137650972655,23.24896370679944,18.323737067698605,17.842102212287415,22.46783241547305,18.943466546379227,7.048731738187627,2.2027286681836244,3.0838201354571027,3.964911602730552,3.355096350133654,3.115128756773315,2.863547268638712,8.370368939097801,14.978554943648705,10.898499556196638,{}
116,471,3,0,15.71569999999983,0.6277462667716834,35.167800341172914,4.019537335723781,4.092404972194943,9.805710153210304,9.775523185262411,13.500193929854332,22.1141387109745,18.025174119964863,17.533403862902503,22.19418210493987,19.53088025234709,7.5460219156795745,0.8877672841975937,3.5510691367903746,4.438836420987968,2.807366650246403,2.7000387859708948,2.6633018525928094,7.102138273580763,13.76039290506273,10.447780099068115,{}
117,472,3,0,15.749066666666495,0.8673545588673903,34.79162290894112,4.358402718014698,4.848659385554551,9.148432231818152,9.55075136353418,12.762202044146225,22.816536111016543,17.97015476535372,17.347091177347693,21.683863971684644,19.081800295082477,7.806191029806456,2.16838639716849,3.0357409560358235,4.336772794336923,3.157218250761509,3.4964180063753174,3.252579595752678,8.23986830924018,14.311350221311884,11.908370625469498,{}
118,473,3,0,15.78243333333316,1.3580083628826856,34.02557033920699,4.616340761307283,5.599211920637375,9.969010628078854,9.96901062807891,14.14908877806119,25.674779362552776,20.101785988469604,19.23845180750453,23.538811623299665,21.27546435182853,8.374384904443161,2.9423514529124475,2.942351452912476,4.300359815795133,2.0243993422792244,2.308170380653628,2.489681998618209,7.695380723001804,15.390761446003609,11.751982551450435,{}
119,474,3,0,15.815799999999829,0.8659631649185826,33.841880370708765,3.9208149868891184,5.6949835627128325,9.53543022696107,9.092613231645204,14.45146977073045,24.921842169697012,19.227502595941555,18.618208045749668,22.51504228788332,20.350134375586865,7.144196110578349,3.2473618684447274,2.814380285985408,3.6803434509039903,2.5246947786741067,2.633724146092601,2.381398703526088,6.927705319348718,13.85541063869742,12.91708230083596,"{'anger': (['e1', 'e2', 'b1'], 2.5254764743854787, 3)}"
120,475,3,0,15.849166666666491,0.4444268871858412,34.710849516073175,4.024456629211222,5.40668643366205,8.888537743716597,8.888537743716597,15.214725841727097,25.08158880336303,19.680635686970987,19.332569592583525,23.11019813366306,21.332490584919757,7.110830194973261,2.666561323114962,3.1109882103008037,3.5554150974866445,2.5914317999564065,3.1425726567072783,2.8887747667078827,8.444110856530713,14.666087277132306,11.33070685062917,"{'anger': (['e1', 'e2', 'b1'], 2.5254764743854787, 3)}"
121,476,3,0,15.88253333333316,0.43459780015408,31.799969768067,4.006793739562203,4.800289599977184,8.257358202927435,8.702814165969766,14.878232103894266,24.09569488603301,19.299274309060443,18.905004306702324,23.03368340816607,20.860694407395695,7.1708637025422775,1.9556901006933456,3.259483501155586,3.694081301309666,2.7486378291711118,3.1639197427612764,2.8248857010015342,7.388162602619303,13.90712960493046,12.44498707419919,"{'anger': (['e1', 'e2', 'b1'], 2.5254764743854787, 3)}"
122,477,3,0,15.915899999999825,0.0,34.44559149255175,4.268550391164539,4.69136951221386,8.92957646447449,9.344206052486982,13.756484714441308,22.70653352545003,18.020049448685317,17.838938827475204,21.66156857621988,19.962622021222245,7.220522858739969,1.698946554997633,3.397893109995266,3.8226297487446734,3.2346978704628158,3.4243362567437163,3.3978931099952803,8.919469413737602,14.865782356229346,12.08075249094946,"{'anger': (['e1', 'e2', 'b1'], 2.5254764743854787, 3)}"
123,478,3,0,15.94926666666649,0.6226572811059611,34.88270357309214,4.424811355365364,5.791047466588749,9.256465946939628,9.696275406345956,13.761993708232028,23.484169617394183,17.69924542146146,17.83155002592062,22.45454447708525,19.81283336213403,7.484848159028388,2.201425929126032,3.9625666724267887,3.9625666724267887,3.1132864055297897,3.63068465310402,3.302138893689005,8.365418530678824,14.089125946406426,10.363082497541516,"{'anger': (['e1', 'e2', 'b1'], 2.5254764743854787, 3)}"
124,479,3,0,15.982633333333157,0.442140400631132,34.9542677893446,4.443456033415639,5.378870124180411,8.886912066831277,9.73713227429323,12.852527888333142,23.097340048844963,17.735287068363746,17.46454582493041,21.22273923029519,19.896318028401765,7.737457011045137,2.4317722034713256,3.316053004733618,4.200333805995939,3.2188307030852794,4.076333079984189,3.7581934053647785,9.727088813885302,15.474914022090246,10.629776167775995,"{'anger': (['e1', 'e2', 'b1'], 2.5254764743854787, 3)}"
125,480,3,0,16.015999999999824,0.904163197378722,34.370096325570714,4.09377298999709,5.44378332794959,9.504471325018574,9.95606445131122,12.786798563316184,23.215171427980057,17.775489734926563,17.179100750195857,20.795753539710745,19.891590342332023,7.685387177719207,2.7124895921361656,3.164571190825569,4.520815986893638,2.4345339152150745,2.305172893453296,2.260407993446819,8.137468776408554,14.46661115805965,10.309046579302832,{}
126,481,3,0,16.04936666666649,1.360361664855184,31.021018790296665,3.895482979747467,4.809604790426629,9.044103414765628,9.044103414765626,12.969891009641117,22.900992679345325,18.1137659871575,17.422457275210178,21.07902238235303,19.358285861344623,7.313130214285735,2.581104781512608,2.581104781512608,4.301841302521041,2.720723329710359,3.468255337320088,3.441473042016824,8.603682605042067,14.6262604285715,12.318598802421509,{}
127,482,3,0,16.082733333333156,2.5870046245720677,31.498121869214252,3.428885802372042,4.697602428041916,8.548443105813327,9.366281632429136,13.245922513587312,23.953166447686613,19.256319076206022,17.862639498224723,22.115648902563947,20.839746081262177,8.293368338461477,2.339155172386569,2.339155172386569,5.316261755424023,2.853005441114499,3.096237582373296,2.764456112820497,8.506018808678434,14.88553291518727,12.687946722824774,"{'anger': (['e1', 'e2', 'b1'], 2.1007754266570737, 3)}"
128,483,3,0,16.116099999999822,3.9238508054724255,31.41804359115424,4.019568549426384,6.165736695364115,9.166026559114718,9.591635302265956,13.578626537073388,27.635984653000527,21.474119961671693,19.40126231594698,23.10712141000428,21.799171141513483,8.937660168020528,5.013809362548102,1.5259419799059517,5.449792785378378,2.9246657115345283,3.5952114066950385,3.2698756712269983,9.155651879435666,14.387452953398906,12.058705648279153,"{'anger': (['e1', 'e2', 'b1'], 2.1007754266570737, 3)}"
129,484,3,0,16.149466666666488,3.1219222773282302,31.424594139929912,3.998011240268374,5.371158177600761,8.841160422678621,9.282142239709284,14.676355521569034,27.16251796170311,21.795400269661457,20.088544954988865,24.28285653899752,22.07532412636138,8.60937640928094,3.752805101481414,1.986779171372547,5.077324549063121,3.362413195695441,3.5595390596792083,3.311298618954225,9.713142615599011,15.01122040592574,11.351096461975212,"{'anger': (['e1', 'e2', 'b1'], 2.1007754266570737, 3)}"
130,485,3,0,16.182833333333154,3.4777936214261707,31.993956557030085,3.4777936214262057,5.673749792305008,8.67037359073195,9.068976216640054,13.91117448570476,26.53872597695266,20.866761728557137,18.98015718674415,23.72519648343021,21.568360439482007,8.84302778018764,3.666621274711929,1.9411524395534057,5.823457318660161,2.515281443466072,2.6239042944249404,2.588203252737827,7.3332425494239,13.803750681268497,12.868920904601092,"{'anger': (['e1', 'e2', 'b1'], 2.1007754266570737, 3)}"
131,486,3,0,16.21619999999982,4.402930449723861,32.02985651315591,3.967236258615057,5.762410457458765,9.241897421323012,9.638374995443089,13.64479469485983,27.770653810305276,22.014652248619317,19.71485794522457,23.21972157993113,21.46728976257785,8.762159086766474,5.257295452059879,0.4381079543383066,5.257295452059879,3.336530776114856,3.6127307423203447,3.2858096575374134,8.324051132428153,14.457562493164687,12.974210355817664,"{'anger': (['e1', 'e2', 'b1'], 1.4577181903882488, 3)}"
132,487,3,0,16.249566666666485,4.283529368781188,31.802140600736177,3.949218944959786,5.634103235303307,9.036115102564208,9.005604778758206,13.34097640265312,27.15230572938548,21.524468687834744,19.27588215951536,23.55941152829658,20.98929390702787,8.995411674440504,4.711882305659316,0.8567058737562547,5.5685881794155705,3.118456451868754,3.02891266407692,2.998470558146849,8.567058737562377,13.70729398009982,13.02784597092707,"{'anger': (['e1', 'e2', 'b1'], 1.4577181903882488, 3)}"
133,488,3,0,16.28293333333315,4.026803610873733,32.95480813293414,4.099802973026737,4.534925875825176,8.904831571200505,8.904831571200505,13.84966887907848,26.47656516742793,21.95236362077349,19.788530023885784,23.56836160148194,21.789617329671984,8.893721359049778,3.557488543619911,1.3340582038574669,5.336232815429867,3.666975256817409,3.585173696910397,3.5574885436199395,8.893721359049778,14.674640242432131,13.524598759435236,"{'anger': (['e1', 'e2', 'b1'], 1.4577181903882488, 3)}"
134,489,3,0,16.316299999999817,0.4427336599747775,34.1622885612031,4.009123804688725,4.515015143071431,8.865734631915023,9.307942168073405,14.776961336945032,23.730689373199635,19.22198432984297,18.816180548927832,23.022150318688148,20.80848201881429,7.30510538958373,1.5495678099117072,3.320502449810789,3.7632361097855664,3.7827180490025754,3.650875288184548,3.320502449810789,8.411939539520674,13.724743459217947,10.95262586455364,"{'anger': (['e1', 'e2', 'b1'], 1.9075788505031221, 3)}"
135,490,3,0,16.349666666666483,0.8753342979279353,35.95536186887744,3.094774089350092,4.035091737369964,9.638619125263377,9.232598621764197,14.607858230296095,20.86621451415087,16.83739140299751,17.06901880959495,22.321024597162648,20.132688852342767,6.783840808941591,0.6565007234459586,4.59550506412171,4.1578379151577565,3.609095768082817,3.5285853629105244,3.2825036172297786,8.315675830315485,13.567681617883167,12.448534027159294,"{'anger': (['e1', 'e2', 'b1'], 1.9075788505031221, 3)}"
136,491,3,0,16.38303333333315,0.0,37.370709839973294,2.993394878031688,5.097567792378647,9.322875365975603,9.35166455040301,14.54802229168678,22.631332287901834,17.541396148615803,17.356528499607236,22.43648806046789,19.4731783166325,6.561614432778356,1.4816548719176978,3.59830468894296,4.021634652348013,3.90290941771708,3.902909417717066,3.8099696706454864,9.313259194911195,14.816548719176907,14.54802229168678,"{'anger': (['e1', 'e2', 'b1'], 1.9075788505031221, 3)}"
137,492,3,0,16.416399999999815,0.0,35.68272222925279,3.025915992636217,5.152949254943787,8.996695034028129,9.027175172277031,14.22502386072746,22.399955003931197,17.250375266091417,17.11716574155116,22.252315464016505,18.828882315706267,6.418937153081686,1.7117165741551048,3.423433148310238,3.851362291849029,3.1153711897879925,3.528794118180972,3.209468576540843,8.130653727236805,14.121661736779714,13.859884419880052,"{'anger': (['e1', 'e2', 'b1'], 2.1698002556361393, 3)}"
138,493,3,0,16.44976666666648,0.430184130252087,35.832039873808746,3.966101713681129,5.658188823668882,9.074744169106726,9.473822732749838,14.299983092382924,23.85098485011492,18.195314023457684,18.06773347058831,22.79975890336144,19.78846999159674,7.09803814915972,2.366012716386564,3.2263809768907947,4.086749237394997,3.966101713681141,3.966101713681141,3.871657172268925,10.324419126050472,15.916812819327802,13.932919537228209,"{'anger': (['e1', 'e2', 'b1'], 2.0808749986755464, 3)}"
139,494,3,0,16.483133333333146,0.6288810682967735,37.48310541584807,4.026803610873733,5.409839503774094,10.266375094625529,10.266375094625529,14.782049838547636,24.602836924509983,19.20405500650581,18.89915788798081,24.013047669434428,20.90024519376701,7.7820061891685555,2.0010873057862,3.779831577596156,4.669203713501133,4.099802973026737,4.099802973026737,4.0021746115724,9.338407427002268,15.119326310384636,15.223598761934886,"{'anger': (['e1', 'e2', 'b1'], 1.8214243936872765, 3)}"
140,495,3,0,16.516499999999812,0.630830084544835,37.19491012878292,4.039283404051015,4.987149709295861,9.853880926737329,10.298192449093778,13.942629304920157,23.349236302856216,18.37546424824399,18.065601337605216,23.641404219582142,20.072890375116916,8.029156150046788,1.3381926916744362,4.014578075023394,4.460642305581558,4.11250900443903,4.039283404051021,3.7915459597442975,9.813413072279374,15.612248069535369,14.827862086312312,"{'anger': (['e1', 'e2', 'b1'], 1.8057938282679609, 3)}"
141,496,3,0,16.549866666666478,0.4251202729107035,34.033526447194205,3.094922302950873,4.752989144208006,8.937641910836192,8.937641910836192,13.3490473438938,21.106697100062703,16.35470344367996,16.154570370606848,20.40577309971391,19.130412280981773,6.589364230115933,1.0628006822767873,4.038642592651684,4.038642592651684,3.919415255796757,4.272405866769567,3.826082456196346,9.352646004035536,13.603848733142598,12.024217111801429,"{'anger': (['e1', 'e2', 'b1'], 1.8057938282679609, 3)}"
142,497,3,0,16.583233333333144,0.6073222916126341,34.4518257489044,3.462269760058173,4.379463326283414,9.059082812870512,9.457472639571238,13.48474324500078,20.83124313307213,16.45944254055838,16.53350586445481,21.472085538253,18.895435273662628,6.871067372240958,0.4294417107650474,3.8649753968855407,4.294417107650617,3.126382845410264,3.888760085358237,3.6502545415030023,10.306601058361435,15.0304598767771,15.18305729031631,"{'anger': (['e1', 'e2', 'b1'], 2.406867257928367, 3)}"
143,498,3,0,16.61659999999981,0.9382828398020288,33.610962481869464,4.27922814293811,3.799755896693711,8.821854814724714,8.821854814724713,13.115838285487092,21.96463814252146,18.164923144968885,17.623739380118877,20.980642119189127,19.302190749654017,7.133418320524328,1.6784513695351109,2.517677054302709,3.3569027390702786,4.380886689561867,4.634775331576967,4.19612842383782,9.651095374826994,15.106062325816168,16.915134448971124,"{'anger': (['e1', 'e2', 'b1'], 2.406867257928367, 3)}"
144,499,3,0,16.649966666666476,1.66078832689834,33.22797597287248,4.107773535650459,3.647512166447233,9.299367856390814,9.299367856390814,12.64818707452524,21.933208738924375,18.286425411146453,17.32041440144559,22.154018420453667,18.528815406197623,7.854606530888134,1.4098011722106776,2.2154018420453667,4.632203851549406,4.107773535650443,4.9002775688535385,4.430803684090733,9.667208038016142,14.500812057024206,16.23740060602283,"{'anger': (['e1', 'e2', 'b1'], 2.3070365990168233, 3)}"
145,500,3,0,16.68333333333314,2.021262321602137,33.30608552086587,4.519679951461412,4.465114410506729,8.52771507700433,9.332892866982402,12.29485871374507,23.268232462178453,18.80968949446759,17.584982197938587,22.233885537623507,18.99986582306008,8.48930175072897,2.4255147859225588,2.4255147859225588,4.8510295718451175,4.122582407975659,4.519679951461412,4.244650875364485,10.914816536651529,15.36159364417624,16.697143877771158,"{'anger': (['e1', 'e2', 'b1'], 1.4308130682018447, 3)}"
146,501,3,0,16.716699999999808,2.5512600388994064,34.13868637841229,4.277308100653321,3.866903439611112,9.265391518411146,9.683168051472672,11.929661623780968,22.48131327883536,18.625473398053824,17.196407236655233,22.22950203762747,18.87410550364595,8.807915901701449,1.6776982669907454,2.097122833738439,5.452519367719958,4.277308100653321,4.6893092134061325,4.4039579508507245,9.646765035196822,14.260435269421391,16.90754481544154,"{'anger': (['e1', 'e2', 'b1'], 1.4308130682018447, 3)}"
147,502,3,0,16.750066666666473,1.2917481884173014,34.28747334755429,3.4714689469726148,3.899092449203233,9.987291923385383,10.052055032248855,12.17871871487062,20.828813681835666,16.930171256611814,16.146852355215998,22.820884662038623,18.51505736731437,8.611654589448563,2.8421709430404014e-14,3.444661835779442,5.597575483141554,4.3910994795918965,4.814061265188751,4.521118659460484,9.472820048393388,14.209230072590088,15.290234628874249,"{'anger': (['e1', 'e2', 'b1'], 1.4308130682018447, 3)}"
148,503,3,0,16.78343333333314,1.7877778328977008,32.999196395031426,3.575555665795346,4.357624201326924,9.578532968056768,10.05727268004302,11.406230261473546,20.97476076668277,16.618812396032133,15.609593308605838,19.945591449885256,18.21119219337348,7.804796654302919,1.7343992565117503,2.167999070639695,4.769597955407335,3.1566542948230176,3.495793461113805,3.468798513023529,10.406395539070571,15.175993494477922,14.543379891320251,"{'anger': (['e1', 'e2', 'b1'], 2.4541297464663643, 3)}"
149,504,3,0,16.816799999999805,2.2145174120341853,34.3208983287631,3.501459470064824,4.00407209214871,9.56452253337678,10.02665403054048,11.854153912173528,21.439773352265952,17.458748288702928,16.286347351663522,19.977919418040585,19.109314225951863,7.817446728798501,1.7372103841774449,2.17151298022182,4.777328556487987,4.429034824068399,4.429034824068399,4.125874662421438,10.423262305064654,15.200590861552628,17.566452877769773,"{'anger': (['e1', 'e2', 'b1'], 0.9289709511257144, 3)}"
150,505,3,0,16.85016666666647,0.9374249357741868,33.56190743966719,3.457052348298023,4.687124678870969,9.23256489229788,9.261075196575131,12.688177232002335,21.58114270403597,16.899668364162004,16.34993786551692,20.54222962590589,19.2845420977892,7.3365105806806525,1.4673021161361248,3.1442188202917123,4.401906348408403,4.37688109532408,4.687124678870983,4.401906348408403,11.319187753050173,15.930708689478024,15.714105395133496,"{'anger': (['e1', 'e2', 'b1'], 0.9289709511257144, 3)}"
151,506,3,0,16.883533333333137,0.9309114799541396,32.912691007998816,4.1839267329758805,5.013111740406548,8.33672681077745,8.742641670892056,13.425796295570883,23.40645439222438,18.39345399979196,17.901599611826555,20.815813502123888,19.56686469199647,6.869218455700889,3.122372025318583,2.289739485233639,3.122372025318612,3.94952292095987,4.598363499947984,4.1631627004247775,10.82422302110443,15.820018261614166,16.83895101378364,"{'anger': (['e1', 'e2', 'b1'], 0.9289709511257144, 3)}"
152,507,3,0,16.916899999999803,0.8294186723715598,34.46082370537853,3.755352759543513,4.993761694389241,7.890383243804632,8.71876450052901,13.78557710214602,23.35664188029452,18.364648037248955,17.832501455988478,21.15017614547472,19.4913388007316,6.63534937897245,2.902965353300459,2.0735466809289,3.317674689486239,4.22922199536079,4.22922199536079,4.1470933618577845,10.782442740830248,15.344245438873813,16.717467794777704,"{'anger': (['e1', 'e2', 'b1'], 2.243416268198255, 3)}"
153,508,3,0,16.95026666666647,0.9568786545059876,33.019939993162666,3.945311763427065,5.579513403628642,8.996695034028129,9.453263760323146,13.800300212873127,23.63315940080781,18.054350344554145,17.759059456859347,21.824386320477743,19.684740602783847,7.060830868389871,2.7815394330020524,2.781539433002081,3.637397720079633,3.945311763427037,4.364038106678569,4.065326863618395,10.2702994449307,14.97752002385728,16.401469566053034,"{'anger': (['e1', 'e2', 'b1'], 2.243416268198255, 3)}"
154,509,3,0,16.983633333333135,0.9399226888988363,33.6697047972244,3.8063967793901,4.699613444494114,8.837272884880266,9.25716490764633,13.199138576826124,22.47181978142052,17.77920351826848,17.234194412971647,21.43765646491596,19.75627164413825,7.566231693499759,1.6813848207777085,3.3627696415554738,4.203462051944314,4.224427080014177,4.699613444494103,4.41363515454151,11.76969374544406,16.393502002582792,17.361875773361504,"{'anger': (['e1', 'e2', 'b1'], 2.243416268198255, 3)}"
155,510,3,0,17.0169999999998,0.6230741238581838,36.15172501147888,3.989621024193602,4.4930514039710205,9.294043977210231,9.702766653215502,14.645555759733464,23.499891277116543,19.02672913991496,18.72464737188469,22.02899690809963,20.707257093613663,6.82898904151088,1.982609721728977,2.8637695980529543,3.744929474376932,4.06194632687586,4.061946326875846,3.7449294743769457,11.455078392211815,16.30145771199375,17.760345100957114,"{'anger': (['e1', 'e2', 'b1'], 2.243416268198255, 3)}"
156,511,3,0,17.050366666666466,0.4287464628562816,35.15982416472125,3.882464347777674,3.9528470752104794,9.432422182837968,9.44216139264234,12.976222599091631,21.22186719067915,17.28332246109289,16.935485282822754,19.722337291388527,19.293590828532245,6.645570174272223,1.5006126199969572,2.786852008565773,3.2155984714220267,4.476244486830714,4.79353118029605,4.287464628562702,12.433647422831896,16.721112051394613,16.85797071033721,"{'anger': (['e1', 'e2', 'b1'], 2.243416268198255, 3)}"
157,512,3,0,17.083733333333132,0.5991731125037497,36.015238676627256,3.8365798790907824,4.257924981342972,9.753831604455094,10.177127728815805,12.467984813819454,20.915347433015075,16.658736677544177,16.31165578180773,19.91293043493411,19.48925106397806,7.414388991730789,1.0591984273901005,3.601274653126381,4.024954024082433,3.9061307961671465,4.25792498134298,4.236793709560445,12.286701757725297,16.52349546728574,15.880913518121778,"{'anger': (['e1', 'e2', 'b1'], 2.243416268198255, 3)}"
158,513,3,0,17.117099999999798,0.4292794474538368,36.06969307721145,3.8635150270844743,4.292794474538312,9.882755047218389,10.338418134493976,12.141856332744684,20.217193475007782,15.935463690794624,15.883339555791707,19.746854582876185,18.888295687968508,7.297750606715112,0.8585588949076737,3.434235579630638,3.8635150270844743,3.4609615514199525,3.957760950402719,3.8635150270844743,10.73198618634575,15.45406010833787,16.453223387689214,"{'anger': (['e1', 'e2', 'b1'], 1.4530720132104031, 3)}"
159,514,3,0,17.150466666666464,0.9791318792049496,37.680678998824845,4.037064159371495,3.530310195914873,10.10926993659376,10.518264682704144,11.951827738653,20.313152181559,16.782903080039326,16.201600262211315,20.580411143890075,19.266767879386435,8.100800131105672,0.2189405440839493,3.72198924942694,4.597751425762681,4.037064159371495,4.400650472928192,4.159870337594796,9.195502851525362,14.450075909539848,16.84562180850329,"{'anger': (['e1', 'e2', 'b1'], 0.6181330217451143, 3)}"
160,515,3,0,17.18383333333313,0.5914520034105785,34.71475626020705,3.787140658316253,4.203056191997221,8.792566143440364,9.210333981026304,12.193095412724176,20.56093379010025,16.35875411939528,16.101459310781536,19.238107228466248,18.8198875061083,6.9006254189063725,1.4637690282528697,3.136647917684712,3.9730873624006335,3.4487281799967344,4.265021050545204,3.9730873624006335,10.037273336591085,15.055910004886629,15.200431555698506,"{'anger': (['e1', 'e2', 'b1'], 0.6181330217451143, 3)}"
161,516,3,0,17.217199999999796,1.5022478311294465,32.92578446072262,3.359128269457099,4.187266440416044,9.175733233642264,9.619079498135909,12.610074324974525,21.314334189479258,17.128260594622848,16.45761904245208,19.5824834176012,18.749186250894752,6.666377333651496,2.083242916766068,2.4998915001193325,3.749837250178956,3.435772235858563,3.841310137293071,3.749837250178942,10.41621458383041,15.415997584069018,16.334537537675878,"{'anger': (['e1', 'e2', 'b1'], 0.6181330217451143, 3)}"
162,517,3,0,17.25056666666646,0.9153610470368286,34.03863317535764,3.774130282508654,4.521550027694874,9.424218785757391,9.424218785757336,13.201524762614127,21.792514718540776,17.270997693529235,16.988519058575974,21.69618096637413,19.64937144124451,7.573195242979665,1.0234047625648088,3.888938097746319,4.298300002772237,3.774130282508642,4.174688683697426,3.888938097746305,9.824685720622256,14.737028580933384,15.234644054317206,"{'anger': (['e1', 'e2', 'b1'], 0.6181330217451143, 3)}"
163,518,3,0,17.283933333333128,0.5763329787413444,32.23602998061615,3.2856034951754918,3.2856034951754918,8.160761014033804,8.558108107278883,13.19915769664428,20.118066441783327,16.832475341860015,16.504922778323476,20.78397683196292,19.153861002005044,6.9279922773209535,0.0,4.075289574894697,4.075289574894697,4.155996213185857,4.55631225873038,4.279054053639428,10.59575289472619,15.078571427110347,16.788016782026194,"{'anger': (['e1', 'e2', 'b1'], 0.6181330217451143, 3)}"
164,519,3,0,17.317299999999793,0.4015028271068104,30.918324738514528,3.635762733502998,3.237019278805514,8.03005654213581,8.03005654213581,11.815376188311976,18.625577237123505,15.388613977116371,15.257107430058056,18.4691300469124,18.067627219805587,6.624796647262059,0.2007514135534052,3.412774030407718,3.011271203300936,4.488938072845646,4.488938072845646,4.416531098174701,11.643581986096931,15.658610257164852,18.93885047696426,"{'anger': (['e1', 'e2', 'b1'], 0.6181330217451143, 3)}"
165,520,3,0,17.35066666666646,0.4346799081843358,36.55448693224331,4.368479012252593,5.216158898211745,9.169582708482954,9.572831971306837,12.725064068613056,21.84239506126289,16.660209739638006,16.735176465095975,20.864635592846952,19.12591596010969,7.38955843913331,1.7387196327372294,3.912119173658823,3.912119173658823,4.432882667997062,4.538191474709305,4.1294591277509625,9.997637888239154,14.779116878266578,17.00259781757059,{}
166,521,3,0,17.384033333333125,0.8818448443628313,35.71471619669512,3.9927223488931993,4.8701473335664485,10.150796454595834,10.150796454595834,12.97541122057792,22.69787089824018,17.83420827447898,17.195974465075437,19.400586575982544,19.400586575982544,6.61383633272132,3.086456955269938,2.204612110907106,3.086456955269938,4.0651038735188525,4.06510387351888,3.74784058854209,11.463982976716949,16.314129620712592,16.462415978250906,{}
167,522,3,0,17.41739999999979,0.8220713149437131,34.13823736220892,3.722086183915236,4.130857233437865,9.462751460757184,9.899049489406984,12.44019636217234,21.107391406520104,16.977315211273325,16.44142629887446,20.140747216121213,18.90764024370563,7.193124005757596,1.4386248011514908,3.082767431038974,3.904838745982687,2.992384754807832,3.7895615175944406,3.493803088510816,9.864855779324673,15.61935498393072,14.757267761969947,{}
168,523,3,0,17.450766666666457,0.9786534966019772,35.024311886738715,4.893267483009867,4.893267483009867,9.638619125263377,10.075854437197568,13.195501231615562,23.77946757707604,18.900938457425895,18.382020256486896,21.883357448198662,21.00802315027073,8.315675830315485,2.188335744819881,2.6260028937838342,3.9390043406757513,1.9573069932039544,2.662225334460511,2.407169319301872,9.628677277207416,15.756017362703034,18.63557734122356,{}
169,524,3,0,17.484133333333123,2.234821981815737,34.668842179684,4.404706217091902,4.40470621709193,9.682024370566925,10.555292125892196,13.762417162946637,24.793123836832997,20.393192127361857,19.06538226610689,23.22908643916472,21.475947839982496,8.765692995911223,2.1914232489777987,2.191423248977827,4.821131147751174,3.533563813774568,2.6297078987733755,2.6297078987733755,10.957116244889022,16.654816692231307,16.073757154487296,"{'anger': (['e1', 'e2', 'b1'], 2.536396509195239, 3)}"
170,525,3,0,17.51749999999979,3.8863567107858046,32.48977681278718,3.910272977816678,4.4036908233509,9.10919829185294,9.53915842493278,13.133213877633802,25.282531509377097,20.88853966945653,18.784057435464632,23.318140264714746,20.72723579085755,9.068165658500163,3.022721886166749,1.2954522369285826,5.181808947714387,2.325407931877184,2.626642775526764,2.37499576770243,9.931800483119249,15.54542684314316,17.039013885264964,"{'anger': (['e1', 'e2', 'b1'], 2.4110053442223593, 3)}"
171,526,3,0,17.550866666666455,2.5724787771376327,32.6551725476631,4.372373160976044,4.372373160976044,9.519716382329868,9.898380735073308,12.976222599091631,24.25356250363332,19.88940007376085,18.43609790281971,23.15230899423869,21.008576679957343,9.218048951409855,1.9293590828532388,1.9293590828532103,5.788077248559659,3.265235781055096,3.8824643477776672,3.4299717028501675,11.147408034263066,16.721112051394613,18.331105033922697,"{'anger': (['e1', 'e2', 'b1'], 2.4110053442223593, 3)}"
172,527,3,0,17.58423333333312,3.6615025169888895,30.58025140447355,3.2799974486676016,4.148905062932304,8.146836751458626,8.582164468023516,13.176636691896949,24.222833686826476,20.083740079430893,18.10409577844507,21.969015101933337,19.93484703693952,7.933255453475937,3.051252097490732,1.0170840324969106,4.6785865494858,2.573041691583187,3.354835916891129,3.051252097490746,9.764006711970382,15.459677293953106,17.724130198330336,"{'anger': (['e1', 'e2', 'b1'], 1.9021015121161045, 3)}"
173,528,3,0,17.617599999999786,3.408949908744063,33.28093739993787,4.345575526386572,4.345575526386583,9.413270607896411,10.26229818512672,12.89669323168414,24.948879151476287,20.61287461150006,18.749224498092303,22.15817440683637,20.45369945246435,8.522374771860143,3.408949908744063,0.8522374771860086,4.687306124523076,3.5138651365478624,3.858669292536983,3.622009278040565,10.22684972623216,16.192512066534263,16.04607242788639,"{'anger': (['e1', 'e2', 'b1'], 2.1863456299817243, 3)}"
174,529,3,0,17.650966666666452,2.640022809895612,33.512579832760736,4.0566346106833215,4.919392054230513,9.281890364159915,9.720001676302084,13.753198483265471,25.32603173669786,20.411624125542332,18.920163470918595,22.880197685762,20.68017867751567,8.140070330511492,3.300028512369522,1.5400133057724474,5.060043718966597,3.628364299746506,4.48717594132928,4.180036115668045,9.68008363628391,15.400133057724418,17.434369859026237,"{'anger': (['e1', 'e2', 'b1'], 2.1863456299817243, 3)}"
175,530,3,0,17.684333333333118,2.5626521341797,33.35825500073089,3.867633675011168,5.196001459992349,9.406093165537383,9.82349984768888,12.9266545686157,24.52809007533249,19.338168375055854,17.93856493925793,21.78254314052748,20.07410838440768,8.11506509156905,3.4168695122396,2.13554344514975,4.69819557932945,3.522028476979142,3.522028476979142,3.6304238567545752,11.104825914778717,15.80302149410818,17.641191734397385,"{'anger': (['e1', 'e2', 'b1'], 2.1863456299817243, 3)}"
176,531,3,0,17.717699999999784,0.927821049038719,32.803427775144335,4.231515036014578,3.8255041868579847,8.753046270556172,9.166195794670497,12.558187285750986,21.360044627547563,17.550293714814515,17.0123016801669,20.74670936605719,19.50190680409375,7.6762824654411475,1.0373354683028708,2.6970722175874187,3.941874779550858,3.4216349640097987,3.825504186857972,3.7344076858902895,10.37335468302858,15.35256493088231,17.55029371481452,"{'anger': (['e1', 'e2', 'b1'], 1.9342379282562396, 3)}"
177,532,3,0,17.75106666666645,1.6321093419316526,31.460468721081853,3.6948446696858537,4.161078691413349,8.607346071413266,9.013618450579656,12.753710105367777,22.21782839920061,18.06874779969629,17.13714809028258,20.80939410962884,19.177284767697188,7.34449203869255,2.04013667741458,2.4481640128975077,4.080273354829188,3.761826159275512,4.100623971620702,3.876259687087739,9.792656051590043,15.097011412867984,14.891600325677487,"{'anger': (['e1', 'e2', 'b1'], 2.0677844909844807, 3)}"
178,533,3,0,17.784433333333116,0.8230522367501862,31.75424702789155,3.726527496289113,4.196759415895305,8.271572609024487,8.681152977379487,12.86307155948577,21.592379744407296,17.406144081375444,16.87257085337845,21.399358155504387,19.34172756362895,7.613233189939052,1.0288152959377328,3.086445887813113,4.321024242938364,4.60100187601657,4.135786304512267,3.9094981245632994,11.934257432877445,15.637992498253196,15.772782031970292,"{'anger': (['e1', 'e2', 'b1'], 2.0677844909844807, 3)}"
179,534,3,0,17.81779999999978,2.01982951804622,29.7750339037042,3.2664987558665315,4.039659036092428,8.356184997392926,8.356184997392868,12.33712337670284,21.522177921299463,17.501204818314015,16.43902808676566,20.598300253296745,18.61769445971049,7.328241436269053,1.7825452142275822,2.1786663729448605,4.555393325248332,3.6520566332680025,3.652056633268004,3.367029849096582,10.69527128536562,15.448725189972563,15.529768238883292,"{'anger': (['e1', 'e2', 'b1'], 2.0677844909844807, 3)}"
180,535,3,0,17.851166666666447,2.112715871830801,32.98273608270708,3.895655581194477,4.246506346933538,8.883461516656501,8.883461516656446,12.704433545809977,22.91493358690557,18.668567624890184,17.535541736195654,21.12715871830804,19.859529195209547,7.817048725773986,2.3239874590138925,2.3239874590138925,4.4367033308446935,4.0085965222642175,4.309111782856976,4.014160156478525,13.098838405350977,18.1693564977449,22.118026397429794,"{'anger': (['e1', 'e2', 'b1'], 2.522468868456057, 3)}"
181,536,3,0,17.884533333333113,1.807875456389154,33.7881290915345,4.471577042799056,4.902290630420159,8.377037901388958,9.207958279867,13.219833633876252,24.25915743536815,19.372423510919944,18.41591655973403,21.92371019015954,20.60828757874998,8.111772770359039,2.8500823247207165,2.411608120917577,4.165504936130333,4.042532415339639,4.406611211292089,4.165504936130319,12.277277706489343,17.538968152127623,18.602884973076492,"{'anger': (['e1', 'e2', 'b1'], 2.522468868456057, 3)}"
182,537,3,0,17.91789999999978,1.3040397245529505,33.47317540799181,4.007550738197252,4.368479012252566,9.169582708482894,10.007082989909437,13.503091897371204,23.14032688596316,18.771932535305503,18.039216189648897,21.29931550103126,20.864635592846923,7.606898393225464,1.956059586829383,2.825419403198026,4.564139035935284,4.00755073819724,4.432882667997048,4.346799081843116,13.909757061897963,19.12591596010969,20.655301348168592,"{'anger': (['e1', 'e2', 'b1'], 2.522468868456057, 3)}"
183,538,3,0,17.951266666666445,0.9369721867963534,34.383177122429544,3.794448156558552,4.211166222362172,8.80953188816317,9.22810583199505,13.0505124226217,21.853758992069825,17.643960021295896,17.180094722166615,20.5323083264918,19.275228224869863,6.9139405589207,1.8856201524329208,2.723673553514203,3.980753655136169,4.273250645546335,4.684860933981696,4.3997803556768105,12.570801016219464,17.599121422707242,17.307375279249182,"{'anger': (['e1', 'e2', 'b1'], 2.522468868456057, 3)}"
184,539,3,0,17.98463333333311,0.983412061351844,35.18636811812592,4.054711802460158,4.857697241580734,9.246165506048982,9.67549536393426,13.746679591209272,23.458036825203788,18.601831179943865,18.03160499642297,21.11017170312934,20.670376459314127,7.256621522950695,2.418873840983593,3.298464328613932,3.738259572429144,4.054711802460158,4.48504906039793,4.397952438151933,12.754062070640645,18.471400240238182,18.60183117994392,"{'anger': (['e1', 'e2', 'b1'], 2.522468868456057, 3)}"
185,540,3,0,18.017999999999777,0.6235584694033938,37.0610967799278,3.9927223488932055,5.309409048607792,9.269863074123071,9.700293287991316,14.171386580040362,23.87504327839002,18.565923315684397,18.298280520528976,22.046121109071063,20.72335384252679,7.275219965993443,2.425073321997843,3.3069181663606457,3.747840588542061,4.870147333566477,4.929662544007588,4.850146643995629,14.1095175098055,18.95966415380113,23.518158875169952,"{'anger': (['e1', 'e2', 'b1'], 2.522468868456057, 3)}"
186,541,3,0,18.051366666666443,0.435185897810129,36.13091440366357,3.940775911356916,5.240332147837421,8.279976398898691,8.703717956202752,14.034323506280185,22.77980987384917,17.542904382850242,17.625028861310597,20.88892309488662,20.018551299266363,6.527788467152078,2.175929489050702,3.4814871824810893,3.4814871824810893,4.012215732047501,4.373564145057722,4.35185897810139,13.055576934304156,17.842621810215675,21.915401837418905,{}
187,542,3,0,18.08473333333311,0.6240621736685645,34.422558993595466,3.995947629882367,5.313697935881149,8.384293302778417,8.825571897661519,13.74354373343798,23.45427903822881,18.140790752620163,17.87178309276456,20.740093959504577,20.298815364621504,6.839818220687704,2.8683108667399893,2.8683108667400177,3.3095894616230908,4.068387623576258,4.933644675870739,4.633425246272282,11.91452206184306,18.53370098508921,19.2247617196459,{}
188,543,3,0,18.11809999999977,0.6029240369294625,36.24070012613357,3.860597514193884,4.284580307628671,8.52663350106377,8.952965176116948,13.702435336819846,22.23473985136663,17.951550630890832,17.69276451470739,20.890252077606306,20.4639204025531,7.034472638377622,1.4921608626861769,3.197487562898914,3.623819237952091,3.930583831705021,5.186548676985638,4.689648425585091,12.789950251595698,18.33226202728717,17.1859792527134,"{'anger': (['e1', 'e2', 'b1'], 1.7448984091444912, 3)}"
189,544,3,0,18.15146666666644,0.6267529528105343,36.79472235093117,4.013177023023641,4.89509704656186,9.317352484066005,9.74998778734215,13.32495055387553,22.64131487641548,17.749395753463645,17.505659890909783,20.829519363867348,19.94315683774533,7.090900208976137,2.215906315305034,3.102268841427048,3.5454501044880544,4.085929357430167,4.519579816813556,4.431812630610082,12.852256628769211,18.170431785501307,18.74504818664964,"{'anger': (['e1', 'e2', 'b1'], 2.262607992552174, 3)}"
190,545,3,0,18.184833333333103,0.9702155544198364,35.62158002261292,4.424863728793619,4.792511305957528,9.545658903045478,9.988980505339024,12.27236389315859,21.80288288573927,17.010620842712505,16.704903080329643,20.826892152099305,19.09131780609104,7.810084557037243,1.735574346008292,3.4711486920165555,3.905042278518607,4.000301210490074,5.278543300222989,4.989776244773793,12.149020422057944,18.22353063308691,19.76003032642966,"{'anger': (['e1', 'e2', 'b1'], 2.262607992552174, 3)}"
191,546,3,0,18.21819999999977,0.4147664066054233,35.34286830809366,3.7558695541734144,5.455400330348692,9.162489397516763,9.988897826490051,11.320919714229918,20.940569656800356,15.48584688789849,15.138973841097965,20.323553923665717,17.834955484033202,7.880561725503014,1.6590656264216932,3.318131252843358,4.147664066054205,3.4202514087840856,3.8239573250903183,3.7328976594488097,12.442992198162685,18.24972189063861,18.47922824460007,"{'anger': (['e1', 'e2', 'b1'], 2.262607992552174, 3)}"
192,547,3,0,18.25156666666644,1.365526556218146,32.386305923214934,3.5608576038662023,4.769579212466393,9.06816565850022,9.06816565850022,11.857300421705212,21.373871433494852,16.612347540581897,15.76133554929794,18.136331317000383,18.136331317000383,6.477261184642998,3.022721886166721,2.5909044738571936,3.022721886166721,3.560857603866189,4.4036908233509,4.102265416940568,11.659070132357384,17.2726964923813,16.612347540581872,"{'anger': (['e1', 'e2', 'b1'], 2.262607992552174, 3)}"
193,548,3,0,18.284933333333104,0.4469767605615118,38.01668075862413,4.047546714681376,4.937019686694595,9.843642053315117,10.280465492914402,13.153577551428915,22.56679383972708,17.63718417204263,17.208605281617622,21.00790774639032,19.66697746470584,7.375116549264675,2.0113954225267605,3.3523257042112107,3.799302464772694,4.047546714681376,4.047546714681382,4.246279225334206,11.174419014037396,16.985116901336852,19.406205274310157,"{'anger': (['e1', 'e2', 'b1'], 2.235941326714211, 3)}"
194,549,3,0,18.31829999999977,0.8765692995911252,36.38818547634045,3.968836304032484,4.8410121852834616,9.652218170426558,10.11858688025855,12.03488468668474,21.693983357228863,16.861147134305483,16.216532042435773,19.284524591004697,18.40795529141357,7.012554396728973,2.6297078987733755,3.067992548568924,3.5062771983644723,4.469643963631488,5.331962890762618,4.82113114775116,10.957116244889022,16.21653204243576,17.366251517436808,"{'anger': (['e1', 'e2', 'b1'], 2.235941326714211, 3)}"
195,550,3,0,18.35166666666644,0.4425211981028383,37.17441460206927,4.447283000642979,5.328660860075866,9.745518468692795,10.657321720151732,12.15121632269227,22.34184308542353,17.024130401878264,16.594544928856607,19.02841151842225,18.585890320319407,6.859078570594079,3.318908985771316,2.433866589565639,3.318908985771316,4.512848448609717,4.447283000642965,4.203951381977007,11.063029952571084,15.93076313170235,18.405903092017763,"{'anger': (['e1', 'e2', 'b1'], 2.235941326714211, 3)}"
196,551,3,0,18.3850333333331,0.6237828615518182,36.211656226864434,3.5561094466969223,5.365983071075242,10.183147747846636,10.230799611975032,12.475657231036102,21.89913204754464,16.53318794128782,16.099459835779925,20.28973020399661,18.52540583843168,7.057297462259669,2.205405456956157,3.5286487311298345,4.410810913912286,3.5561094466969503,3.994159159697583,3.9697298225210735,10.144865101998306,15.878919290084312,14.23810856148245,"{'anger': (['e1', 'e2', 'b1'], 1.16650274827055, 3)}"
197,552,3,0,18.418399999999767,0.0,34.80244127145666,3.889549207922074,4.316711566161627,9.020105950254958,9.449634805029008,11.880181116838234,20.054904159382943,15.7526450121023,15.463038771865628,18.899269610057985,18.040211900509888,6.872461676384717,1.2885865643221166,3.4362308381923583,3.4362308381923583,3.960060372279397,4.316711566161655,4.295288547740455,11.167750224125156,16.751625336187743,15.106963985933533,"{'anger': (['e1', 'e2', 'b1'], 1.16650274827055, 3)}"
198,553,3,0,18.45176666666644,0.927805075120994,34.034136239733435,3.421576055112004,4.169965179697516,9.966889610420136,9.966889610420136,11.684451635693389,20.024260473395007,15.854340073516903,15.352300612014972,18.256789916990755,17.426935829854813,6.223905653519552,2.074635217839869,2.4895622614078263,3.3194163485437684,3.8254383247080175,4.231442183740905,3.7343433921117537,10.373176089199305,15.767227655582928,16.607451679215014,"{'anger': (['e1', 'e2', 'b1'], 2.087915731138964, 3)}"
199,554,3,0,18.4851333333331,0.8065237395766758,35.56943428231609,3.651691542458909,5.257891502901411,9.68668252064327,9.71183189015396,11.405968108852235,20.227512482581396,14.969654200799573,14.920689182168816,19.356569749840617,16.936998531110532,6.855451786401886,2.0163093489417463,3.22609495830676,3.629356828095098,4.454172936278235,4.508604767902045,4.435880567671816,10.08154674470866,14.920689182168816,16.37561002362793,"{'anger': (['e1', 'e2', 'b1'], 2.087915731138964, 3)}"
200,555,3,0,18.518499999999765,0.4132196125789846,32.66787874004895,3.741862738534639,4.1528057106265575,8.687444855261434,9.513029883089926,11.68761560695515,19.98889813958309,15.837689491686357,15.495735471711953,18.594882566054338,17.355223728317384,6.404903994974262,1.859488256605431,2.6859274817634,3.099147094342385,4.214029735878986,5.111244327719899,4.545415738368831,10.743709927053615,15.702345278001433,17.187154372393188,"{'anger': (['e1', 'e2', 'b1'], 2.087915731138964, 3)}"
201,556,3,0,18.55186666666643,0.9236323625612318,35.995601543656335,3.7404259857929816,4.151211169242412,9.50937719117643,9.947824987190474,11.274369802095242,19.934203320855207,15.78303673003935,15.28325514190186,19.413864639713157,17.348559890807508,7.22856662116979,1.4457133242339353,3.0979571233584977,3.9240790229207514,4.212411686474302,4.6181618128061785,4.337139972701877,11.565706593871669,16.1093770414641,17.115882125030318,"{'anger': (['e1', 'e2', 'b1'], 2.087915731138964, 3)}"
202,557,3,0,18.585233333333097,1.291241960500385,33.505178637263626,3.292033976680646,4.510114274250044,8.5845743275141,9.400383366092786,12.01618418335147,20.968274597754824,16.460169883403193,15.720572581415212,19.191348346143258,17.966368664474544,6.73738824917794,2.245796083059332,2.654122643615551,3.879102325284265,4.164130200388979,4.565229732112184,4.287428885840512,11.024817135018452,15.516409301137074,16.741388982805795,"{'anger': (['e1', 'e2', 'b1'], 2.087915731138964, 3)}"
203,558,3,0,18.618599999999763,0.910016437775361,34.22436200479193,3.685285693016308,4.495149605443828,9.36919266555381,9.395671830927268,11.510898606252288,20.45007599242111,15.955160183851897,15.46492547786039,19.53464270887628,17.90675581646991,7.325491015828618,1.627886892406366,2.848802061711126,4.069717231015886,4.150313515150955,4.951024696346493,4.476688954117478,10.174293077539716,15.464925477860376,16.863564673732025,"{'anger': (['e1', 'e2', 'b1'], 2.087915731138964, 3)}"
204,559,3,0,18.65196666666643,1.21765240765788,34.92726735248008,3.675437171907472,4.079085082240005,8.938670869065911,9.774984420604342,12.019928209308606,20.95321569952381,16.882047919358975,16.032423367495397,19.482438522526024,18.264786114868144,7.102972378004267,1.8264786114868343,2.6382468832587165,3.855899290916597,3.742066835310494,4.139222258280499,3.855899290916625,10.958871668920892,15.829481299552413,15.683102503123871,"{'anger': (['e1', 'e2', 'b1'], 2.520488436787884, 3)}"
205,560,3,0,18.68533333333309,2.0576305918754088,34.68801473239796,3.3178296364967643,4.135786304512267,9.474042718690818,9.953488909490233,11.639716357535995,21.13257742156706,16.997573087205648,15.843755557440744,20.57630591875423,17.695623090128635,7.613233189939081,1.8518675326878624,1.8518675326878904,4.3210242429383925,4.196759415895291,4.60100187601656,4.321024242938378,10.699679077752194,16.04951861662829,17.86705939453014,"{'anger': (['e1', 'e2', 'b1'], 2.520488436787884, 3)}"
206,561,3,0,18.71869999999976,1.3003472390754451,35.85988967525047,4.132568174383604,4.132568174383632,9.46667079469173,9.903149531635092,11.29132772705242,20.70780012784064,16.57623986623043,15.83142724467109,20.560295122949498,18.09305970819554,8.224118049179793,1.2336177073769647,2.878441317212946,4.523264927048899,3.723627817841524,4.193493841485839,3.9064560733604026,9.868941659015746,15.214618390982608,17.44598892556113,"{'anger': (['e1', 'e2', 'b1'], 2.520488436787884, 3)}"
207,562,3,0,18.752066666666423,2.4373132813445864,34.16105154436059,3.678468410812092,4.486834184072659,9.378291103432735,9.351860920949054,11.554053268367268,22.11935473061508,17.636637229251658,16.248755208963786,19.90472513098064,18.279849610084256,7.718158724257819,2.843532161568646,1.6248755208963814,4.468407682465056,4.142635994104942,4.142635994104942,3.8590793621289095,10.56169088582645,15.030098568291493,17.29653088608778,"{'anger': (['e1', 'e2', 'b1'], 1.6374149256601145, 3)}"
208,563,3,0,18.78543333333309,1.687598473584757,35.479726108809544,3.820463534210678,3.889722288318553,9.320067196398826,9.712858623572634,12.08136648572234,21.433995482302187,17.548184186545537,16.454085117451257,20.251181683016966,18.56358320943221,7.594193131131362,1.687598473584757,2.531397710377121,4.640895802358045,4.302548773959025,4.302548773959,4.008046374763765,10.547490459904663,16.032185499055103,16.79669227808003,"{'anger': (['e1', 'e2', 'b1'], 1.974929140403944, 3)}"
209,564,3,0,18.81879999999976,0.0,35.946452674959225,3.9902849202710216,4.349658199200557,9.56102282710247,9.963969256818142,12.736596490207006,21.061305760319968,16.723391156664675,16.44667235704418,20.341936862659907,19.043515360788007,7.14131826029552,1.082017918226569,3.6788609219704256,4.111668089261059,5.21168843930938,4.8389312360549255,4.760878840196995,11.68579351684717,16.879479524334812,19.283004367976915,"{'anger': (['e1', 'e2', 'b1'], 1.974929140403944, 3)}"
210,565,3,0,18.852166666666424,0.425948618957733,36.26821802131809,3.9270522290030936,3.927052229003106,9.833787492808987,9.83378749280893,12.197312216772358,20.467706510879108,16.540852360017816,15.973073210914125,19.59363647205467,17.463893377266118,6.602203593844507,1.4908201663519662,2.768666023225137,3.6205632611405454,4.343840639706509,4.343840639706523,4.259486189577103,10.22276685498504,15.76009890143527,17.29687083436701,"{'anger': (['e1', 'e2', 'b1'], 1.974929140403944, 3)}"
211,566,3,0,18.88553333333309,0.4289317951229918,36.49955031127287,3.8841426028314343,4.73770652888376,9.446242912433968,9.446242912433966,12.702465871977198,21.71937133528772,16.99566124756203,16.513874112235555,20.588726165904063,18.872998985412067,7.2918405170910034,1.7157271804920242,3.431454360983992,3.860386156107012,3.9545557542829513,4.374263186665133,4.074852053668522,10.294363082952032,15.441544624428062,14.80902164094541,"{'anger': (['e1', 'e2', 'b1'], 2.294669945109569, 3)}"
212,567,3,0,18.91889999999976,0.5746746825404666,32.549119470970865,3.2761497522963867,3.6797133884138047,8.94907063652953,9.381465185975298,11.958205509023362,19.253746054215306,15.574638124465633,15.238363687521826,19.09874915502735,17.473323695025016,6.501701840009304,0.8127127300011807,2.8444945550040472,3.657207285005228,4.144038069221191,4.943538541947458,4.4699200150063945,10.158909125014546,15.441541870022109,15.382614695639486,"{'anger': (['e1', 'e2', 'b1'], 2.294669945109569, 3)}"
213,568,3,0,18.95226666666642,0.4269257089029565,33.3685527356838,3.865976719488303,4.2905502739332375,9.006007695444614,9.43109716470276,12.643057261945218,20.70919759068628,16.42415995309807,16.2231769383111,20.065508318437423,17.930879773922783,6.617348487995287,1.4942399811602345,3.2019428167719184,3.6288685256748474,4.290550273933232,4.773174532246131,4.482719943480703,10.67314272257309,16.650102647214013,17.415220164403532,"{'anger': (['e1', 'e2', 'b1'], 1.9232443400141306, 3)}"
214,569,3,0,18.985633333333087,0.4110356574718423,32.51341416077796,3.3894868633033792,4.540037227713624,8.261714466875729,8.670806693291533,11.691056503844282,20.001858367090616,15.478098785364256,15.002801497722912,18.49660458623373,16.852461956346303,6.165534862077919,2.055178287359297,2.466213944831168,3.288285259774881,4.19175767646291,4.19175767646291,3.9048387459826728,11.09796275174024,15.208319326458849,17.096316540824006,"{'anger': (['e1', 'e2', 'b1'], 1.9232443400141306, 3)}"
215,570,3,0,19.01899999999976,0.8041927317992474,33.39579165951733,3.7071453215274808,4.041018464995964,8.855253888104919,8.85525388810492,11.771195128852476,20.300889427811462,16.26379148600978,15.681758270085368,19.300625563181995,18.09433646548311,7.036686403243408,1.4073372806487043,3.015722744247171,3.819915476046418,3.641137455866533,4.100594432133871,3.819915476046432,10.454505513390243,15.279661904185744,16.209022707684706,"{'anger': (['e1', 'e2', 'b1'], 1.9232443400141306, 3)}"
216,571,3,0,19.05236666666642,0.3930251669539188,32.34527878272606,3.949854043857553,4.781357518023458,8.682209715693517,9.073690579413958,11.178785467307335,19.842906162129218,15.063686154163758,14.934956344250397,19.25823318074393,16.507057012066213,6.877940421694262,1.7686132512928054,2.947688752154676,3.733739086062599,3.62351299956696,4.394154950886263,4.12676425301656,10.2186543408029,15.327981511204342,17.063811233266954,"{'anger': (['e1', 'e2', 'b1'], 1.9595108175409008, 3)}"
217,572,3,0,19.085733333333085,1.691804605398488,33.859874752084735,3.829985570089473,4.671648159291586,8.89203874154643,9.764585579332484,12.02996800620137,22.191840239290748,17.525699427607048,16.49509490263526,20.301655264781857,19.03280181073299,7.824596299968022,2.326231332422907,2.7491824837725574,4.4409870891710455,4.313272348056502,4.728737627897784,4.440987089171031,10.57377878374055,16.495094902635273,17.753875235172902,"{'anger': (['e1', 'e2', 'b1'], 1.9595108175409008, 3)}"
218,573,3,0,19.11909999999975,2.159087061547666,36.74509920943428,3.5608576038662023,4.769579212466393,9.96927910868098,10.0159301782037,11.857300421705183,22.291985773679134,17.535190096461246,16.193152961607467,20.72723579085755,18.99996614161941,8.204530833881108,2.1590870615476945,2.590904473857165,5.181808947714359,4.827865438960846,5.341286405799297,4.74999153540486,11.227252720047844,16.40906166776223,17.191540069299084,"{'anger': (['e1', 'e2', 'b1'], 1.9595108175409008, 3)}"
219,574,3,0,19.152466666666417,2.1122329184323,34.0310106365869,3.8191313533379736,3.4159349284257914,9.536589028791692,10.01920045654616,11.374722376812723,20.566651757819542,17.16486058026076,15.948353824271862,20.297904867255085,18.226690084882108,8.07773765125458,1.0356073911864885,2.278336260610274,4.763793999457818,4.224465836864643,4.7230963899274405,4.3495510429832365,9.941830955390245,15.326989389559955,18.39537256001998,"{'anger': (['e1', 'e2', 'b1'], 2.1059685618187793, 3)}"
220,575,3,0,19.185833333333083,2.436328512321466,34.55284970763459,3.676982167016029,3.7436398386530207,9.348082406708118,9.779093402042424,11.083137820159202,20.90294772066911,17.174724042010354,15.836135330089547,19.490628098571733,17.866409090357422,7.7150402890179635,2.030273760267903,2.030273760267874,4.466602272589341,4.485021329176228,4.939869262082084,4.46660227258937,10.15136880133946,15.024025825982392,17.36091829150042,"{'anger': (['e1', 'e2', 'b1'], 2.1059685618187793, 3)}"
221,576,3,0,19.21919999999975,2.5248374240432687,34.49168397354775,3.7587157433834,4.640743481415706,9.970580939862772,9.9964673900235,11.480565333164098,22.248481237738137,17.610383325423417,16.188147909311823,19.923874349922244,18.263551487428742,7.886533596844231,2.90556500936367,1.6603228624935298,4.5658878718572,4.233009337359358,4.640743481415693,4.358347514045491,11.207179321831276,15.773067193688462,18.02138787411661,"{'anger': (['e1', 'e2', 'b1'], 2.1059685618187793, 3)}"
222,577,3,0,19.25256666666641,3.40010200459024,34.225210753680344,3.818934363270061,3.4776808532965395,9.708970974593791,10.156621418970362,11.66449618803089,22.188007849009164,18.72788454161816,16.869229988623403,21.08653748577925,18.977883737201324,8.64548036916949,1.8977883737201184,1.4760576240045395,5.271634371444804,4.238341580243703,4.71509312282999,4.428172872013647,10.964999492605202,16.86922998862339,16.377059946325804,"{'anger': (['e1', 'e2', 'b1'], 1.5029787796640628, 3)}"
223,578,3,0,19.28593333333308,2.855977389887709,35.196952263134634,3.723738933872026,3.657435609350034,9.298388711299756,10.129665058258134,11.487989330517118,21.592397913029103,17.935901823580597,16.35779593237089,21.002602184772485,18.98312120546745,8.68376821101171,1.4136366855135236,2.2214290772355696,5.45259864412364,4.118949168322374,4.515696748993933,4.2409100565406135,11.309093484108274,16.155847834440394,17.53579420224319,"{'anger': (['e1', 'e2', 'b1'], 1.838343160768383, 3)}"
224,579,3,0,19.319299999999743,3.368967942326006,33.557251946238274,3.7839651358502735,4.671917946711872,9.231028910276224,9.620067845676996,11.405605249736572,23.22464874088688,18.55639700312413,16.71476178263839,21.729190317429897,18.804107005468182,8.98418445816813,2.7161487896787264,1.8804107005468325,5.641232101640469,4.6719179467118686,4.671917946711883,4.387624967942571,11.28246420328091,16.296892738072415,18.55639700312416,"{'anger': (['e1', 'e2', 'b1'], 1.838343160768383, 3)}"
225,580,3,0,19.35266666666641,3.8569814970065854,35.69621705743374,3.455108773253916,3.951068042512007,10.748067091646837,11.17530802315878,11.697234119546971,22.91058392395446,18.977711615822827,16.92786323686215,22.2847819827046,19.284907485032814,9.213900242849007,1.9284907485032927,1.9284907485032647,6.214025745177253,3.951068042512008,4.733528119005433,4.28553499667396,11.142390991352316,15.856479487693676,19.51683641649073,"{'anger': (['e1', 'e2', 'b1'], 1.838343160768383, 3)}"
226,581,3,0,19.38603333333308,4.174901373034004,34.32571309791446,3.442711867511082,4.257580713685134,9.638508279781249,10.09773928293771,11.463886911435914,23.26735124159756,19.01299772740742,16.699605492136016,21.29199700247344,18.787056178653017,8.767292883371397,2.9224309611238084,1.6699605492135845,5.844861922247588,3.849068881350017,4.257580713685146,3.966156304382309,10.854743569888411,16.699605492136016,17.849839521827025,"{'anger': (['e1', 'e2', 'b1'], 2.4292752477726207, 3)}"
227,582,3,0,19.419399999999744,2.8184365062550114,33.537243430668795,3.646004007360779,4.046419476269886,8.894471061601811,9.269325867755189,11.055945479836096,21.524909179036303,17.480984701462653,15.904034571010328,20.936956903608547,18.11852039735353,8.656626412068931,1.8118520397353564,2.214485826343207,5.435556119206069,4.501582584466573,4.501582584466562,4.227654759382503,12.079013598235704,16.50798525092212,18.630244267293595,"{'anger': (['e1', 'e2', 'b1'], 2.4292752477726207, 3)}"
228,583,3,0,19.45276666666641,2.536224235386093,34.697379409653706,3.84411391622406,4.661672856911335,9.598971914607462,10.041550644565229,11.380593798048904,22.290401871919887,17.63566970720004,16.261155139194273,20.84763479383884,18.345918618578168,8.339053917535551,2.50171617526064,2.084763479383895,5.0034323505213365,4.252099865041608,4.6053930530484894,4.378003306706162,11.674675484549738,17.51201322682462,15.376455664896246,"{'anger': (['e1', 'e2', 'b1'], 2.0742034914009047, 3)}"
229,584,3,0,19.48613333333308,1.6454775903765722,34.15357107744599,3.316566113166311,4.599249684418239,9.470434735364243,9.087447015700365,11.295817149849556,20.830082553704653,16.232158958322277,15.220667710983378,19.33436168692484,18.51162289173655,7.816018554288775,1.6454775903765722,2.8795857831590297,4.936432771129745,4.195161171254917,4.599249684418226,4.319378674738516,10.284234939853649,16.45477590376582,15.76677531062928,"{'anger': (['e1', 'e2', 'b1'], 2.0742034914009047, 3)}"
230,585,3,0,19.51949999999974,1.286795385369004,34.76729678273946,3.4581586887220315,4.73770652888376,9.446242912433966,9.475413057767469,11.356571749083257,20.806508282099816,16.07779186451779,15.227078726866552,19.73086257565808,18.44406719028908,7.935238209775548,1.5012612829305,3.216988463422524,4.93271564391452,4.795603258030221,5.165022778824779,4.932715643914506,11.581158468321036,16.728340009797066,18.26363175999421,"{'anger': (['e1', 'e2', 'b1'], 2.0742034914009047, 3)}"
231,586,3,0,19.552866666666407,0.956834850807361,35.09901868887264,3.4499171167369043,4.784174254036833,9.85121772991912,10.305426729615244,11.749994302267073,20.75692168090496,15.976563502938037,15.40474394145221,20.539658588602947,19.683839480744496,8.55819107858457,0.4279095539292257,4.279095539292285,5.134914647150737,4.36383833107584,4.784174254036818,4.493050316256884,11.125648402159923,16.26056304931066,17.875150157974204,"{'anger': (['e1', 'e2', 'b1'], 1.0550907474180695, 3)}"
232,587,3,0,19.58623333333308,3.75732418373672,34.046780344728006,3.34524877198449,4.63902537560502,9.137820252651512,9.966889610420136,11.393506765652935,23.00507604555988,18.374288812365958,16.389618220934864,20.331425134830624,19.086644004126697,8.506004393143428,3.11195282675979,1.867171696055891,5.601515088167616,5.047805346845338,5.047805346845352,4.771661001031688,11.617957219903204,16.1821546991509,17.66731871395873,"{'anger': (['e1', 'e2', 'b1'], 1.0550907474180695, 3)}"
233,588,3,0,19.61959999999974,4.026337866078563,32.3011684918149,4.046419476269886,4.848352822055798,8.46489060911225,8.894471061601868,12.245628553051782,25.121896228152817,20.27611940376428,18.11852039735353,22.1448582634321,19.72905554378497,8.857943305372856,4.026337866078563,1.2079013598235804,5.234239225902144,4.89825142122073,4.501582584466573,4.428971652686428,12.884281171451406,17.715886610745684,19.077364963100027,"{'anger': (['e1', 'e2', 'b1'], 1.0550907474180695, 3)}"
234,589,3,0,19.652966666666405,4.254741360006534,32.76427117462913,3.430282149671918,4.2759621468104365,8.551924293620882,9.370095869129004,13.0170055319782,24.91113823393192,20.638785082318908,18.295387848028128,20.848232664032054,20.42275852803141,7.871271516012115,4.042004292006197,0.6382112040009815,4.892952564007544,4.275962146810443,4.75694545382727,4.680215496007193,11.062327536017008,15.7425430320242,18.116406924530523,"{'anger': (['e1', 'e2', 'b1'], 1.0550907474180695, 3)}"
235,590,3,0,19.68633333333307,0.5956392062343031,35.38167077507811,3.395665925869436,4.652090917448593,8.85481338847709,9.275538826441656,13.582663703477708,22.002399513067825,17.350388333028462,17.057811135687757,21.059026093441677,20.637845571572853,7.3706591327045885,1.0529513046720922,4.001214957753916,4.422395479622736,4.708941388487739,5.209715337353912,4.843576001491599,12.635415656065009,17.26840139662218,18.70345045993805,"{'anger': (['e1', 'e2', 'b1'], 1.9050673107992675, 3)}"
236,591,3,0,19.719699999999737,0.0,37.84064842591868,4.120982861056398,6.371209967846397,9.567644207313844,10.011901378044342,14.224636069361798,24.679786272801504,18.345120331895256,18.203457050989755,23.66449416628666,21.389062034912968,8.419098886082764,2.047888918236339,4.323321049610058,4.778407475884819,5.479966243511917,5.985727389437031,5.916123541571665,12.742419935692809,17.748370624714994,20.60491430528189,"{'anger': (['e1', 'e2', 'b1'], 1.9050673107992675, 3)}"
237,592,3,0,19.753066666666403,0.0,34.76921440991724,3.2487717903312854,5.698722703217009,8.500462046098354,8.90168942917651,12.65321782826148,21.59883566393877,15.90035546423205,15.7154613234313,21.35690897799637,18.536185150713838,7.454770114960979,1.4103619136412815,3.828125194169132,4.634046287678444,5.300118488077362,5.253962731209354,5.0370068344331145,11.282895309130154,15.7154613234313,19.892542367953936,"{'anger': (['e1', 'e2', 'b1'], 1.9050673107992675, 3)}"
238,593,3,0,19.78643333333307,0.5786779291347365,32.79884019225841,4.112279338300847,5.74321446128063,8.602665877072644,9.039238216957534,12.744059425819028,22.97285784512248,17.229643383841847,16.981264144287053,21.686915654149743,19.640980215079,7.979148212375861,2.250528982977784,3.478090246420265,4.296464422048558,4.519619108478751,5.3820158491267005,4.910245053769756,11.048051370981938,15.958296424751694,17.765506671405543,"{'anger': (['e1', 'e2', 'b1'], 2.1084434808875416, 3)}"
239,594,3,0,19.81979999999973,0.4078677913420847,34.4159219363012,3.760355234976181,5.83977805390965,8.652182432566926,9.056134642364434,12.344319335478485,22.328666266419894,16.497231198311443,16.110777758012176,22.024860732472348,18.7619184017357,8.157355826841638,1.6314711653683105,3.670810122078734,4.894413496104988,4.560100536367966,4.505047002656074,4.486545704762875,11.012430366236174,15.49897607099905,18.06168267784533,"{'anger': (['e1', 'e2', 'b1'], 2.1084434808875416, 3)}"
240,595,3,0,19.8531666666664,0.5721670266599681,35.750138676283974,3.33627840827097,5.721670266599681,8.58250539989952,8.534691627312153,12.244909094386292,21.62912450935506,15.907889779754298,15.57645260412042,22.252075148743444,19.015409672562583,8.496246874974787,0.8091663690452151,4.450415029748683,5.664164583316506,4.921966870405696,5.321460955727548,5.057289806532609,12.542078720200864,16.992493749949546,18.42519973659977,"{'anger': (['e1', 'e2', 'b1'], 2.1084434808875416, 3)}"
241,596,3,0,19.886533333333063,0.4058841358859126,35.80072944959476,3.742066835310508,5.292081669802676,8.562135226386678,8.966273624019022,11.798598744786982,20.76366141666988,15.471587728896331,15.423597163666471,21.511859201955843,19.076554386640083,8.523566853605132,0.4058841358859695,4.870609630631492,5.276493766517461,4.13922225828051,4.937793626819157,4.667667562688536,10.958871668920906,17.047133707210293,17.353623577351026,"{'anger': (['e1', 'e2', 'b1'], 0.8582881909791877, 3)}"
242,597,3,0,19.91989999999973,0.0,35.62893578432184,4.294152094273389,5.997218179482819,9.013568036107175,9.487246733553196,12.085419480916771,22.36619037301168,16.376746767889472,16.236795930036493,22.21877337794467,18.80050055056856,8.545682068440271,1.709136413688043,3.845556930798125,4.700125137642175,4.3574599623936745,5.19813546817498,4.7001251376421465,12.391238999238368,17.518648240302525,18.55121731841428,"{'anger': (['e1', 'e2', 'b1'], 0.8582881909791877, 3)}"
243,598,3,0,19.9532666666664,1.3346746137937897,36.45396848397172,4.304196298606565,5.551347982013696,8.953269492858654,9.371278824578203,12.35565607433588,23.4006182442796,17.851740713158403,17.093477444915692,23.213364431366983,19.836875059531792,9.285345772546776,1.6882446859175957,3.376489371835192,5.4867952292322,5.968846328572434,5.503004408502291,5.275764643492494,13.50595748734078,18.57069154509358,22.14514385122529,"{'anger': (['e1', 'e2', 'b1'], 0.8582881909791877, 3)}"
244,599,3,0,19.986633333333064,1.2965164026406732,35.78479220518962,4.58387770113412,5.754546829389128,9.103354918281276,9.465457722554229,11.545549542472488,23.051026152650994,17.297686297661624,16.60477666725572,21.72970773739638,18.859746338117617,8.814881440641955,2.664964156473133,3.0749586420844253,5.12493107014069,4.120393585738531,4.5838777011341065,4.304942098918147,12.709829053948823,18.039757366895103,17.341361265955893,"{'anger': (['e1', 'e2', 'b1'], 0.8582881909791877, 3)}"
245,600,3,0,20.01999999999973,2.596887705335713,36.75530352963799,4.2905502739332375,5.566430216645576,9.402063446249324,10.281732603745,12.022337119352274,24.39461121664356,18.828343421390084,17.503954065019883,21.773211154049108,20.065508318437423,8.965439886961377,3.4154056712233967,2.1346285445146123,5.123108506835081,4.353805041100886,4.773174532246131,4.482719943480703,13.23469697599063,19.211656900631557,18.53565705170624,"{'anger': (['e1', 'e2', 'b1'], 1.9338666969915932, 3)}"
246,601,3,0,20.053366666666395,0.8530743413636515,36.378394828489405,4.711257037430384,5.561364298034551,9.393506779527527,9.847375264492838,12.859936539411429,23.981101750200324,18.42028315797893,17.914561168636624,23.033007216818504,20.047247022045752,8.744011998977413,2.3459544387500277,3.1990287801136787,4.478640292159156,5.136187682135665,5.610220559779561,5.331714633522807,12.79611512045473,18.767635510000275,21.903420901207983,"{'anger': (['e1', 'e2', 'b1'], 1.9338666969915932, 3)}"
247,602,3,0,20.08673333333306,0.935888260114891,38.23421410618272,3.374393109948977,5.505059900270083,9.708008214421948,9.708008214422003,13.082365521618664,22.84794419440913,17.34299683686544,16.74167815168707,22.18272355098537,18.83438792064794,7.533755168259177,2.092709768960873,2.929793676545245,4.603961491713932,4.268307179287117,4.67944130057442,4.394690514817853,12.556258613765308,18.415845966855784,21.077234233301628,"{'anger': (['e1', 'e2', 'b1'], 1.2554959500995848, 3)}"
248,603,3,0,20.120099999999727,0.8659631649185826,37.35956186608684,3.4908091180530203,5.213788676058737,9.133756488065805,9.564875784111871,13.48513475003074,23.049915961290143,17.836529009899234,17.319263298371794,22.51504228788332,19.48417121066825,7.57717769303764,1.948417121066825,3.247361868444699,4.546306615822573,4.415563075972458,4.840881256922081,4.546306615822601,12.556465891319547,18.185226463290363,21.37456022179643,"{'anger': (['e1', 'e2', 'b1'], 1.2554959500995848, 3)}"
249,604,3,0,20.1534666666664,0.6077483489892764,37.1174561056923,4.318863486243707,5.17479072409616,9.893426340772296,9.921387092732342,13.349728906418353,23.241905181376,18.069657474287894,17.834333621247794,23.206120856563388,19.768177025961396,8.165116597679713,1.7189719153009833,3.437943830601995,4.297429788252487,4.382535669718858,4.746666345726314,4.512301277665102,12.892289364757444,18.9086910683109,19.030385535061065,"{'anger': (['e1', 'e2', 'b1'], 1.2554959500995848, 3)}"
