,video_id,frame_seq,gap,time_seconds,m1,m3,m4,m5,m6,m7,m8,m9,m10,m11,m12,m13,m14,m15,m16,m17,e1,e2,e3,b1,b2,b3,m_0_16,m_1_15,m_2_14,m_3_13
0,3,161,1,5.372033333333337,20.936956903608202,158.41682489861645,16.55211777204737,31.8386342379351,47.398052095690176,42.19978575547775,37.01166050988038,105.85593725462373,74.0233210197603,63.31489094216613,69.18190786344803,57.44787402088423,26.432133525566314,42.10806936211657,9.22832869909962,14.453640644616371,20.936956903608202,21.581321198145424,21.206821580049564,47.3028239278342,51.67252923899741,57.57663148492346,400.00000000000006,394.2740858774777,378.171520120351,356.8891466740039
1,3,162,0,5.405400000000004,21.265392608770533,154.54030618465652,21.265392608770533,27.10816296908312,42.86176908266792,47.84713336973403,27.10816296908358,96.28316009305931,69.31669932133813,58.628306073972,61.19329446470829,55.88010422675461,31.787534699481512,37.467151850397386,4.671943140269832,15.115110159695632,21.265392608770533,15.949044456578354,18.59616583283787,51.11655435824423,49.65084670639453,53.16348152192667,399.99999999999983,394.3067724145103,378.39553800643995,356.8295494032514
2,3,163,0,5.438766666666671,16.413734010641882,159.04297505372014,16.413734010642795,27.897983337062794,44.110584735271374,43.76995736171333,33.28028207407246,93.65262326659416,65.88251016009671,57.581520034283585,63.42767872772083,57.04719370208795,27.26635842234782,33.04965519435018,4.9189453522735676,15.699764878343103,21.88497868085706,21.884978680856605,21.875948659313053,52.04967094802123,46.39209801888819,54.71244670214162,399.99999999999994,394.87834268186555,378.5057520079278,356.3036512043523
3,3,164,0,5.472133333333337,17.34582253883304,145.0103386950668,17.345822538832586,29.482229201608668,40.88449580822408,40.4735859239435,31.13670436230799,94.12317773381433,64.64406387079725,55.490594505342415,59.933733866670536,56.495976404621615,28.70203164069426,35.123503126409105,4.637729406349536,10.410567408658608,23.12776338511057,17.345822538833495,20.367091378933765,51.69608862742007,46.117840670132864,58.10778635376867,399.99999999999994,394.2334015870168,376.5371060431225,353.12467063765797
4,3,165,0,5.505500000000004,11.90718797146008,155.2507369254848,18.82691725878693,35.72156391438025,42.098266797411355,47.999409241675586,30.357491909246146,95.99881848335139,60.71498381849229,53.949288631154104,63.073065384951406,56.32940430605777,29.75144593629784,35.900078096466586,0.5950289187258022,17.057495670143908,23.814375942919707,23.814375942920165,23.80115674903891,50.77580106461528,49.982429172980574,53.912086496884015,399.99999999999994,394.06316445572475,375.8316726507746,358.45382531448524
5,3,166,0,5.538866666666671,17.86078195719012,143.38153012579417,11.907187971460385,30.357491909246203,42.09826679741149,42.09826679741149,30.357491909245734,90.0942252780104,59.83287905524021,50.76026316804655,63.51231811605521,55.86108514725038,29.75479487868779,29.93190675296546,0.5313356228334669,17.1444294301009,18.82691725878669,17.860781957190575,17.852876927212947,50.441461794346196,50.72484079319065,47.62875188584017,400.0,387.7156666840931,370.32120318884824,358.4538253144852
6,3,167,0,5.572233333333338,12.475657231036214,144.01145652653798,18.713485846554317,31.806809832974132,43.6648003086264,44.1081091391231,31.806809832973663,94.39547572090454,62.68940173182507,56.237104484665906,67.45665073253622,57.38693375851608,31.13249867227387,31.341558540245842,0.26132483496621717,12.003520752768509,18.713485846554317,18.71348584655432,21.829334547486724,45.22661810476848,41.986190151191295,49.90262892414439,400.0,387.5494194669666,375.10050533831384,356.4306405970454
7,3,168,0,5.605600000000004,14.613730936143769,144.3730115738476,19.606377466865183,32.677295778108636,39.212754933730366,39.753646070110065,33.32443376480359,98.89944307138018,66.64886752960763,59.264454630627824,74.76329764294633,69.51426156554771,39.154971820594255,26.457979146887283,7.589822436238137,18.513492110824245,26.94638841053817,20.66693648676571,19.754818210209578,64.05242672825443,53.05782413370389,52.283673244973826,400.00000000000006,393.48674769126507,373.95164012355207,360.9325289346188
8,3,169,0,5.638966666666671,6.543324256067684,150.63863690840643,19.629972768203057,32.716621280337975,39.80148760839955,45.80326979247312,35.2368795054445,92.53657905935638,60.32646887729815,55.76336778365385,64.68550662903863,59.85268142112227,29.405882611247307,29.480233768291782,3.457328802586744,16.09702550021484,20.691808118200292,26.97881705043317,26.20878285831759,53.45848191526329,44.68504538396837,52.34659404854103,400.00000000000017,380.41426372015087,374.40167234645236,354.85093562402494
9,3,170,0,5.672333333333338,6.755446134894463,142.5062923321276,20.26633840468341,34.44615166485167,40.53267680936659,47.28812294426128,36.37919078212616,96.72326896202031,62.282135969506605,57.83953107034358,72.24314970264732,63.46594459858716,33.64595289889667,27.3443697472635,7.314337586717102,12.715694573830206,20.26633840468386,20.266338404682955,20.255088701676414,50.41266521306261,43.88602552029988,47.28812294426105,399.99999999999994,393.26909598857276,373.7538717468359,360.32564342515894
10,3,171,0,5.705700000000005,13.760418323076125,144.4843923922943,20.64062748461305,27.520836646150883,41.28125496922701,41.28125496922701,30.76923076923106,90.49502258370924,63.43239424027209,55.11768703255211,61.574989279044075,62.38215205985534,34.38129083027752,27.539625354827876,6.976192605584856,13.625676466555433,20.64062748461396,13.76041832307567,17.20025449586319,48.698821108956054,47.58416774497846,48.16146413076484,399.9999999999999,386.8244254111605,373.81766273199855,352.5729602616914
11,3,172,0,5.739066666666671,14.00065629614613,154.00721925760814,21.000984444219426,28.00131259229226,42.00196888843862,49.002297036511465,28.863092368489713,91.27311220025167,63.39066747414606,56.113797689478815,54.801426800922854,57.42616857803523,27.99724562253232,34.996557028165626,0.3579193332425348,6.6413920723903175,21.000984444219426,14.00065629614613,13.99862281126616,50.665470061230735,47.324889617632834,56.002625184584744,400.0000000000002,379.63470795680945,373.3872928262347,352.5275178511127
12,3,173,0,5.772433333333338,7.2535695778821525,132.36522371775743,14.507139155764314,29.907233532374306,36.267847889410994,36.26784788941077,36.986092820824226,88.24348247850469,58.48014753210319,54.64937651507762,77.10060665351193,60.605825327315415,32.32310684123422,18.70241620066281,3.9154278905616593,17.24454411375109,22.93780103261343,16.21947465566906,18.265054574589158,47.27670910412553,39.69577425218631,43.521417467292935,399.99999999999983,393.36824075906543,371.70563256051355,357.2705178894223
13,3,174,0,5.805800000000005,15.027615135306252,135.45709229571926,15.027615135307155,30.9802222520013,45.082845405920786,37.56903783826743,33.6027689822512,92.94066675600212,61.960444504000826,52.99364559037531,58.62682838935234,54.87137319003432,26.28818639522524,34.007733193824606,3.1295459994316843,10.640456398066817,22.541422702959828,22.541422702960734,22.63704939588888,55.28864598995915,49.65546319098212,52.59665297357414,399.99999999999994,392.52004160655105,378.38568070053805,362.614204627064
14,3,175,0,5.839166666666672,7.6416071990093,115.6385003955112,15.283214398017693,31.50715363099285,38.964704222956605,38.964704222956236,38.964704222955824,92.96416388277441,61.608606849662124,57.572904556170215,81.83953277230103,71.17625852904712,38.02356844353926,15.731620642824964,15.731620642825874,21.83118903711602,22.924821597026536,15.283214398017238,19.088577349035404,49.49865574646401,42.12651552890566,45.84964319405217,399.9999999999998,392.4097367036833,369.65164109797126,363.11708111646334
15,3,246,1,8.208200000000007,33.751969471694906,177.39863054404765,16.875984735847513,22.00359205601996,45.596399900356865,50.627954207542416,45.596399900356865,118.13189315093224,96.20791535080726,79.32943581240454,82.0105499452294,92.10415609233462,41.47841276076031,31.069381421557978,7.254779418231806,27.75741690453924,22.003592056020018,16.87598473584751,16.875247777191476,44.6326646817306,44.47495208568216,64.4830471344719,400.0,407.1626417960428,409.8120157053074,392.5253924210067
16,3,266,1,8.875533333333324,8.782198959183727,130.79286187065864,13.88587578789046,22.217401260624737,27.910264911726593,31.049762188841534,39.275187729325744,83.73079473517981,61.663295524512456,56.54279093013554,51.95735824575809,49.77071063114386,12.287654132869307,31.967482664396925,9.121910571412855,0.5385027707632162,27.910264911726628,31.049762188841495,30.710976199282868,54.76409996003889,50.65189698330181,83.36152812981462,400.0000000000001,400.26021904519627,392.21147167734006,378.52194437902324
17,3,267,0,8.90889999999999,5.587714944265753,129.00241692709287,16.763144832797266,25.14471724919572,28.077920098074454,31.854876309554918,36.74745768627428,84.0017748350101,58.93648793993177,55.274954730670515,52.85646697087964,51.68892115580809,16.49575444436732,30.85656796974672,7.27214250530244,1.4844511077337756,25.14471724919572,28.491867537205035,29.68068254171044,52.58959935600615,51.12182747420201,83.86227552784386,400.00000000000006,403.1004825403898,395.3579801663521,378.65788430414636
18,3,268,0,8.942266666666656,5.616974871268545,127.5003806052114,16.850924613805326,25.2763869207081,25.43193538528798,32.02168355809848,34.16672428057852,81.63959466041877,56.44989882320964,52.27096794231625,52.71831658171732,51.479504964914554,19.339225795643074,28.04531854706238,6.469349554414407,4.026137754608953,25.2763869207081,25.892974770578288,27.167826985160445,54.1980082351206,53.09684235351824,81.44613563339283,400.00000000000006,403.2698493045896,395.43862131687007,375.8969226076885
19,3,269,0,8.975633333333322,8.662961636484102,131.98189400841935,17.325923272968467,23.28100985898606,29.448406953292373,35.718305857897896,37.65040022449734,86.62961636484204,63.59397996742081,57.86464120585799,58.99959525192571,58.11685321609525,22.041528180375963,26.833556374883415,3.5039454279387883,5.377520361129768,28.876538788280666,29.44840695329238,29.193540184960455,54.51382449842038,50.87476549356887,89.70337703550456,400.0000000000003,406.5853577252027,401.165697725364,380.75443798741566
20,3,309,1,10.310299999999955,13.62998487391969,134.45584574771377,13.629984873919915,31.415562874332846,34.2449131751631,38.09696588797263,42.14840048305644,100.27538279545492,68.91234625154345,62.169391535169325,46.01753981279694,45.10328405492692,3.618929041569345,54.68392251760747,20.875506471368226,8.971134624100614,7.619393177594708,9.637854731818843,7.733079951985019,53.42682085053593,54.550593552918144,68.48982635032621,400.00000000000006,393.2669907069246,379.27438168662724,347.93189530939105
21,3,310,0,10.343666666666625,14.333212335154858,141.39298059621314,14.774337103062408,28.88951305177763,36.54266469471227,39.578876194446906,40.06254639668105,97.8051401397996,68.92621102604727,61.819224315223664,41.206171125303854,39.35219245348321,0.249190681696291,57.52317696277896,26.14508632357797,9.838048113370633,3.583303083788683,8.012509279335974,7.595331978104014,54.48305064608394,58.50997206229658,65.38914519831556,400.0,395.30183689407033,381.1462318377785,354.728907343113
22,3,311,0,10.377033333333287,18.68136206465162,139.99041194396744,14.65486610894607,25.64601569065591,36.81989540977244,40.46707170796296,37.36272412930319,95.88863786957867,70.47299449448786,61.13768243098366,34.874670658247396,39.7257353085472,0.0,58.559280421475705,26.477029330837695,13.432149598939077,7.327433054473035,8.192319205190067,6.461291992206043,55.196147365595834,56.70446158459663,69.70696093421803,400.00000000000006,392.2230566584484,377.20270305848874,347.6672018201842
23,3,312,0,10.410399999999957,19.15828342573745,131.6774896377454,12.116762336876693,27.09390425246535,34.697127001129246,38.507673108568206,42.83922407215647,100.7951502968376,73.70338793128248,64.19787859024132,45.85717700279429,44.57734093696422,2.4186732430516713,55.56440818006513,25.86787302546486,7.776631010171286,8.567844814431224,10.837561700986509,6.475102807632084,52.01774382814597,52.560047245870464,65.58739768568928,400.00000000000017,395.0324689132362,379.87547582519534,352.22075528205096
24,3,313,0,10.44376666666662,11.849287583000285,139.64519336948544,15.799050110667286,31.844003542621103,31.84400354262155,35.76662089220604,36.41501121957382,95.5320106278633,63.688007085242184,57.81376736843913,38.907737467060315,38.12511056398694,2.224896481593305,57.008779696706824,23.020411334677192,11.661140855788517,8.831937506844605,8.831937506844175,8.36292747855191,53.6211232448336,54.18014246131452,63.6880070852431,399.9999999999993,391.58464415927,375.37292948939194,351.35130270075285
25,3,314,0,10.477133333333288,16.274927158341107,135.80059024318825,16.77581093076894,28.770278392450262,33.55162186153779,36.84393337847756,37.51185361888246,98.9965171020908,70.23720065551781,62.14655871690911,44.25483063937827,43.21326820278182,6.3303850313129715,55.237527887486976,24.152675613070414,4.617593468909718,5.754055678490643,9.097960863727309,4.895343452002635,51.29116354438338,51.70778851902219,65.60632879266507,399.9999999999996,395.33754494592284,379.2660431747517,353.8861192690058
26,3,315,0,10.510499999999952,16.6360078371213,133.67164287203212,13.15191898442878,29.408584883751917,33.27201567424212,37.661364531552074,37.66136453155116,96.46733097762132,67.06189154279308,58.81204526048532,37.897860848547,42.6047654609788,2.596076255310436,56.21596900517466,24.674855622901532,12.446608588543086,9.299811099505643,9.299811099505431,4.925266166616439,54.056615858234636,54.784487705517904,62.52350909209502,400.00000000000045,391.145234656636,374.0790493132905,348.7863126498677
27,3,316,0,10.543866666666618,17.01261461280484,128.72378744400376,9.51034068730967,30.074337896069306,34.02522922561013,34.29002099522596,38.51394438141293,94.4353365371525,64.3618937220012,55.936621791693824,34.433904563975375,35.3206145527472,3.6207324541519483,59.55735424584623,27.118547156607292,15.000177310058234,6.014867579213724,9.510340687309455,9.01488488584755,52.68535183286372,54.97601930385781,68.18323995982415,399.99999999999966,390.9663926488984,373.5276352434437,344.058837830396
28,3,317,0,10.577233333333284,13.31936354941876,139.4121663455853,14.039841933329427,27.00617517527478,35.79471399290224,35.794713992903155,40.20398891161865,94.18212286882952,67.18618160488667,60.590871951876125,38.93935723405889,37.6815928936046,1.8609778506718158,55.867838510170714,26.19486753945762,13.97658537504617,6.278808191254698,12.557616382510485,9.779759463530809,51.13197073846072,52.492409718951876,66.74464660323626,399.9999999999992,391.2307195437835,377.3819672335342,350.3777507066021
29,3,318,0,10.61059999999995,14.489520395303474,143.8773625237538,13.745965995787166,27.49193199157411,36.9411736191269,36.94117361912599,37.78404648451861,92.6649860119463,65.60409382318588,58.32178230466866,36.882825457477566,34.40659335962573,1.9418872767362245,57.018502253167526,27.19945467482512,13.619276538184977,10.245638127659728,6.4799105130538655,5.187054604974037,51.922677251798405,55.65005819909152,64.79910513053684,400.0000000000002,394.7164500933308,375.890666903855,352.54524697017956
30,3,319,0,10.643966666666616,14.142135623731086,142.67289706021842,14.907119849998544,28.674417556808578,33.333333333332895,37.71236166328223,38.00584750330458,95.33566430716714,66.6666666666667,59.65412165274324,38.65295362693041,38.59893132975776,0.6212564174838917,56.69640088254823,25.552546562596945,11.209626663295467,10.540925533894605,10.540925533894605,9.96711382832791,51.05107082802101,53.6171299437151,66.16477747093067,400.0000000000011,390.6689419728961,376.0023640587621,351.409858838492
31,3,320,0,10.677333333333282,14.627621493249558,133.08545557046457,9.751747662166448,29.658782642174412,34.47763450168899,39.00699064866495,44.95333555382241,98.60844566874847,68.95526900337912,61.71412337360857,45.55873729936161,44.76331082032402,0.34285624096446554,53.444430841545,21.737085677149025,7.227409559531452,9.751747662166448,10.902785336013874,10.340544227488863,53.0192891027491,54.55528506227006,63.57361681412428,400.00000000000045,394.4337826749948,375.1572231085522,350.31719865445626
32,3,321,0,10.710699999999948,19.9843932867376,141.31100010951027,11.171615469558821,30.390079668827696,35.32775002737734,34.972688251790395,40.27983240526142,101.03983552012772,70.65550005475514,60.76593708050973,40.872666992064524,41.10132526894313,0.7145571152459524,60.05137996526378,26.810182964025444,7.088406583239021,4.996098321684512,7.065550005475832,5.6592923527475705,55.2781384354214,57.078822365841006,70.65550005475468,399.9999999999995,394.28048174355786,374.5408004910141,348.3323318564275
33,3,322,0,10.744066666666614,15.175291135879121,128.0692280407676,15.996161381847259,30.76923076923072,35.768504228867435,35.768504228867435,36.82592902367474,98.21695193076197,67.48787880340437,59.727976625498286,37.95956208595271,35.711582022391894,0.35569304803198065,61.164976539546615,27.559097361502836,12.506167568797537,5.058430378626373,7.153700845773488,5.363851164319385,55.00437294763583,52.301105782594504,66.53326383025319,400.0000000000004,390.0243362768704,373.43414751463916,348.4447178731816
34,3,323,0,10.77743333333328,21.435005469079233,141.2301169933175,10.397504898200832,25.993762245501873,36.76073110469042,36.76073110469042,36.760731104690194,94.15341132887774,68.37891250726105,57.71434783436371,32.349443372127325,36.760731104690194,2.2056438662814344,59.5523843895985,25.73251177328325,10.293004709313209,10.397504898200962,7.352146220937902,5.88171697675034,55.87631127912937,58.81716976750499,68.37891250726173,399.9999999999999,389.7331034078218,373.51507802699746,347.0337626693299
35,3,324,0,10.810799999999944,15.971631183358017,139.3391971733394,10.647754122238842,27.14655302261685,32.38387990329184,42.92246908699949,43.90181492159626,97.15163970987369,70.0246698272186,62.13011842210199,38.53583798757791,43.62042772205018,2.631498195910808,56.06429207220526,26.537990280797203,10.302984461956385,7.529099144241744,7.529099144241744,6.06582634989627,58.16057029606691,54.770843806418725,70.0246698272186,399.99999999999966,389.5172001941903,371.98626602074955,344.8623298827915
36,3,325,0,10.844166666666611,17.288661437767274,137.65944002224225,10.934309567773287,27.33577391943242,38.65862221482716,38.27008348720467,38.658622214826025,93.58261568942777,66.51080853353113,57.984308269551775,34.05574655022133,38.687081076543336,2.2847916996520325,57.15066805481365,26.799989125649972,11.022576172646495,5.467154783886799,7.731724442965609,6.236863828780315,53.66172937831789,56.903663546743246,65.83326140706608,400.0,387.39720257755806,381.9972682441746,348.7427714557398
37,3,326,0,10.877533333333275,22.580048580673985,136.53462871987261,11.290024290337051,28.784027082682368,33.870072871010585,39.91626367729154,39.91626367729064,102.23551816792805,73.60195350836125,62.30655938979635,42.428848367912906,42.99498570714377,2.7992346217524755,59.50732476804387,28.62138770556021,10.567896998976266,5.645012145168583,7.983252735458126,6.321866954744564,52.93384121808526,55.60726754223106,74.24854238706845,399.99999999999994,394.42439511957747,376.82305980752926,348.0734812892499
38,3,327,0,10.910899999999945,17.420601154186304,140.4493766353563,11.613734102790946,29.609328407904187,34.84120230837261,41.06075069490383,42.274630246600765,100.24206739622498,70.64358663730258,61.96295423618767,44.29664204635583,45.08181147701498,2.878954579083711,55.45259104030538,23.653229098608335,10.894225850396197,8.212150138981498,8.212150138981318,6.510363195882519,54.60199082375766,52.050190174115414,69.9239388058512,400.00000000000017,393.36970654512425,376.1487498065526,351.4953754265622
39,3,342,1,11.411399999999931,4.1019708295025135,181.64831116587987,16.40788331800885,29.00531389770401,49.22364995402572,49.3942697028982,58.01062779540805,103.85360640720027,74.85394338621663,74.43771472009576,58.40018009217374,63.595925651975676,3.0828090321491572,42.57047528664384,11.603831750224344,7.100852265062713,12.305912488506598,12.305912488506541,14.478810959981388,41.08102822616735,36.23166570368551,57.57390418548226,400.0000000000002,399.24210458229624,386.6529105488305,365.9040754175785
40,3,343,0,11.444766666666595,5.996253511966613,165.84817749233224,12.719974560076219,25.79086154679295,46.83223704849364,51.05625890166386,55.768381360324426,98.98359868679647,73.19360197986245,70.65853169393961,60.520344699252064,57.123794741640836,3.139235566882917,39.883730562857295,12.402553633094954,7.462117331115223,8.479983040050918,12.719974560076377,12.659868023823151,33.553796550945776,33.9654995761108,51.056258901663405,399.99999999999966,399.66277920098014,386.67699844132903,365.2550286512924
41,3,344,0,11.478133333333265,4.331480818242426,165.1084128459096,12.994442454726286,26.347369221908558,47.84276937650575,47.646289000663074,56.97173519941513,96.85485552825752,70.51139915561032,69.95039914918107,60.175846536615836,59.88086689673037,3.204551542391073,36.34953653314733,7.870593118759643,8.004674773252987,12.99444245472625,12.994442454726286,10.793573186714866,31.53600513683608,32.87682168176957,52.15793593908729,400.0000000000001,395.32920235722264,386.10966761030346,364.25667712379436
42,3,345,0,11.511499999999929,6.348406650689514,139.80915383558286,12.696813301379086,19.045219952068543,31.74203325344763,38.0904399041372,38.09043990413706,63.48406650689517,44.43884655482663,47.61207166718313,44.92626249621375,50.379268994848445,9.563108411784697,15.829996477379666,3.0927499544495163,3.0520558761014627,19.045219952068543,19.045219952068557,19.044828666873244,50.13510452476032,44.966956574561806,57.13565985620546,399.9999999999998,393.60121234275,387.30483831650673,374.60978858376166
43,3,346,0,11.544866666666596,6.880209161537945,185.44684560374301,14.595127662315647,24.32521277052589,48.89307256021756,53.73615137406991,54.39282932204197,98.38939664811984,74.42084075352506,71.3815307445708,59.564356753747006,56.461442356156454,3.813394797038768,40.2363899687557,13.499127589517798,8.395268393481047,9.730085108210286,10.878565864408523,12.571153190238192,30.39116157640069,27.72323517847235,48.89307256021756,400.00000000000045,399.6744237131191,389.68960489815584,370.0311837170984
44,3,347,0,11.57823333333326,7.231015260621389,179.6146929081715,10.22619985129817,25.56549962824566,51.13099925649105,51.38601829113712,57.166195047503074,98.3524408155643,73.20844981409597,69.86633111500998,60.55082029967525,60.550820299675365,3.6388714122400643,37.553152974317754,9.16995595884498,4.366645694688145,16.16904166908839,15.33929977694741,12.736049942840282,37.553152974317754,32.895397566650445,61.56987634551978,399.99999999999983,394.239567523742,388.89822584496267,368.2851978129241
45,3,348,0,11.611599999999926,5.387724584403794,188.87797951743738,17.0374810923994,27.47211278973798,48.78792112998594,54.14596195411247,54.14596195411201,103.63495159951302,76.19393177594594,73.43738927763661,65.14756228826013,57.53571371437147,7.195816364384427,42.11170476201869,12.03411687491257,6.795192755232392,10.775449168807272,10.775449168807272,10.98633205097667,28.105287042049667,24.992749770945466,54.94422557947571,399.99999999999983,393.89388770966826,383.135032110337,366.7216390158846
46,3,349,0,11.644966666666592,7.849930792126361,172.8767928872115,16.652217884872606,27.753696474787635,50.264082117234466,50.26408211723447,50.26408211723356,100.52816423446735,73.00857663768882,69.80112570312258,57.34370100256547,61.693912802759996,9.29363430041576,40.931538301831324,9.689108100433486,5.734370100256456,11.101478589915093,11.101478589915093,11.073266400495413,37.96548480169838,39.54738000176917,33.304435769745176,399.9999999999998,399.80738670814605,383.1618685667839,360.84074964060517
47,3,350,0,11.678333333333258,0.0,190.6545862829382,17.839059509931953,30.320570848428563,53.84651812152937,59.76010975753027,53.846518121529144,101.78517079847694,71.60357409518348,71.59630338452484,64.24960431988939,57.58315516864627,7.07459909927843,40.849007299199,7.652811525661718,8.367073934723521,8.409413299642708,11.89270633995456,12.125454706215123,38.672207576344135,38.26405762830882,53.84651812152846,400.0000000000008,405.0509823991815,399.11504316369576,386.92440765292815
48,3,351,0,11.711699999999924,5.953593985730122,185.42363092797274,11.907187971459791,24.54729685520732,47.62875188584087,53.582345871570496,59.83287905524021,101.90911359955889,77.62536846274229,74.65243270176256,63.170064002312984,64.05594408001525,3.7820264855752157,38.263204894605224,10.800922485832416,5.894509747788561,13.312640862526207,11.907187971460019,11.857164116938975,33.322719845880556,31.891682797284375,53.912086496884434,400.0000000000006,394.0631644557248,387.7156666840942,369.8902350686127
49,3,352,0,11.74506666666659,0.0,178.65438781057344,19.377789069529975,31.24574601414208,49.403862297908425,49.403862297908425,49.40386229790864,99.75327460496948,68.51083027733539,68.26079937431291,59.20027021357646,60.75247242039586,10.594682504685807,39.3645699194542,10.594682504685807,5.974173609967465,6.127794947802878,12.255589895605755,12.201031300115119,34.04015537280634,32.48795316598694,49.403862297909335,399.99999999999994,399.4833556230529,386.82843176974444,368.1269946073623
50,3,353,0,11.778433333333256,9.1050290721199,181.3021409725865,12.876455599593154,25.75291119918608,51.50582239837156,51.90665196422022,51.906651964220444,97.42806566526187,71.98157507486934,68.18669262311914,54.45933866268933,57.94743680017564,4.331992848168511,41.12580223391092,11.30818912314112,6.2448208590481045,12.876455599593074,12.876455599592846,12.827199602368864,37.01884797525781,39.944349638956055,38.629366798778904,400.00000000000017,399.6371411162699,386.77623365749776,367.2048178310597
51,3,354,0,11.811799999999922,0.0,186.8033445871745,20.97722585091809,26.534325072266643,46.90650298201899,53.481641977437405,53.48164197743807,100.38430007112709,74.16569324833051,73.96071837082695,64.64772130419624,64.88054623086191,11.29200894328983,35.58340962541911,11.990483723287298,6.402685483308687,13.267162536133142,14.833138649666175,13.542649901059121,29.801590613218877,28.870290906555965,60.069633227476224,399.99999999999994,405.5175020198808,398.51208411805874,378.34681792168374
52,3,355,0,11.845166666666588,6.887344723738881,173.41890899163636,15.400570986754339,21.779696357757015,48.70088158525071,55.09875778990871,55.52754836416503,98.6117693555908,77.0028549337711,73.1257797524288,56.077668845158996,64.19581689623988,4.683546952546976,37.53082291307396,11.55274914961501,7.556122416775224,6.887344723738494,13.77468944747744,10.303803295602847,27.35191420287265,26.60254669046526,48.211413066171154,400.0000000000007,406.87830555241317,392.8202361370484,371.98038132583565
53,3,356,0,11.878533333333252,0.0,181.63064367460032,13.930434460023074,28.71832634470961,49.251523357785516,56.15537658124219,56.15537658124284,98.50304671557053,69.99956683570389,69.99600453779294,57.907673783788596,55.581397075113955,0.6231098326807114,41.623736823067475,8.806618968553266,11.382139610299873,13.930434460022992,13.930434460023074,10.405934205766698,40.46059846873004,35.22647587421261,56.1553765812431,399.9999999999996,391.60381459404675,391.6038145940486,370.20637386197035
54,3,409,1,13.646966666666543,3.364732122126671,124.90364232302497,15.234472626259475,16.90756966288136,33.689354118630305,33.68935411863053,59.26610544148571,88.06346713458638,71.15831717342796,72.80721318528288,93.34074742162613,94.62792419465075,34.73334149431207,5.945530808732201,24.231613536620102,19.49153399151396,13.873145941436597,13.458928488506405,12.565297070001122,47.71748179997985,37.40985192710906,50.47098183189911,399.99999999999994,392.3521488901556,381.9304452742921,361.80650188749604
55,3,410,0,13.68033333333321,0.0,121.30972501294397,15.433696358844845,15.43369635884496,32.42778693168652,32.56187897276098,60.04113816047249,90.90843070995508,75.47477419362575,75.46593473041617,94.55094911204662,97.89134694001996,36.18764313637928,5.322783454854971,22.253709517511766,20.78643196690666,14.054567378526098,13.741043164463116,12.804858340564977,45.64169742520755,38.867245755392446,51.13099925649149,400.00000000000006,399.05480191448584,392.00432763310044,371.80202601716985
56,3,411,0,13.713699999999877,3.799336978565825,122.52493597535333,13.698704288985116,16.99115150700308,34.15179186100017,34.02475437723331,60.07279225384921,87.0703265616997,70.17983225862581,71.93581100974961,90.84870850679931,96.10924953246877,33.462885968841874,6.408674979684633,24.820568569527723,21.4805425214837,12.94007546846924,13.592921205602416,13.610606145779684,44.19271964818347,35.13289899286377,51.00176524494746,400.00000000000006,394.3265208263011,384.01506018114964,367.4019757171767
57,3,412,0,13.747066666666544,1.6467041650632281,125.32273395164495,11.526929155442977,16.549172043667387,31.33068348791135,32.97522520775131,60.39162646206277,89.8925532486718,73.36616860218894,72.36091183103099,90.08559057919365,94.36519108176822,32.16833044435191,2.496433626501812,21.9686159132159,20.8987157875722,11.988187276796364,13.27615341393672,13.19543488293806,46.647645478062316,43.366618426088394,52.694533282024125,400.00000000000006,392.33396294456827,385.3604407114417,368.99403368966256
58,3,413,0,13.780433333333209,0.0,134.21799115206508,15.763103645427677,15.763103645427677,38.33590094762173,38.335900947621504,58.100169629664514,89.61026092853098,73.85349586039311,73.7721292114312,90.85359537112492,96.62993658454798,35.730796363031004,4.208477169779599,23.517960654650892,19.887117606213565,14.354539387603571,13.925948729924475,12.996767730201839,44.807903984124266,40.021792693002396,57.4445385109383,400.0000000000002,393.9622344689854,384.89726364870273,365.5561541605161
59,3,414,0,13.813799999999874,0.0,131.69568297475686,13.927251377777772,15.642842126704377,38.16090337154988,39.88157862605833,59.641267396152365,89.17792085786905,73.55422740493329,73.35929715789064,92.66269884164308,94.44651153849168,34.11541782722588,4.555093136595133,20.227161830334694,20.16345423401856,13.155965709961325,13.927251377777887,12.980422749388026,42.04701356856958,36.727429276182306,51.852670901725425,399.99999999999983,395.89440467845236,386.96711938553153,369.7779560762046
60,3,415,0,13.84716666666654,13.562975295040633,132.62967174769824,15.352245614454203,13.668525332802705,40.82996244626338,42.418191683103636,55.19731039432418,97.58334515483575,83.91662828665153,77.04428592442548,91.10220602818436,92.71558630023003,36.96791996680861,5.550028135837465,11.454999931524867,23.039070284813533,12.911567810933132,13.668525332802762,12.815617294283584,42.69004199833091,36.55919696455709,49.19500731066446,399.99999999999983,399.02154607222775,395.07986137417254,383.21406055074067
61,3,416,0,13.880533333333206,16.882446859176056,127.02288394873479,15.287705838397667,18.875149401822576,38.976155194027854,40.65831611524078,52.007801755438855,102.6919151747465,83.81926595144472,75.2693124747874,88.95172444966704,91.71174187696874,38.74722140188749,12.152634873700663,8.376331959601885,23.085727163244997,12.290606833473925,13.61106380006305,11.842400356678468,43.48632109295204,38.265823013404656,48.95909589161032,400.0000000000002,397.2544138813334,390.0174089438358,371.5097415118377
62,3,417,0,13.913899999999872,13.385950862815587,124.70119003257773,15.034862973533587,19.992934780046927,38.331529843120805,39.84774869984449,52.76588602303447,100.99349696173071,81.08429403040418,74.02324373478416,87.98409322622206,92.49990331229071,37.93916501887338,10.462686748708506,12.815996230180986,22.78045980037973,12.087332890637569,13.385950862815642,12.47678044906786,41.99915389907119,40.112266116629485,56.475388559358514,400.0000000000001,394.00059742424514,383.5920772852328,363.67135289202986
63,3,418,0,13.947266666666538,15.061838643926164,127.58460814840252,15.154527756581414,20.359463942371494,41.972110157675885,41.87189805251349,52.842464029994325,103.19093262409119,82.83588632867166,75.24624970806872,89.81888383034311,91.84344660275758,38.23471152486775,12.221188818897417,9.827565124428247,22.69197440747803,12.183537829154902,11.833698046953097,11.74140962022625,42.104578907555776,36.84282461883288,48.56143671078113,400.0000000000003,393.7937520009299,386.6197918685757,364.89261176503885
64,3,419,0,13.980633333333204,19.6985532135707,135.96189764259515,14.706484549490156,23.45726997246659,39.39710642714186,41.057485621190224,57.76199156207974,115.52398312415947,92.06679424701476,82.09428012817364,96.86438073700833,100.24802058491889,40.87026798112777,16.81566469870802,8.643661793299202,26.054026828912583,12.610706463288697,14.378417602580473,14.375342626578345,48.25275492202405,45.68939140087963,51.750012664292136,399.9999999999998,395.3008941789456,385.813430018997,365.758318021706
65,3,420,0,14.01399999999987,20.999742483185184,132.95135588267004,15.791991230286001,19.49777141023016,41.99948496637014,43.63320701653384,53.72334854622156,109.81244562301974,90.31488946071866,79.57886631247425,91.86397463873504,94.95746001906105,40.121251267133516,16.104935713115992,7.2007142805562125,23.932707841035608,12.696028912436127,14.060042915372263,13.100283527833255,44.60471487578167,39.47329149152472,52.3470682318697,399.9999999999998,393.2560806878951,383.80807105191053,366.23022737696243
66,3,421,0,14.047366666666536,18.599622199011215,140.86161947810993,14.704292441876072,22.18800784900907,43.92395621200264,43.81021250045135,55.47001962252298,110.94003924504585,88.75203139603678,79.3199340799348,93.30537272505717,96.78877330679268,39.685885199057566,15.67530261780962,10.522772590659201,24.37343680851211,16.815001717046805,16.5156008902212,16.421745599610063,53.246266035099325,47.04664238070109,58.391466924229405,399.9999999999999,395.3156059080243,385.5605849370042,372.5107262405219
67,3,422,0,14.0807333333332,14.637948160200867,141.908558662884,14.971936718237805,18.515702583082536,41.79857357900861,43.612545248533756,54.95045126546821,102.97909169700631,84.4797221484067,77.06765972736184,91.01353449314217,96.6399016329292,38.899178379251566,8.992792747544627,13.50223728258743,23.627610428401,11.48295127812672,14.6379481602011,13.637938159799432,48.935824028426396,41.096488737183336,56.313310947260064,399.99999999999994,391.57537339499055,381.90093204751093,365.10097310702093
68,3,423,0,14.114099999999867,16.581203813248653,136.98027302024457,14.499842105944545,21.879502990559505,41.40421256560916,43.20106978254362,53.260641306163606,106.17150802242702,84.29884479095416,75.80317016782942,88.50057984728869,95.44733216060877,38.91748232071234,13.930066480920686,12.216882451771085,23.69730469588933,11.374611975726914,12.717202797704358,12.713079045579661,42.18193359576861,37.69004864129124,46.795159197849365,400.00000000000006,393.4037446277637,381.888939683857,367.10668057579886
69,3,424,0,14.147466666666531,18.065230853368234,129.62372590567156,14.492373131094155,21.645460512106087,37.91952027082782,39.54626840742649,52.40736106916941,106.60289845536442,84.96193859342115,75.91773924826987,84.0557641603458,92.97414762563449,36.119453034419166,18.059726517209583,7.803585532127613,21.181160730060583,9.680144221871442,10.934116349173355,9.921701605133762,53.956219964996535,47.93631112592658,44.97487815620504,400.0,389.93330650357524,378.2097188508584,359.799025249641
70,3,425,0,14.1808333333332,9.13420024520676,143.5887517983232,16.221491392359116,21.57087962912795,39.45070090435887,41.20137314236839,54.21651413669433,101.0970708262263,79.54947348946364,74.98039244954532,87.22313283450023,94.68946573426399,36.74867686143989,10.135802607761548,15.45428631718221,20.05682029648858,13.041327133291093,10.896442119445027,10.882435897737878,51.15972214331259,46.45490963113275,44.784101241705024,399.99999999999983,391.84629877186705,382.2705405144456,369.2991595358087
71,3,426,0,14.214199999999863,5.595393778327588,151.36318724861468,16.88948188743178,24.53197155522389,42.938546155213174,42.9385461552134,56.4491150266679,103.40971292076782,78.88865853939426,76.11066385369361,88.70633157564441,97.34546540999838,36.58215441550749,10.380640106687338,18.199003613294963,18.89350158292632,9.510340687309515,9.510340687309384,9.480949555119196,47.86774642201743,42.522216595157715,50.66844566229501,399.99999999999994,392.9588566796854,382.901953718799,365.684657202465
72,3,427,0,14.24756666666653,2.58508747387249,148.3443837031105,16.552636259836877,22.011226691145378,40.25604591283514,40.25604591283492,55.32328785771969,95.90988078025788,73.93530948413047,72.85154916762917,84.08252831175241,90.05447490356778,31.77116915195859,8.792606487257444,17.078940685589373,14.805881429189185,11.118881647004178,11.118881647004164,11.09666200624497,47.30029670818419,41.39034264154344,49.489405040222834,399.9999999999998,391.6940714235905,382.19536969468805,367.4145094298597
73,3,428,0,14.280933333333197,4.161432045355232,149.1744244785983,16.74944088688865,26.121067296791747,40.98535246654188,42.80412671093779,56.601595239006464,103.18337679856133,77.11572617714818,75.08449698034394,87.90639768394135,93.12244695315076,34.042705230472734,12.624968231188404,17.33005757198555,17.05328761076214,11.770307274871026,11.166293924592344,10.187263572721122,45.73091359290527,41.004534255091016,52.24213459358327,400.0000000000001,397.14105152511837,387.2592082130917,372.2097974864155
74,3,429,0,14.314299999999864,9.441616949995268,146.5733109468961,16.767434911958564,24.142606932696943,40.77843668286648,42.58802879082925,56.041201758335646,106.3371530013387,82.22675626751796,77.48365001387424,88.97917513888342,94.82220448419207,35.88382152281895,14.417039797663392,13.464371969624153,18.672289429573084,11.263168076874765,13.093166937114527,12.06712582183286,49.85628300073063,45.66454455735709,55.67290947680165,400.00000000000017,393.5318986409262,385.58876463135493,370.4047438695423
75,3,430,0,14.347666666666528,4.221909239193927,156.89378202698998,17.407377734968055,24.617749678143202,41.58098374891122,43.46721601555763,57.144130308504,103.06993986560337,78.53205140515018,76.37794240180858,88.76269421268955,97.10409517528808,35.817084285966985,10.02878360007071,18.561209012194468,18.30650974616094,13.7455406155711,11.32857126440679,11.365954746746866,54.25094366514452,46.9601771749343,53.16924388370673,399.99999999999994,397.14681359816865,389.2407992540481,375.77364013094774
76,3,431,0,14.381033333333194,2.5840354025610357,150.3744318152556,16.545899716523778,22.002268626723005,40.363923330769126,40.23966262544548,55.57178258596109,92.52145885623361,70.6014085192433,71.14443179360558,84.40864789071861,85.55102056893895,29.553604286549785,7.340802210044899,16.52209373500034,14.787379668073186,11.556157632785427,10.963133735862545,10.916005591882367,49.96822714733776,42.77551028446936,45.71625307271772,400.0000000000002,391.8542932813268,382.2364003084014,369.2052204173271
77,3,432,0,14.41439999999986,1.7937941173233127,149.75763896159168,16.243496590889556,21.60014151863219,39.626207232689595,41.29624181124153,54.2900613296344,92.34120390520496,70.78103383768293,70.58746480919058,84.17249476625511,82.665913396159,29.161636656790165,8.853745311934063,16.458885515775023,14.384756369272964,11.344950128307156,10.911223643924734,10.886598256515754,47.694651319067134,42.6795927857338,52.14359259166934,399.99999999999983,391.85267236888194,386.0034880806874,374.9716262099628
78,3,433,0,14.447766666666526,1.8880952107345494,160.88742801586739,17.09742931067316,22.735677053823576,41.709386474768635,43.59006284369764,56.92536608614567,96.9569522772517,74.23840548757944,74.11318375915607,84.49368150631472,94.41438649239535,32.558736810916,7.491917342269289,19.825181992358694,16.222570476148462,9.627434323055997,9.440476053672155,8.42232151762687,51.24796021708221,44.96232270681742,51.118238268519875,400.0,397.2590013320009,391.1274791671793,375.7499222882676
79,3,434,0,14.481133333333192,2.59232479509279,149.03049561062895,18.421928945804005,22.072850260802557,38.53767861922681,40.368748457052135,56.94270220466674,99.40813549958008,77.33648285573092,76.31225820712825,85.14389007419982,88.97127167128531,30.179006229425,12.331536963871372,13.60050840247743,12.945555401906631,16.598977726756445,14.778525126199497,14.777377075378013,54.156426234695346,51.06586676325196,55.47817329553735,400.0000000000001,395.1956426266754,383.4625861256989,366.6513296448626
80,3,435,0,14.514499999999858,5.898062915016881,155.35546980560932,15.037168948034452,22.690301078050375,43.05989885924289,42.93854615521315,62.558404246100345,106.09957819886696,83.41120566146695,80.25959431396404,92.11373405902498,94.34751369236835,30.87903584933224,12.544776926384316,13.785765611575016,17.35765478373264,10.044039219036593,7.690133188322921,7.607800200516863,50.00644841020642,48.20431701519021,57.93927513722056,400.0,391.2554621099427,381.0395148592318,365.64184673222223
81,3,436,0,14.547866666666524,4.067217122668676,148.23876586540945,18.27986743614897,20.336085613343634,40.18114109875366,41.874563198086356,58.46049870123631,100.84730263907473,80.54733055299218,78.6402927720062,92.26098047287496,91.62084371408741,33.485249025149756,8.885707866027474,15.134661939905982,16.69944068360894,12.861669846069711,14.664559884227142,12.853539680417043,49.44294394063979,46.10000753363806,51.05937139618639,399.99999999999983,395.64637212700256,391.4894554313602,380.26196296836264
82,3,437,0,14.58123333333319,14.771966381432366,140.13917785428555,14.442438689460912,19.786262641795673,39.45070090435854,41.24029745255391,56.24997214421919,105.1425407284717,85.40505409601009,77.86473922988182,90.83170469581194,93.22366919923604,35.90044969612711,12.925001176396336,8.707590078254043,21.23393050407992,10.89644211944511,8.956820248340955,9.001340104990277,49.07723660972613,46.66428996153519,54.00895767393851,400.00000000000017,393.3543407472163,385.55964190369,369.0601238960129
83,3,438,0,14.614599999999855,12.167444626403986,134.92154500395094,17.29318801285484,20.720411562904726,38.01231217999355,39.61432963724155,55.731678148912735,105.86376080302978,85.17211238482771,79.04298915509924,93.05843442901505,93.84165048843977,37.77986939277628,12.387180308269762,12.078016074286325,21.86821681709523,17.54813819674725,17.207365210084074,17.10708761375031,43.303603706613615,41.53106209844202,48.30337596575322,400.0000000000001,391.83328057017457,380.59797910163053,364.8326656930999
84,3,439,0,14.64796666666652,15.930061258670506,134.11375505151415,14.182970448455578,17.940196241591828,39.06015652725534,40.49938743945782,56.73188179382253,104.74146389890448,86.84369317321976,78.8725581467753,91.92233264328024,96.1059841464753,37.28813493617008,10.695129612014284,9.30057911094923,24.479724949465094,11.126037396520806,12.314266826825335,12.23986247473249,41.911606212778054,37.180861820703626,38.74194221130319,400.00000000000006,389.5583037714527,378.37116128448014,362.4297075770317
85,3,440,0,14.681333333333187,8.740810629690195,135.59638606965134,15.522867967139756,17.481621259380162,36.039285479733906,37.712707970730925,56.98311368049675,98.66787052990854,81.22191223193452,76.83869407698467,88.44064087046513,94.84604586605383,34.67501103004156,6.939188745221145,12.130497369096815,19.01735437415789,10.841641265481355,10.427156680020099,9.466811794951013,46.774109355042356,45.915868816417856,46.56860390141904,400.00000000000006,393.39624002262957,385.8847634133002,371.9883874921706
86,3,441,0,14.714699999999851,0.0,138.70481026353733,14.287322343159156,14.287322343159238,34.69513431615092,34.695134316151155,59.3144069707895,87.73146816602703,73.50766701980267,73.45817782148356,84.2350404476831,93.62064970605161,29.61764381132798,1.3216906994395003,16.925132317114844,15.19141658181752,11.622582663390856,10.538947688763502,10.429049284241842,44.37028048482961,44.03852006634685,41.90581774617473,399.99999999999994,395.410822530326,393.2984582963826,377.9593672632863
87,3,442,0,14.74806666666652,0.0,144.565141343956,14.16216746989232,17.913882323841555,38.804577420968336,38.685117176219535,60.36677794600823,92.41789880325199,74.52625530142946,74.4994909281096,87.44057498724374,91.76771844894961,29.26621621011509,2.748593457610241,16.920240459234265,16.17383342854373,7.855757074523966,8.956941161920703,8.054135324410481,44.58269021151432,41.5869755072564,40.74404897472459,399.99999999999994,393.7294160529493,388.2445172568804,375.9494822841318
88,3,443,0,14.781433333333185,1.7407435912406235,139.65060536877172,14.35453938760353,19.462105007054934,36.59703822301351,36.72102628533197,56.13729402512089,89.61026092853098,70.17161753140097,70.27097434643667,81.57814988293148,87.42650495041516,28.36665651345254,5.0906302320980785,16.157681701041156,13.628374856162168,12.672804633292005,14.03432350628008,13.068085365207821,43.70258029442749,39.294969632254606,45.55961974769825,399.9999999999998,397.1337785421486,395.1526294299887,377.9979716522773
89,3,444,0,14.81479999999985,2.5321274134637073,140.39042430896976,14.76471313952457,20.018224880738586,37.770311164430645,39.55309462071457,59.51846145526857,95.71977507872052,75.73135502156823,74.95473072253276,86.73740727062568,90.66848859429444,29.187222085948747,7.016768814290458,15.069145074063272,15.512976836413031,14.764713139524543,12.66063706731741,11.772109125180009,47.976100025419214,44.86927768897124,41.529977426258654,400.00000000000017,391.8052969666573,380.2956970138425,367.26323769209927
90,3,445,0,14.848166666666517,1.7098076948507852,142.28435717637697,15.482967189025139,19.116231170693432,37.770886519184266,39.473975912577934,55.13964134364626,91.40677352327128,72.31900421176226,71.46942163201913,78.10786522948695,84.2492022861145,26.041133269629313,10.216575052889084,12.526049190541471,11.593974426466502,9.207596225278548,10.400354180254151,9.538231752367778,46.61409459001857,41.04235877810356,46.291286923361795,400.0,393.8834373911281,389.9711158821438,371.03220941078
91,3,446,0,14.881533333333184,0.0,140.25622165689205,15.776405151290234,19.478527870830604,35.23406722341566,36.75201288273079,60.15050145982474,95.3771840599258,75.90130249907125,75.84712759138574,83.02054982429615,84.64208688592703,23.759276482506266,11.463515319808039,9.917148850438252,10.808457301533394,16.062405568594322,15.77640515129023,15.77508571878036,42.514339251634624,38.76654829462018,42.710864365577564,400.00000000000006,391.24988268346783,385.28114527612115,365.86462433473093
92,3,447,0,14.914899999999848,2.5548545944888033,146.87636639919046,14.89723423878826,18.42331848356769,36.53531399607026,38.10931965770416,65.43620550834956,97.11808528037541,78.70445106238991,79.42871213767057,84.41487578507929,89.57599254292359,21.56297086116274,10.016065572426555,10.54092490373273,9.97232729481766,16.655614217333866,14.56491211668833,14.564846443746774,45.92519148929193,42.46986755819273,49.30935554861884,400.00000000000006,396.69002769468784,392.2887508570118,373.9568868026761
93,3,448,0,14.948266666666514,1.7347091177348728,143.29999335237358,15.993227831427117,22.816536111016628,36.59372892727265,36.59372892727265,61.9172094921585,99.00007883990075,76.20883377721803,76.83951294520364,84.11563698150042,85.1680944220775,22.870709766384948,14.147456749294633,10.888886596739098,7.933909936657528,10.971263779806105,10.551823622323798,9.573314796017712,45.09375341549162,41.470871071966826,41.95701607650408,399.99999999999983,393.285758920941,383.76298246025414,369.5581897283032
94,3,449,0,14.98163333333318,3.903972116369042,142.28893886142023,14.075971643550641,17.804852269425364,35.09234477003979,36.829999285901586,63.7197139292643,99.31754170489171,81.51733099426794,79.63124940005605,85.83113036665202,90.525869328211,24.473500327386773,11.084800325903302,10.671837176507097,11.106535228503276,7.807944232738227,8.902426134712721,7.900637095031129,48.034134745581355,41.774482796835855,43.960875589405035,399.99999999999994,394.7029722127462,386.61940792478487,368.49030099064487
95,3,450,0,15.014999999999846,5.410100279674066,137.93103448275835,17.19356765959014,19.127592973283793,37.79333578507089,37.79333578507065,58.7936285048546,100.41530881766232,81.29564552396367,78.62615757503352,86.5594661815054,87.18784706122597,28.088625323508495,13.510188913991783,9.488551283780225,11.656465318816231,12.454986177892154,14.107815502255287,13.05461277619429,45.7461280436558,44.48936628421478,44.77654715333504,400.00000000000017,394.9743741593478,389.0949236360944,371.34732849344545
96,3,451,0,15.048366666666512,14.580236481577206,142.21409113295917,16.673138299022025,20.619568174853445,41.75144340069506,43.5533822051574,60.36017428564931,112.09508482253796,91.57288568984414,84.28557674775413,94.19660018116008,98.10517280278509,35.79135786373649,15.913474245187217,9.436411043637236,19.375352852911988,9.0422788112015,11.000406948257375,9.07347215734353,42.93846208613644,41.542543292699065,40.800621713228104,399.9999999999999,394.6330599859186,384.3510993198046,365.52734056883287
97,3,452,0,15.081733333333178,14.43638307233124,130.72700872164674,14.114341451642122,19.573069932039235,38.87115103171505,40.41732306611911,58.431432921184346,106.48901337842005,86.91853607057617,79.723000522407,92.2655338194669,93.48600621674814,34.445653998268085,13.588652494729331,8.728557055556166,20.791619053684144,11.072200382066772,12.379096357400392,11.387443349633031,46.432436471565836,45.60425877341078,46.05290054384319,399.9999999999999,395.023152324673,388.9676758904966,371.17890087960774
98,3,453,0,15.115099999999844,22.01195077120497,126.6260987470983,15.154527756581459,17.066802034659176,37.15856559851728,38.63661637504612,52.55014742775333,106.75281262046745,89.70224126488056,78.67848670334467,88.67304241412364,88.11298070847636,35.869406511684815,18.31401777466715,2.723936477466509,21.47072920649748,10.584381303277407,11.833698046952959,10.06583629149759,47.2081103160171,44.835485272093024,50.65043949883909,400.00000000000006,394.0816896257751,388.4914936862497,371.5404298264982
99,3,454,0,15.14846666666651,20.72041156290481,123.37812850054875,15.581931918989925,22.632755294675373,32.87462507432171,36.298976676426726,56.365613360341975,115.13514797956238,92.50459321015282,82.1539534866771,90.61699509094024,91.95213142545515,35.036561552509625,23.83864390819167,1.1197917644318522,18.584236398165785,11.543051497023784,12.16744462640386,12.166968209691277,45.653048857603096,42.07832899422459,49.27439520968621,400.0000000000001,395.26407847126825,387.54791447418125,366.5532307605467
100,3,455,0,15.181833333333175,16.66861456864365,121.84368724266479,14.800955775504022,19.88445501333042,34.47964933212717,37.62883473534407,51.32409406400735,102.6481881280146,82.76407111597858,74.43488991363131,85.98189427663442,89.18418003945453,36.26301776691969,15.057001624204986,7.223397038283338,20.209865359817968,11.899282346174624,13.177696869094799,13.174224490038682,44.98846415323595,41.95307276241948,50.00584370593114,400.00000000000006,392.00900961155253,381.26083767980316,359.60312811655353
101,3,456,0,15.21519999999984,21.002375318489605,128.913660401697,15.633077600623555,21.00237531848972,38.13708269157235,39.744358564482084,55.48654946558443,113.0617180570338,92.08283737065837,81.54283194668267,92.00045200559975,93.08509753030148,37.123527958660475,20.495707414883327,4.666022257207715,20.26035980103302,10.91861501239235,13.918557752398929,13.061792568696319,49.873229126381034,46.537432512675764,54.209576560741155,400.00000000000006,391.84367401872083,382.2957799055356,364.4675559761296
102,3,457,0,15.248566666666507,17.35884513898034,126.66905799232033,15.924639320883632,18.033224561584444,38.3516101031149,39.87711643472362,52.53285551053523,103.66496278457596,85.75680723713286,77.07927561111933,86.47012898609728,93.10208758424562,37.260996187836554,13.810390584784159,6.584208496241558,21.73690750129083,8.63634824619068,12.574712854872534,11.486552291992894,43.664815410208746,42.55064636571973,47.429201686820825,400.0,398.35571717484004,387.1550756025855,367.9124898889694
103,3,458,0,15.281933333333171,15.483815950600764,130.35685588034548,15.764512204333064,17.437641463636577,36.070410073347276,37.65667269120651,52.31292439091008,100.94213018687115,83.50553559824667,75.73550198699104,83.05514862313021,93.10505532528953,35.81208825896283,12.812037508249546,9.221267460332115,20.535380185278882,9.970352953443003,12.448270273013868,11.37785420508726,46.265691002012375,40.69893506973807,50.637338479052175,399.9999999999999,393.057953095508,385.1076112355634,365.93488496400994
104,3,459,0,15.31529999999984,10.275475367129747,132.4123908953591,14.122290097369724,17.464949802812676,36.12689838884267,37.71564518425969,53.776078558378174,95.4446078198202,77.99289625744832,72.89928585569703,81.41903010358465,88.08620097078915,30.98612143227433,10.670613342409752,10.869477151635465,15.987603610133078,8.562896139275008,12.109763853354812,11.141606574786692,43.28951131359128,40.78801392385526,50.71663943365836,399.99999999999994,394.9677034108838,388.99683066758547,369.9210774992035
105,3,460,0,15.348666666666505,6.909078596952527,133.5482179490587,15.641091911266788,19.311461755843425,36.43679316741186,38.156633699731216,54.237367146670195,95.99952761760127,76.70322020622994,73.28141811193723,83.36907635032674,90.66387053098026,32.78488927476599,8.98301797674776,14.527061554044394,17.8201400698822,11.586877053505924,12.21364081913995,11.359036652732016,42.26812170961563,40.392317491733365,49.46147553163922,399.99999999999994,394.78598436013664,388.7316186596188,367.9449250904682
106,3,461,0,15.38203333333317,2.4015254531480124,133.3333333333334,14.00317939155258,18.98572572703918,37.513026784261605,37.51302678426138,54.99965182945,89.34191127869873,70.36510559267303,69.64093335158361,85.15030708261065,88.4111208653984,31.7878073164851,2.553278716711361,18.77531457951102,16.95007919166119,9.144736479566188,10.32935154253047,10.207987801148647,43.2724344759896,40.63712270813909,50.288883405565755,399.99999999999994,393.5938305555399,386.01486953090756,370.255727052719
107,3,462,0,15.415399999999837,2.461247206912643,136.6491010223721,17.74830601223218,22.89092223722758,36.71303124929354,38.445910400231114,54.398574631252735,96.49219149446078,73.61145613426815,72.84835132547789,84.62470346255702,88.99499331273603,32.420623422365225,9.662517302784977,15.774810799538955,15.336763098938263,11.007032128176327,12.306236034563211,11.445269572671577,46.14781590049165,41.27835541474434,48.13610613330944,399.9999999999999,391.55109175413776,383.654679879289,363.9401561973456
108,3,463,0,15.448766666666502,1.8003959055792427,130.23969904086817,16.303278326147137,21.679637576304778,36.187509839696695,36.18750983969669,58.61664389775893,98.28248949911988,76.65966527912467,75.76125578424069,87.16994613551651,94.1284381228196,32.06839911978011,7.63276446669272,16.694986589692235,14.860965445751845,10.498021917109867,10.951380754160763,10.950185065290839,46.228121186966405,41.31941753700846,52.70580216845955,399.99999999999983,394.6646874940678,384.70378433476486,367.72177347603093
109,3,464,0,15.482133333333168,3.524365869093881,131.16134861016883,16.246523906937913,21.437880651585722,35.419438627716445,37.173289727836945,55.33366654290166,96.47046293213587,75.03258228055014,73.29130952686262,84.33226295500094,91.07712555506953,32.37104438950223,8.76402528926144,16.9265978625931,15.100759260663608,10.275203921260323,12.460515027093289,11.588705008716943,44.16381371255255,40.94174559150076,45.74892982683643,399.9999999999999,391.3673017402215,383.43173219714254,366.87700728782085
110,3,465,0,15.515499999999834,3.5286144062539395,138.1690239151524,15.976481226304793,21.463723494231864,38.97482000752269,38.854835669421405,56.897197675157265,97.81965770812893,76.37636771756485,74.590327938114,84.20275288601499,92.36286580374394,31.40232954447424,9.513166212025908,16.304553403477712,15.792587292121993,11.158458508245241,12.844350317213507,11.733427409231354,44.206706472357496,40.685633420789486,48.1562148711798,400.00000000000017,391.05979600475814,380.96372946009024,365.93109466069035
111,3,466,0,15.5488666666665,3.8894021077496794,132.47968163624668,15.750878057892045,21.1606352260681,36.568654200145644,38.266657020940244,54.92188345186283,95.52422252747661,74.36797203842892,72.46548236199476,80.75906865815568,92.01309520701477,31.509097542501422,9.088116216922003,16.402145076528313,14.617173747695688,9.366920667084354,8.869201403169853,8.859552815059146,42.969919550188706,39.35644100645436,47.25263417367601,400.00000000000006,391.4988005006335,381.8196552681397,363.8701450929685
112,3,467,0,15.582233333333166,2.506027588602342,136.85985450342545,17.80867206950673,21.557664445339835,35.617344139013,38.984640238308465,57.39295607608595,98.75783841711241,77.20029395552508,76.1868741878717,83.24809667357681,93.17628167227508,30.8198470146757,10.538741830168988,15.423196481934951,13.618071936717115,9.542668755915459,11.207296083209465,10.03436879547587,42.26115111745355,40.13747518190314,50.4016913820478,400.0000000000002,392.7713596664251,385.8509445970074,370.7777703197701
113,3,468,0,15.615599999999832,2.4598738793497006,132.92426470263524,17.480688340751897,21.160635226068095,36.898108190245516,36.692546099491274,54.61806381260072,95.22285851730636,74.06222329123827,73.06410079544469,83.15354239195551,89.24856644162776,31.585285343122337,9.011928416300975,14.758665377420357,14.693361548316716,11.66820632324886,11.000890420604057,10.7098279729953,44.68958704991746,41.598539139012246,51.18665963411653,399.99999999999983,393.7719514473007,383.9452599462605,369.34168719494374
114,3,469,0,15.648966666666498,2.4719159637015835,134.99694124498953,15.827985020073939,21.264225152555007,36.87217105462415,36.87217105462415,56.90777909696603,95.99185249621917,74.73203354575783,73.69239388859239,80.68116357630595,91.09685894100642,29.007441754023148,10.06490769697723,15.623543047050589,13.680719041199836,9.412775558156515,11.054744259006725,9.9030056964898,44.95478880204871,40.79930412286774,46.27833370300329,399.99999999999983,391.3480957668501,383.46579862225485,365.463391529198
115,3,470,0,15.682333333333164,2.4921030054186644,139.9244268195037,16.246523906937945,19.701804152184778,40.68315221726119,38.808053506740684,55.080550603890664,92.99585482719773,73.29494827079438,72.28172651297393,82.02181731968676,90.19293018145856,31.053335761752578,6.881754748602475,17.631583836713048,14.95966099978375,13.420385400534663,12.460515027093216,11.588688583425323,46.1994099827175,42.09831911673314,43.593998224786496,400.0000000000001,389.7931124946638,383.4317321971425,368.71756718036113
116,3,471,0,15.71569999999983,2.510985067086704,140.67120136469163,16.078149342895173,16.36961988877974,39.22284061284123,39.1020927410495,54.00077571941732,88.45655484389798,72.10069647985945,71.07261882647151,81.29045177092235,92.02509818358612,32.66153449630383,1.7603958760987553,19.01981232494495,16.877189821314005,11.229466600985704,10.800155143883622,10.79924809619024,40.73136146349674,38.79331095769976,41.79112039627264,399.9999999999999,393.3360127461245,388.53386470907753,371.6978889249882
117,3,472,0,15.749066666666495,3.469418235469549,139.16649163576434,17.433610872058825,19.394637542218206,36.59372892727262,38.20300545413687,51.04880817658488,91.2661444440662,71.88061906141488,70.16272008520798,78.92786747299897,90.2477853079422,33.544343676024596,6.6777129980445125,17.125270192496714,16.59562266077012,12.628873003046042,13.985672025501211,13.121757967386088,44.7084828251659,40.07666323398729,47.63348250187812,399.9999999999998,391.69870163256275,385.66762213590687,369.6396081451819
118,3,473,0,15.78243333333316,5.4320334515307795,136.10228135682803,18.46536304522918,22.396847682549478,39.876042512315315,39.87604251231577,56.5963551122447,102.69911745021109,80.40714395387843,77.7135890045829,87.98192165307182,99.2533582262555,37.03394973591048,9.07647260893225,17.435671981389078,17.144448261316256,8.097597369116883,9.232681522614584,10.11732775659948,42.57259344914473,44.6974479993047,47.007930205801756,399.99999999999994,394.5823847956841,386.0991828438184,371.19336878235134
119,3,474,0,15.815799999999829,3.463852659674333,135.36752148283506,15.683259947556458,22.77993425085135,38.141720907844274,36.37045292658078,57.80587908292183,99.68736867878809,76.91001038376623,75.18597831881402,83.17321503994549,95.27632374492521,31.41918118363435,10.452684790664534,16.68761957807817,14.283298320186532,10.098779114696537,10.534896584370317,9.810853268430378,40.36407128714649,38.082003652537594,51.66832920334392,399.9999999999999,391.3770317133312,383.4173541655364,367.2704860264106
120,3,475,0,15.849166666666491,1.7777075487434468,138.84339806429264,16.09782651684489,21.626745734648146,35.55415097486643,35.55415097486643,60.858903366908336,100.32635521345213,78.722542747884,77.78663916026858,84.95556898506811,98.82192951315574,31.065362574131314,8.401257074204523,17.391888050298462,13.791349304210826,10.365727199825654,12.570290626829046,11.691035035659525,45.44608578023133,41.92055825802049,45.32282740251654,399.9999999999999,393.0462746231555,385.0368457343159,371.8852021351826
121,3,476,0,15.88253333333316,1.7383912006163107,127.19987907226793,16.02717495824885,19.201158399908763,33.029432811709746,34.811256663879085,59.51292841557707,96.38277954413209,77.1970972362418,76.33278589529573,85.83415761396509,95.72064878597325,31.289636681525963,5.5868698778850785,17.58360462983069,14.492097785222086,10.994551316684381,12.655678971045067,11.558859209108732,41.139198590885144,40.09462801881591,49.77994829679675,400.0000000000001,391.6283254588823,383.3339834468601,367.0640909174603
122,3,477,0,15.915899999999825,0.0,137.78236597020708,17.074201564658193,18.76547804885541,35.71830585789791,37.37682420994793,55.02593885776523,90.82613410180012,72.0801977947413,72.07996125040415,80.14356067295148,92.52621271241014,31.315696230694357,4.4883266505909205,18.296984185894644,15.024352868092251,12.938791481851217,13.697345026974777,13.695808179517371,46.422121357540334,44.25746553291259,48.323009963797844,399.99999999999983,393.7819483312784,389.5073508052973,372.1662547462978
123,3,478,0,15.94926666666649,2.490629124423908,139.53081429236852,17.699245421461395,23.16418986635503,37.025863787758475,38.78510162538382,55.04797483292814,93.93667846957673,70.79698168584581,71.72821465237087,82.39115160462268,91.72317865828177,32.01490712927625,6.837223400611606,20.57430125588644,15.062768499362846,12.453145622119084,14.522738612416036,13.450018857539135,44.896027245848416,41.75403603426969,41.45232999016594,400.00000000000017,390.35794820212936,382.0336062033743,368.68462492192543
124,3,479,0,15.982633333333157,1.7685616025245745,139.81707115737848,17.773824133662536,21.515480496721676,35.54764826732507,38.94852909717292,51.41011155333254,92.38936019537988,70.94114827345498,69.94198767413116,77.76798717427016,91.13419981105017,33.14902735225917,7.872125233931683,17.743032265541274,16.29775927337414,12.875322812341022,16.305332319936753,15.370119515990382,49.87729347436391,46.96624716389937,42.519104671104124,399.99999999999983,391.87510068650903,385.95184958619757,373.2335465775906
125,3,480,0,16.015999999999824,3.6166527895148484,137.48038530228283,16.375091959988374,21.775133311798342,38.01788530007431,39.824257805244876,51.14719425326475,92.8606857119202,71.10195893970624,69.29663927223964,76.60009355897648,93.49067810411441,33.899661711446925,7.766652714951761,18.44176067683418,18.15091515214101,9.73813566086034,9.220691573813184,9.210108281946987,44.305468261576436,41.06307926407226,41.236186317211384,400.00000000000017,394.91546587013914,387.01987216507814,372.58545696954167
126,3,481,0,16.04936666666649,5.441446659420791,124.08407516118673,15.581931918989856,19.238419161706418,36.17641365906256,36.176413659062575,51.87956403856448,91.60397071738127,72.45506394863006,69.83446695389182,78.27779974411555,89.19360301118479,31.906154286264496,7.7559654792335095,15.388820395304379,17.030294570803562,10.882893318841418,13.873021349280398,13.993567346130249,45.140539826226586,42.39107058226557,49.2743952096862,400.0000000000003,391.57627129143486,382.1430013722464,361.3710570070406
127,3,482,0,16.082733333333156,10.348018498288248,125.99248747685697,13.715543209488152,18.790409712167627,34.193772423253314,37.46512652971645,52.983690054349296,95.81266579074644,77.02527630482413,71.8268887930376,82.52901953627827,94.64901861466797,35.64854017020082,7.18016598191025,13.911256227776903,21.066193235752053,11.412021764457966,12.384950329493225,11.302580322894642,44.84702406691372,44.82684088776574,50.75178689129908,399.99999999999994,395.2984065782265,386.23320357829266,367.49545257092046
128,3,483,0,16.116099999999822,15.695403221889698,125.6721743646168,16.078274197705586,24.662946781456455,36.66410623645888,38.36654120906375,54.31450614829353,110.54393861200215,85.89647984668683,78.08404282231311,87.47142606044076,98.230000108632,38.56210462763431,17.67781382820442,10.927335994045166,21.84412436647449,11.698662846138099,14.380845626780195,13.305824668424634,46.51501132600305,43.79372494910774,48.2348225931165,399.9999999999999,393.37593399230155,383.91899137284264,364.48631355239826
129,3,484,0,16.149466666666488,12.487689109312923,125.69837655971966,15.992044961073528,21.484632710403055,35.36464169071461,37.12856895883729,58.70542208627609,108.65007184681242,87.18160107864581,80.93303003586152,91.61128850490456,99.43034115436762,36.81956881948713,13.129006314397088,12.428792644295982,20.01444073705875,13.449652782781664,14.238156238716833,13.362410871097609,49.248361463783,45.980697669977644,45.404385847900954,400.0000000000001,391.58414364820067,378.428493374853,363.8399177935319
130,3,485,0,16.182833333333154,13.911174485704741,127.97582622812037,13.911174485704738,22.694999169220015,34.68149436292781,36.275904866560175,55.644697942819064,106.1549039078106,83.46704691422855,76.49853591850592,88.78125538884376,98.4049348406237,37.95779626491117,12.553737010690611,12.349195470801646,23.056945083993696,10.061125773864228,10.495617177699815,10.615705920241794,41.06171413272756,39.435608890609615,51.4756836184044,400.00000000000017,389.76122026672056,378.4445271589761,362.49632254121065
131,3,486,0,16.21619999999982,17.611721798895438,128.1194260526237,15.868945034460221,23.049641829835036,36.96758968529201,38.55349998177227,54.579178779439374,111.0826152412211,88.0586089944773,79.2002785906061,87.26654301808276,97.6736260141995,37.93366249974804,18.576694821767433,6.846765129023993,21.191383995568344,13.34612310445933,14.450922969281297,13.378320693617638,44.63574127132864,43.0338565996326,51.89684142327067,400.0,391.12221043208746,375.82206758986916,357.6506836514015
132,3,487,0,16.249566666666485,17.134117475124658,127.20856240294472,15.796875779839224,22.53641294121321,36.144460410256876,36.022419115032854,53.36390561061244,108.60922291754187,86.09787475133892,77.56073949701988,88.4683580067591,94.93516372735519,38.37107824720647,16.883274428770733,7.899325975158376,21.856166169608855,12.473825807474942,12.115650656307785,12.115028438584773,45.22671089404059,40.84729183009273,52.11138388370811,400.00000000000034,388.59710037777984,375.8000639614028,359.8817338867325
133,3,488,0,16.28293333333315,16.107214443494936,131.81923253173645,16.399211892106972,18.139703503300687,35.61932628480216,35.61932628480216,55.39867551631389,105.9062606697117,87.80945448309394,79.74334255934616,88.33509505071243,99.79771207982469,38.722804436527895,11.83775722279222,10.535187105847626,21.633084502215183,14.667901027269583,14.340694787641631,14.33869184732589,47.4760756223954,43.10986059039715,54.09839503774099,399.9999999999998,391.505614561202,379.8108455875689,359.4648099255986
134,3,489,0,16.316299999999817,1.7709346398990222,136.64915424481245,16.036495218754915,18.060060572285735,35.46293852765994,37.231768672293576,59.10784534778016,94.9227574927985,76.88793731937184,76.00881243779918,86.13161809733685,95.37672384419761,31.655710183871747,4.154446253336118,17.72953823606872,14.80387186047983,15.13087219601038,14.603501152738254,13.633605310244207,44.11904894388033,40.60824929317391,43.81050345821445,399.99999999999994,392.9759431951794,383.1117389790914,366.6519059896281
135,3,490,0,16.349666666666483,3.501337191711738,143.8214474755096,12.379096357400448,16.140366949479848,38.55447650105339,36.93039448705676,58.43143292118433,83.4648580566035,67.34956561199007,69.05953504144907,83.15331770296916,92.89641093419402,29.607156475179067,4.62643735193376,22.948354811910008,16.269127376667825,14.436383072331221,14.114341451642037,13.24611312463162,43.54774584690017,39.6668491719887,49.79413610863722,399.9999999999997,396.6413924631584,386.99676673317197,372.95815793228167
136,3,491,0,16.38303333333315,0.0,149.482839359893,11.973579512126747,20.390271169514698,37.29150146390255,37.40665820161209,58.19208916674708,90.52532915160741,70.16558459446317,70.15590166152572,83.13602765184464,90.50526204208654,28.63727948701262,3.7043738556847075,18.8379758474415,15.736180138948157,15.611637670868308,15.611637670868308,15.54849186359354,48.02844183023626,44.86737614005199,58.192089166747195,400.00000000000006,395.3602705798636,384.5663225363037,365.7727669334619
137,3,492,0,16.416399999999815,0.0,142.7308889170113,12.103663970544863,20.611797019775143,35.98678013611244,36.108700689108026,56.900095442909844,89.59982001572477,69.00150106436567,68.99870946545786,82.07432697135573,87.39146890017798,27.83741037054665,4.851633394197961,18.01000797291772,14.699725060032279,12.461484759152,14.115176472723961,13.065272871795116,43.157813476745105,41.647496897741235,55.439537679520235,399.9999999999998,398.31170222589583,390.57531547488594,368.02304415804014
138,3,493,0,16.44976666666648,1.7207365210083807,143.32815949523504,15.864406854724507,22.632755294675597,36.298976676426875,37.895290930999536,57.19993236953172,95.4039394004597,72.78125609383072,72.88429757027438,83.80892413127538,91.84704385781015,30.639067336678977,7.567057847298884,17.469379904426432,15.5851323874831,15.864406854724638,15.864406854724638,15.815652030513377,53.4003764376269,48.12849242745568,55.73167814891274,400.00000000000017,393.54865621913683,385.9976783252986,371.7786548615592
139,3,494,0,16.483133333333146,2.5155242731871117,149.93242166339232,16.10721444349493,21.63935801509642,41.065500378502094,41.065500378502094,59.128199354190556,98.41134769803999,76.81622002602327,76.00126807457764,89.18275403433358,95.78888396280274,33.35890454562377,5.908588259003409,19.73632605958801,18.074535611743272,16.399211892106898,16.399211892106898,16.217843815077117,47.658508769670334,45.771043075822035,60.89439504773963,400.00000000000017,394.55258475849405,384.5421326328549,368.2000642646615
140,3,495,0,16.516499999999812,2.5233203381793303,148.77964051513175,16.15713361620412,19.948598837183383,39.41552370694941,41.19276979637501,55.77051721968056,93.39694521142482,73.50185699297597,72.68906408125679,86.63668632133385,92.11702738580937,33.60693202483753,4.004864624039669,20.05516931756017,16.620959344699372,16.45003601775618,16.157133616204113,15.150623937157093,50.49522507999882,46.999322712416074,59.31144834524929,399.99999999999994,393.3305252142819,385.50273698283706,367.62621098071855
141,3,496,0,16.549866666666478,1.7004810916427342,136.13410578877674,12.379689211803509,19.011956576832034,35.7505676433449,35.75056764334467,53.396189375575176,84.42678840025083,65.41881377471982,65.46837729031063,76.67609356599701,87.55339986256865,28.76664659435653,2.2289562083140027,20.228433165803608,16.043240097016565,15.677661023187055,17.089623467078262,15.497801401335266,46.71892212625869,41.684103396890805,48.096868447205715,400.00000000000006,395.33534004068804,387.8029058185298,367.339340775961
142,3,497,0,16.583233333333144,2.4292891664505687,137.8073029956177,13.849079040232768,17.517853305133677,36.236331251482056,37.829890558284944,53.93897298000307,83.3249725322885,65.83777016223348,66.79425809811835,79.9392325657119,86.65201050566691,29.392226437406066,0.010587977823320216,19.365411438766387,16.411365626073234,12.50553138164107,15.555040341432958,14.80728698584744,51.07640501946946,45.898883863888955,60.73222916126515,399.9999999999999,398.8919441676716,396.81901290841193,379.7236186445431
143,3,498,0,16.61659999999981,3.7531313592080826,134.44384992747774,17.116912571752398,15.199023586774906,35.28741925889876,35.28741925889878,52.463353141948396,87.85855257008589,72.65969257987553,71.0923085771741,78.35090403455604,87.61675007690371,30.5227869630271,4.87400272589548,13.783470074306479,12.93445024463449,17.52354675824741,18.539101326307865,16.865097604227458,48.0901602288352,47.052469325902564,67.66053779588448,400.00000000000017,395.0391390737732,391.08277091207253,374.59936223215567
144,3,499,0,16.649966666666476,6.643153307593422,132.91190389148997,16.431094142601907,14.590048665788869,37.19747142556337,37.19747142556337,50.59274829810093,87.73283495569751,73.14570164458587,70.04564815275103,82.93564617230129,84.93409547765805,33.37410339945632,3.797053680177555,12.79007555428268,17.78619881767429,16.431094142601793,19.60111027541413,17.886121282942042,48.7621630507025,44.36557457891769,64.94960242409138,400.00000000000006,398.699902304,396.4734048116942,381.8853087067739
145,3,500,0,16.68333333333314,8.085049286408497,133.2243420834636,18.078719805845726,17.86045764202702,34.11086030801735,37.3315714679296,49.17943485498022,93.07292984871385,75.23875797787029,71.21643831961546,82.87663665141065,87.4136788038602,35.99386774276604,7.92470029294509,13.853102038812494,18.813601458823882,16.490329631902664,18.078719805845655,17.150019336259106,54.29327109097892,47.57844870535365,66.78857551108464,400.0000000000001,398.73312255191786,396.4972797165085,378.39412694859675
146,3,501,0,16.716699999999808,10.205040155597572,136.55474551364924,17.109232402613294,15.467613758444418,37.061566073644585,38.732672205890836,47.7186464951239,89.9252531153414,74.50189359221527,69.56697875989823,83.7770572154127,85.3525446755632,36.95234224716933,5.289136473362873,11.928690769711807,21.033780636816232,17.109232402613237,18.757236853624526,17.785616555012155,46.82471496824314,44.9116230523461,67.63017926176619,400.0000000000001,396.53703730476116,390.91809678708586,374.2621086305005
147,3,502,0,16.750066666666473,5.1669927536692235,137.14989339021704,13.885875787890454,15.596369796812846,39.94916769354168,40.20822012899542,48.71487485948252,83.31525472734262,67.7206850264473,65.138332551487,85.95901484126159,83.41603074480065,36.001682107559304,1.384285697670407,17.113872810457565,21.430793393562794,17.564397918367618,19.256245060755056,18.257190257052002,45.97879309891647,45.06618993526723,61.16093851549698,400.0000000000001,396.86929535050353,396.1960137478367,377.3320059087624
148,3,503,0,16.78343333333314,7.151111331590714,131.99678558012582,14.302222663181382,17.430496805307722,38.31413187222717,40.22909072017218,45.6249210458942,83.89904306673108,66.47524958412849,63.10991153913221,75.2722161908315,82.93351045961845,33.518162425942705,4.788308917991799,12.832667900217984,18.770170958527842,12.626617179292076,13.98317384445522,13.981862040536214,49.606880390395304,47.883089179918215,58.17351956528092,399.99999999999983,399.00607869281777,393.84613667227296,374.0597015008453
149,3,504,0,16.816799999999805,8.858069648136778,137.2835933150524,14.005837880259314,16.016288368594797,38.25809013350704,40.10661612216179,47.4166156486941,85.75909340906378,69.83499315481173,65.61123728033908,74.91528165546185,86.88569766542116,33.512027310285134,4.85495413279466,13.023607118131622,18.89065221829196,17.71613929627357,17.716139296273628,16.691794685132095,50.60454836828279,47.337087174147996,70.26581151107905,400.0000000000002,396.63218095876096,390.87233643992454,374.18237376600916
150,3,505,0,16.85016666666647,3.7496997430966847,134.24762975866872,13.828209393192076,18.748498715483787,36.930259569191406,37.04430078630056,50.752708928009326,86.32457081614382,67.59867345664804,66.03617810114281,76.65588201720732,88.0005849506183,31.57830226964336,3.9874945954068153,16.56775923443695,17.06811066894386,17.50752438129628,18.748498715483915,17.782898432525144,54.74253143655886,49.97387592809554,62.85642158053394,399.99999999999994,396.5509141445465,392.43075584554015,374.2568532486647
151,3,506,0,16.883533333333137,3.7236459198165504,131.65076403199535,16.735706931903547,20.052446961626213,33.34690724310991,34.97056668356816,53.703185182283484,93.62581756889756,73.57381599916785,71.99441983036638,78.58125475011911,88.50863075000098,29.844959493315514,10.05303898722218,13.341220489292596,12.691961721367875,15.798091683839468,18.39345399979196,16.734121147480096,52.06636442132094,50.432745585897464,67.3558040551346,399.99999999999994,396.6163627875294,391.3939796094912,372.30873310312853
152,3,507,0,16.916899999999803,3.3176746894863283,137.8432948215142,15.021411038174069,19.97504677755691,31.561532975218498,34.87505800211598,55.142308408584036,93.42656752117806,73.45859214899586,71.8099053412617,79.10045897066118,87.80406934283758,28.312332563608834,9.973313532352677,11.652598357101965,12.91206197566396,16.91688798144317,16.91688798144319,16.76212962265015,52.07830865045736,48.83237395871629,66.86987117911067,400.00000000000034,394.2767090666258,386.6834890872004,366.6630966818341
153,3,508,0,16.95026666666647,3.82751461802405,132.07975997265072,15.781247053708322,22.318053614514536,35.986780136112564,37.81305504129267,55.20120085149251,94.53263760323122,72.2174013782166,71.5484604484634,82.08643890175756,88.5017965709743,30.09620812605749,9.214003632297931,14.832823604330201,13.971701769536025,15.78124705370813,17.45615242671423,16.544303250983546,49.7297859593653,47.51239723477033,65.60587826421222,400.00000000000006,396.1320458062192,390.2751326537313,370.12679861822534
154,3,509,0,16.983633333333135,3.759690755595398,134.67881918889776,15.225587117560305,18.79845377797644,35.34909153952115,37.02865963058515,52.79655430730454,89.88727912568206,71.11681407307393,69.5446963843408,80.85801503576215,89.84682037885034,32.60503589471125,4.525327460568519,17.668362795932808,16.699386073168625,16.897708320056733,18.798453777976412,17.828140872558663,56.55113086259445,52.396900870318575,69.4475030934459,400.00000000000006,399.5120353902433,395.1576283017095,375.1900124064731
155,3,510,0,17.0169999999998,2.4922964954326425,144.6069000459156,15.958484096774386,17.97220561588402,37.17617590884088,38.81106661286211,58.58222303893389,93.99956510846617,76.10691655965987,75.31218178578445,82.15874376631018,93.79275134224144,29.393886397595907,6.0229154264776525,15.49485079803219,14.67120424398388,16.2477853075035,16.24778530750333,15.185983340264215,56.41978895230335,51.374953808757994,71.04138040382844,400.0000000000002,398.755756458282,391.27070615481176,373.7613885322866
156,3,511,0,17.050366666666466,1.7149858514251448,140.63929665888494,15.529857391110742,15.811388300841887,37.729688731351956,37.7686455705694,51.904890396366476,84.8874687627166,69.13328984437159,68.26502868720922,74.22508680663191,87.01892884308882,28.739337842870555,4.202205026608681,14.801331071445816,12.617016577416507,17.90497794732288,19.1741247211842,17.32369423717006,58.48762095203074,55.21114921098683,67.43188284134884,400.0000000000002,396.61064030103887,392.73550446908695,377.8577385580922
157,3,512,0,17.083733333333132,2.39669245001485,144.06095470650882,15.346319516363197,17.03169992537191,39.01532641782036,40.70851091526317,49.87193925527779,83.6613897320603,66.63494671017666,65.87406885786152,74.36897840806444,88.40047350549753,31.606815823427382,2.2701027939477854,18.294357810050087,15.726368224136195,15.624523184668567,17.03169992537191,17.12335455887336,57.72840589134279,53.8661495541283,63.5236540724872,400.00000000000006,398.61902380293895,398.25860869868205,381.6878519519623
158,3,513,0,17.117099999999798,1.717117789815376,144.2787723088457,15.45406010833786,17.171177898153275,39.531020188873505,41.35367253797597,48.56742533097872,80.86877390003119,63.74185476317852,63.798778818145934,72.96922050744934,86.56769069402822,31.214670201010563,0.9804539632957585,18.298254945420013,14.941265831962028,13.843846205679835,15.831043801610965,15.64996353369213,52.145230895713496,48.425900100167894,65.81289355075691,399.99999999999994,403.7016595775117,403.614006324779,392.5896088026685
159,3,514,0,17.150466666666464,3.91652751681988,150.7227159952994,16.148256637485968,14.121240783659527,40.43707974637512,42.0730587308166,47.80731095461205,81.25260872623605,67.13161232015733,65.45426706581793,77.36808034412934,87.6724930770423,34.75880253823857,1.296018921046766,19.142836850215872,18.292988377398274,16.148256637485968,17.60260189171269,16.82168820883271,44.71265277611434,45.75371715531588,67.38248723401314,399.99999999999994,399.5933047723045,401.28642316864955,388.51479190473555
160,3,515,0,17.18383333333313,2.365808013642188,138.85902504082807,15.148562633265042,16.812224767988994,35.170264573761536,36.841335924105266,48.77238165089667,82.24373516040107,65.43501647758106,64.64691197824538,71.48381738861622,86.19588263766059,30.073039515777396,3.3483705312751226,17.0948591619981,15.880101480884264,13.794912719986973,17.06008420218083,16.176003992950427,49.337850432927326,46.586476197926004,60.80172622279415,399.9999999999999,396.7580655163215,393.1834839607819,377.34823225288494
161,3,516,0,17.217199999999796,6.0089913245177895,131.70313784289033,13.436513077828387,16.74906576166422,36.70293293456921,38.47631799254357,50.44029729989812,85.25733675791706,68.51304237849138,66.1613631509432,73.0743739974314,84.75952429172389,28.485190383469785,6.2855140572188475,13.82602169297627,14.427153070931695,13.74308894343423,15.36524054917223,15.281392397500042,50.50558191278651,48.73382627249691,65.33815015070343,400.00000000000034,400.20479090542835,400.069432390733,384.3623265302213
162,3,517,0,17.25056666666646,3.6614441881472866,136.15453270143064,15.09652113003465,18.08620011077948,37.696875143029665,37.69687514302942,52.806099050456524,87.17005887416305,69.0839907741169,68.44054219828786,81.52102761350477,88.0120176015555,31.96760724146975,2.395237519552211,19.078948207688654,16.476330816313748,15.096521130034569,16.698754734789716,15.817899723276753,47.5314666217638,47.500359640990325,60.93857621726885,400.0000000000002,398.46876536672966,396.3164508682551,381.69743461935855
163,3,518,0,17.283933333333128,2.305331914965369,128.94411992246455,13.14241398070204,13.142413980701926,32.64304405613524,34.23243242911565,52.79663078657707,80.47226576713325,67.32990136744004,66.61022957002979,78.54225591960119,86.64045249705941,29.84031675567212,2.1219325209291355,20.163484389696805,16.288651090609164,16.623984852743458,18.22524903492151,17.282986619739916,51.52093164342409,48.11763890454296,67.15206712810493,399.99999999999983,396.7750150177686,396.17180940964994,379.98835674995155
164,3,519,0,17.317299999999793,1.6060113084273286,123.6732989540581,14.543050934011987,12.948077115221958,32.12022616854331,32.120226168543105,47.26150475324789,74.50230894849398,61.554455908465535,61.65077759751284,69.38752841664166,82.935898747397,28.954595874933716,1.6612020153447702,17.97306728751471,12.249424206607387,17.95575229138256,17.955752291382627,17.926491530075054,56.84312441291701,49.18399985618754,75.75540190785696,399.99999999999994,395.5485546690838,393.50226762590677,379.1853578848468
165,3,520,0,17.35066666666646,1.7387196327373282,146.21794772897314,17.473916049010356,20.864635592846977,36.67833083393197,38.29132788522732,50.900256274452225,87.36958024505154,66.64083895855201,67.49740630315057,77.23799856459868,87.29671281281253,31.37793691686818,5.089951788252847,19.38019341598647,15.138566925775763,17.731530671988185,18.152765898837206,16.809969745132662,49.81891303859368,45.38540344525455,68.01039127028231,399.9999999999998,395.43928085925,389.6128912229234,370.3513632520282
166,3,521,0,17.384033333333125,3.5273793774513593,142.85886478678046,15.970889395572781,19.48058933426579,40.60318581838331,40.60318581838331,51.90164488231167,90.79148359296072,71.33683309791591,69.53553447497711,72.78156315367471,88.74206838215946,28.949805292602377,10.002538851769486,13.196714037197466,12.170014870452746,16.260415494075488,16.2604154940756,15.193073528089599,55.2239703324762,51.64607929685087,65.8496639130037,400.00000000000006,400.60610804832515,395.08223719009027,378.0225185809825
167,3,522,0,17.41739999999979,3.28828525977491,136.5529494488357,14.888344735660965,16.523428933751404,37.8510058430287,39.59619795762793,49.76078544868932,84.4295656260804,67.90926084509334,66.2769864544806,74.85091406724291,87.42250118043398,31.376367000077607,3.287548931273818,16.963752485372993,15.385728998361515,11.969539019231373,15.158246070377745,14.175910991652813,49.02392966315551,48.70832496575338,59.02907104787984,400.0,398.29333999747445,396.2417848724863,378.5850388454824
168,3,523,0,17.450766666666457,3.9146139864078564,140.09724754695478,19.57306993203944,19.573069932039456,38.55447650105342,40.30341774879007,52.78200492646231,95.1178703083041,75.60375382970358,73.9319919818737,81.67085693034005,96.09401335184543,36.12180459772833,6.220918279290231,15.56294795555334,15.626861499518554,7.829227972815762,10.648901337841988,9.773446098028785,48.26537795113751,48.19081214984453,74.54230936489427,399.99999999999994,399.61671129564684,400.9375087597399,384.4182825469231
169,3,524,0,17.484133333333123,8.93928792726294,138.67536871873614,17.618824868367682,17.618824868367682,38.72809748226779,42.22116850356882,55.049668651786504,99.17249534733196,81.57276850944746,76.88213205887826,90.41569088572192,93.34752567993189,37.04582679255179,7.046874344654384,11.821576723796284,19.549055574249337,14.13425525509828,10.518831595093454,10.491780227850995,49.1187036415659,57.90373718564484,64.29502861794927,399.99999999999994,399.9039417488923,398.2095238052535,387.61414710408815
170,3,525,0,17.51749999999979,15.545426843143208,129.9591072511487,15.641091911266653,17.61476329340368,36.436793167411864,38.156633699731096,52.53285551053524,101.13012603750843,83.5541586778261,75.84596147091975,88.2086605252399,94.7913963853324,38.99869610771884,9.627920172606991,10.195212856484773,20.663368419363678,9.301631727508802,10.50657110210705,9.531587452703207,49.504314395004826,47.267254566127974,68.15605554105971,400.00000000000006,402.9020757014799,404.1958606405734,391.0082228140845
171,3,526,0,17.550866666666455,10.289915108550556,130.62069019065245,17.489492643904118,17.489492643904132,38.07886552931959,39.59352294029324,51.904890396366554,97.01425001453323,79.5576002950434,74.45868348631268,87.30737245072191,96.566923506065,40.03269206266384,5.0757630785021774,13.018588983773384,23.403727667403473,13.060943124220339,15.529857391110673,13.825614075752867,55.854631365944726,50.84258079470402,73.3244201356906,400.0000000000002,398.4085990094914,401.3066892334708,388.0456310341683
172,3,527,0,17.58423333333312,14.646010067955574,122.32100561789429,13.119989794670428,16.59562025172914,32.5873470058345,34.328657872094034,52.70654676758777,96.89133474730586,80.3349603177236,73.06970986300792,83.05876539412895,90.41046349474823,34.049158405875005,10.15356905505098,8.251381434611062,18.667143918425495,10.292166766332757,13.419343667564528,12.312809056631522,49.025030131122435,47.97625641606908,70.89652079332129,400.00000000000006,395.7468611864979,391.1328061643461,374.2869239588644
173,3,528,0,17.617599999999786,13.635799634976246,133.1237495997513,17.382302105546326,17.382302105546344,37.653082431585595,41.04919274050671,51.58677292673654,99.7955166059052,82.45149844600027,75.68557864605441,83.75422445396237,93.3777655477694,36.98129328624532,11.220460576622258,8.215730497114691,18.81633416922307,14.05546054619149,15.4346771701479,14.587649354531663,50.471060496341465,51.03838715471011,64.18428971154553,400.00000000000017,397.6690202708126,397.15729478549997,377.34011313759873
174,3,529,0,17.650966666666452,10.560091239582414,134.050319331043,16.226538442733315,19.677568216922058,37.12756145663955,38.880006705208274,55.012793933061864,101.30412694679144,81.64649650216933,76.41062589043383,85.98389933284932,94.52445719355876,35.241419225720506,11.04489314634668,10.652461225298339,20.070827330457973,14.513457198986005,17.94870376531713,16.921044806254258,49.75623672659964,46.544491267493584,69.73747943610495,400.0000000000002,395.0126624361051,385.543774646093,366.12123824420735
175,3,530,0,17.684333333333118,10.250608536718762,133.43302000292346,15.470534700044732,20.784005839969353,37.6243726621494,39.2939993907555,51.7066182744628,98.11236030132994,77.35267350022345,72.25596958693359,81.2904865768711,91.81731217675383,34.84742267547347,11.555308560790536,13.128282501003127,18.411861633511194,14.088113907916517,14.0881139079166,14.84242076918315,55.8002422124045,48.258033832411854,70.56476693758955,399.9999999999999,393.6672626444684,382.7847102594435,362.25263179676
176,3,531,0,17.717699999999784,3.7112841961548706,131.21371110057729,16.926060144058372,15.30201674743188,35.012185082224654,36.66478317868195,50.2327491430039,85.44017851019025,70.20117485925809,68.64415808850879,78.35267002124431,88.15453303025629,33.03072248909882,2.162633267067804,14.920613691495873,15.76077337798256,13.686539856039182,15.30201674743188,15.122874356761258,50.19176201122605,48.88484694335773,70.2011748592581,400.0,399.3348693354406,398.3679386768143,381.9703024297755
177,3,532,0,17.75106666666645,6.528437367726729,125.84187488432727,14.779378678743365,16.644314765653334,34.42938428565302,36.05447380231875,51.01484042147112,88.87131359680242,72.27499119878523,69.0319804932492,78.60598496919795,86.43456683842032,31.51055842084122,6.341357872958611,13.539935132652431,16.307824236810234,15.047304637102004,16.40249588648281,15.59003209972468,47.65313554695558,48.09723715695122,59.56640130271008,399.99999999999994,397.1697087823976,398.2647786710611,383.7678756779901
178,3,533,0,17.784433333333116,3.2922089470006664,127.01698811156614,14.906109985156492,16.787037663581255,33.086290436098075,34.724611909517854,51.452286237943056,86.36951897762917,69.62457632550174,67.98688393906207,80.86080143282868,86.76431055980447,32.36769074695599,2.535155812703124,15.835833002395475,17.085629254750074,18.40400750406629,16.543145218049037,15.724062605843528,56.03761245313524,50.27635655813475,63.09112812788103,399.99999999999994,395.4078633563201,391.77632288049307,377.3171647109768
179,3,534,0,17.81779999999978,8.079318072184869,119.10013561481671,13.065995023466092,16.158636144369776,33.42473998957152,33.42473998957153,49.34849350681133,86.0887116851979,70.00481927325602,66.13436920567176,77.50480387107996,84.19329485073172,31.517599097244897,5.233361262704648,12.626441368457222,17.987445588788887,14.608226533071978,14.608226533072012,13.657796466082914,52.35403550026706,48.71876406705172,62.11907295553323,400.00000000000017,395.15979443938596,391.3965708770778,374.10282865581894
180,3,535,0,17.851166666666447,8.450863487323206,131.9309443308283,15.582622324777919,16.986025387734188,35.53384606662605,35.533846066625586,50.817734183239914,91.65973434762232,74.67427049956075,70.45001028408922,79.13562799034696,89.64648420009337,33.64103379706296,7.238014755214749,13.416551988289257,17.62299244747919,16.034386089056852,17.236447131427887,16.343227519745483,62.59309281792156,58.816737293461586,88.47210558971919,399.99999999999994,396.0201228779849,392.13463599539,375.9637107676385
181,3,536,0,17.884533333333113,7.2315018255566175,135.15251636613812,17.88630817119626,19.609162521680638,33.50815160555581,36.83183311946784,52.87933453550497,97.03662974147261,77.48969404367979,74.08074327570478,82.14016748850395,92.78644013789233,34.59265648370945,9.569277981565278,13.39286670656361,16.44349275130594,16.17012966135866,17.62644484516838,16.75267782340825,59.281084491075944,55.859436359810616,74.41153989230605,400.0000000000002,397.2527889450869,389.55860557437546,366.58121769683254
182,3,537,0,17.91789999999978,5.216158898211796,133.8927016319672,16.030202952789093,17.473916049010167,36.67833083393165,40.02833195963786,54.01236758948477,92.56130754385259,75.08773014122207,72.4896957853316,81.00648818292859,92.99813187874508,33.02943119363465,5.555569194740087,15.429807272938774,18.60591569936571,16.030202952788954,17.731530671988164,17.562936199598482,64.61231795543114,64.16158309623512,82.62120539267427,399.99999999999994,398.47418006391536,398.2009614106909,383.4064062669746
183,3,538,0,17.951266666666445,3.747888747185384,137.53270848971823,15.177792626234247,16.84466488944865,35.238127552652514,36.91242332798031,52.20204969048673,87.4150359682793,70.57584008518361,68.95019160073161,76.88449241702313,86.88110189619215,29.685053758264075,5.485944226373135,14.669821227560988,15.82796500868426,17.09300258218533,18.739443735926752,17.859796203637245,59.49201738822512,58.090053863707396,69.22950111699679,400.00000000000006,396.25660450394594,390.5472718217344,374.14743684367306
184,3,539,0,17.98463333333311,3.933648245407268,140.7454724725038,16.218847209840604,19.430788966322986,36.9846620241961,38.701981455736984,54.98671836483715,93.83214730081518,74.40732471977546,72.7568514046319,79.35881382382945,93.42635234353804,31.412647034763495,7.439563640230517,17.459563340289264,14.660622614104682,16.21884720984066,17.940196241591728,17.776915355711594,60.182428105025565,59.77663372464934,74.40732471977567,399.99999999999994,396.1322454494196,390.68078676515955,372.6890392516754
185,3,540,0,18.017999999999777,2.494233877613461,148.2443871197112,15.970889395572867,21.23763619443127,37.07945229649236,38.80117315196526,56.68554632016142,95.50017311356012,74.26369326273752,73.42067153438154,82.00685985224482,93.5719298314076,31.115545420128456,7.634948795767627,17.147344016724105,14.493886402457292,19.48058933426596,19.7186501760304,19.575508059968115,67.28767987876512,61.53017750818617,94.07263550067995,400.00000000000017,400.8273419825037,393.3660668763202,377.4666784980672
186,3,541,0,18.051366666666443,1.7407435912404816,144.52365761465427,15.763103645427693,20.96132859134962,33.11990559559471,34.81487182481084,56.137294025120724,91.11923949539668,70.17161753140103,71.03164158711343,77.94021261261742,90.71746543325935,28.195412449095556,6.79016779630399,17.6523770837955,13.93554528020843,16.048862928190008,17.49425658023083,17.492790122699716,62.84637487284243,57.42041819558358,87.66160734967568,399.99999999999994,399.01017639483086,393.4234561293129,376.1456497020545
187,3,542,0,18.08473333333311,2.4962486946741502,137.69023597438184,15.98379051952952,21.254791743524567,33.53717321111368,35.30228759064614,54.97417493375188,93.81711615291522,72.56316301048065,71.74150189930253,78.08613589402216,90.69955001845221,29.420463357239896,9.38420672831296,15.279135666190882,13.166063712355935,16.273550494304995,19.734578703482917,18.708813991261366,56.42443930060699,61.20323279620271,76.89904687858358,399.99999999999994,395.86207242815885,395.4013806509729,376.90048854901903
188,3,543,0,18.11809999999977,2.4116961477179144,144.96280050453436,15.442390056775443,17.138321230514755,34.10653400425516,35.811860704467676,54.809741347279434,88.93895940546656,71.80620252356331,70.98453681843307,77.62871873876816,92.81990100508858,30.429412240967622,3.643583633732078,16.9737676595812,14.495921687717441,15.722335326820064,20.746194707942532,18.928861316705706,60.545173093091705,59.917870315404855,68.74391701085366,400.0,398.0577368054459,397.3740552788894,382.3013856705504
189,3,544,0,18.15146666666644,2.5070118112421897,147.17888940372453,16.05270809209461,19.58038818624753,37.2694099362639,38.9999511493688,53.29980221550206,90.565259505662,70.99758301385455,70.08161126612345,77.09236321015783,89.91172781440105,30.25556585455797,6.938209056217374,16.1718823483601,13.601791465698625,16.34371742972067,18.078319267254184,17.91291165596965,61.132927890404744,59.039547413398225,74.9801927465987,400.00000000000006,400.88678854391407,397.0943686585102,376.08519702495414
190,3,545,0,18.184833333333103,3.880862217679414,142.48632009045156,17.69945491517447,19.170045223830098,38.18263561218194,39.95592202135614,49.089455572634336,87.21153154295706,68.04248337085001,67.36189866109396,78.4585912363126,86.53998857380031,33.442365363925205,4.710764277128533,18.01055135264221,15.350593937539315,16.00120484196023,21.114173200891912,20.122273269975608,57.28045700767029,60.06224453338842,79.04012130571871,400.0000000000001,398.1885674036226,397.46168280141046,378.67750484073173
191,3,546,0,18.21819999999977,1.6590656264217656,141.37147323237463,15.023478216693608,21.821601321394745,36.64995759006724,39.95559130596028,45.28367885691967,83.76227862720141,61.94338755159397,61.111589549409814,76.22731212035046,82.97172512032762,34.33472541744004,4.14446753052016,17.777448922840108,16.76836117627863,13.681005635136291,15.295829300361296,15.120870977811023,58.619760624227524,58.40352753567845,73.91691297840026,400.00000000000006,400.0550461874522,394.944745275779,374.2323997730475
192,3,547,0,18.25156666666644,5.462106224872623,129.54522369285968,14.24343041546482,19.078316849865562,36.27266263400092,36.27266263400094,47.42920168682087,85.49548573397945,66.44939016232762,63.875731921579245,68.87952652174965,82.48259286549671,28.39573417559427,9.756866016750337,14.20586889152878,12.114730849666444,14.243430415464763,17.61476329340363,16.590406403550446,54.90304267052716,57.10087142881099,66.44939016232752,400.00000000000017,403.079754770365,397.27201932477,379.2802553420597
193,3,548,0,18.284933333333104,1.7879070422461407,152.06672303449653,16.19018685872545,19.748078746778397,39.37456821326049,41.12186197165748,52.61431020571566,90.26717535890837,70.54873668817058,69.57287852850254,78.43429849092536,88.73684903547223,31.091625750507546,6.623068207208803,16.925618751755678,14.656604643730361,16.190186858725564,16.190186858725568,17.170917574244868,53.843091536381905,55.06958564882791,77.62482109724083,400.00000000000006,395.53175335238944,387.9923062233707,373.8265225407471
194,3,549,0,18.31829999999977,3.5062771983645264,145.55274190536204,15.875345216129999,19.364048741133825,38.60887268170641,40.47434752103432,48.13953874673891,86.77593342891548,67.44458853722196,65.54705765282358,73.22157357516733,82.74675614363457,30.05503544792498,8.673039451749446,15.751577979578656,13.890455589691442,17.878575854525987,21.3278515630504,19.52087360628832,51.180865721896794,53.94118207543744,69.46500606974733,400.00000000000006,400.02689217680796,401.52997955847457,386.84027132704415
195,3,550,0,18.35166666666644,1.7700847924113499,148.69765840827696,17.78913200257188,21.314643440303442,38.982073874771245,42.629286880606884,48.60486529076913,89.36737234169414,68.0965216075131,67.0885059017013,71.54630156789119,83.96482345926529,29.337043431576603,11.526962758136165,13.23622405499475,13.046306133121448,18.051393794438894,17.78913200257188,16.907970544542877,52.15357154550753,52.121918558528535,73.62361236807111,400.0,400.18011845658583,400.1801184565859,384.14102685867607
196,3,551,0,18.3850333333331,2.4951314462073086,144.84662490745765,14.22443778678776,21.46393228430087,40.73259099138656,40.92319844790005,49.90262892414437,87.5965281901785,66.13275176515133,65.068640306715,76.88201150887596,85.46202708683177,31.2980371205731,6.297646902046495,18.787275489661965,17.9208207145482,14.22443778678776,15.976636638790268,15.976580731366198,48.711664796030504,50.402308259667336,56.95243424592971,399.99999999999983,402.3007760331656,402.6526826923888,388.3317607667875
197,3,552,0,18.418399999999767,0.0,139.20976508582658,15.558196831688301,17.266846264646563,36.080423801019954,37.79853922011619,47.52072446735293,80.21961663753181,63.01058004840917,62.72069597257371,72.1164375505939,82.04790123613282,29.918019235274983,2.905262198466744,17.555201369458928,14.093612367030346,15.840241489117549,17.266846264646677,17.266735619256508,52.04746321508577,55.81812266415966,60.42785594373396,400.00000000000006,395.89793611961454,390.0159845116686,371.78445608034764
198,3,553,0,18.45176666666644,3.711220300483994,136.13654495893374,13.686304220447989,16.679860718790042,39.8675584416805,39.8675584416805,46.73780654277357,80.09704189358001,63.41736029406763,61.84920941638802,68.47516392297644,78.88439213837387,26.942761384834057,6.41693385969279,13.586342048209644,12.875671848764796,15.301753298832077,16.925768734963643,15.11219277054704,49.307970602656155,52.046141076987624,66.42980671686003,400.0,398.5511948119425,395.18136085570967,376.4172767764088
199,3,554,0,18.4851333333331,3.2260949583065837,142.27773712926424,14.606766169835597,21.03156601160563,38.74673008257309,38.84732756061588,45.62387243540896,80.91004993032557,59.87861680319829,60.02619667120587,70.7096838869187,78.0482462627973,28.766353622573888,6.466854690346054,16.471220802213793,13.258065728797192,17.816691745112927,18.034419071608205,17.905484028991054,49.474479221910826,46.352549371398936,65.50244009451174,400.00000000000017,397.2815108111471,390.3708206983986,371.1727050572196
200,3,555,0,18.518499999999765,1.6528784503158696,130.67151496019574,14.967450954138615,16.611222842506322,34.749779421045844,38.05211953235965,46.75046242782058,79.95559255833241,63.350757966745384,62.51241335977738,69.67687496626843,78.8038443174155,27.516975257070612,5.704355844467045,14.328923212981977,12.057647583166727,16.85611894351593,20.444977310879597,18.52083975556735,51.26593564440179,50.70073341394084,68.74861748957257,400.00000000000017,398.68647988881787,396.6942715576515,379.02849116434163
201,3,556,0,18.55186666666643,3.694529450244919,143.98240617462528,14.961703943171955,16.604844676969748,38.037508764705656,39.79129994876196,45.09747920838099,79.73681328342087,63.132146920157346,61.58060492178356,71.85083830307474,79.61215667761564,30.662816942256086,4.003045285160624,16.078473610333276,14.956601046339188,16.84964674589718,18.472647251224704,17.516510260543782,55.33891392938028,51.73872288310838,68.46352850012117,400.00000000000017,398.76964848665637,399.8737217495609,386.7980016488047
202,3,557,0,18.585233333333097,5.164967842001495,134.02071454905456,13.168135906722553,18.04045709700019,34.338297310056404,37.60153346437111,48.06473673340591,83.8730983910193,65.84067953361277,63.48094611690749,72.16297414576854,81.52935026631633,28.88051088424072,7.022228552755223,14.376417000731749,15.254833954239984,16.656520801555935,18.260918928448742,17.39980558489981,52.53137664992033,50.079980500594786,66.96555593122335,399.99999999999994,395.47602602443305,395.2736087866537,379.43359776267283
203,3,558,0,18.618599999999763,3.6400657511013637,136.8974480191677,14.741142772065269,17.980598421775284,37.47677066221522,37.58268732370898,46.04359442500914,81.80030396968442,63.820640735407586,62.291324795672836,72.84553282596676,81.85397420972879,31.324807538990854,4.442799500628098,15.375771543648398,15.805719882418884,16.601254060603864,19.80409878538594,18.16019888044758,49.6487962627794,49.300742845679565,67.45425869492814,399.99999999999983,396.54335658523803,394.113400234498,379.35353492528276
204,3,559,0,18.65196666666643,4.87060963063146,139.70906940992026,14.70174868762989,16.3163403289601,35.754683476263736,39.09993768241747,48.07971283723445,83.81286279809527,67.52819167743587,64.98344667044069,73.42581133897727,83.7097702611901,30.707032274775884,5.152325496239428,14.536179361880158,15.508706664383112,14.968267341242022,16.556889033122022,15.684589261644362,52.19574724603933,51.68879152452166,62.732410012495535,399.99999999999983,395.3736513883061,391.32619661222407,373.54044278719533
205,3,560,0,18.68533333333309,8.230522367501548,138.75205892959173,13.271318545987139,16.543145218049137,37.89617087476309,39.81395563796096,46.558865430143925,84.53030968626824,67.99029234882252,63.90287921542745,76.33619543045745,81.09832307835381,32.17228454660881,5.813044943327554,11.21486137974739,16.58621644528489,16.787037663581145,18.404007504066232,17.55082652321704,52.72863299685628,51.21571824304698,71.46823757812048,400.0000000000002,400.49082472756265,400.01693501611703,382.12321929134623
206,3,561,0,18.71869999999976,5.20138895630179,143.43955870100189,16.53027269753438,16.5302726975345,37.86668317876701,39.61259812654025,45.16531090820972,82.83120051136257,66.30495946492177,63.9528371853977,76.3506437638033,83.63739127341216,34.919541079735836,2.8371804133158776,15.653587380571253,17.472690304955904,14.894511271366085,16.773975365943322,15.906814776295278,49.0124208376817,47.46204902712657,69.78395570224448,400.00000000000006,398.53638213640073,398.06090693174696,381.9534008302804
207,3,562,0,18.752066666666423,9.749253125378356,136.64420617744221,14.713873643248338,17.947336736290602,37.51316441373101,37.40744368379621,46.216213073469056,88.47741892246026,70.54654891700662,65.66683512239149,74.95814695497052,83.18965245448692,32.96717952556298,9.383916269448491,10.309960638144162,17.59484300521615,16.570543976419735,16.570543976419813,15.60899230345791,50.74723140451812,47.87649386156181,69.18612354435102,399.99999999999994,396.87231181736877,396.4696270987164,378.94452168143016
208,3,563,0,18.78543333333309,6.750393894339002,141.9189044352382,15.281854136842734,15.558889153274267,37.28026878559543,38.85143449429059,48.32546594288937,85.73598192920882,70.19273674618215,66.75960181925666,75.54242395973688,85.89904659937815,32.5929006600478,4.873704771595953,14.316507766563063,18.22562513544733,17.210195095836117,17.210195095835985,16.220298692967617,52.64616508484346,50.46315148923276,67.18676911232023,400.00000000000017,397.2887824322422,393.44214925844034,372.95926266222915
209,3,564,0,18.81879999999976,0.0,143.78581069983701,15.961139681084013,17.39863279680229,38.244091308409914,39.855877027272626,50.94638596082803,84.24522304127987,66.89356462665863,66.73183359103132,76.18303543306331,87.1701855701167,30.81624262578009,2.4523974443842462,18.61057350800968,16.050659682974015,20.846753757237558,19.355724944219652,19.214713170718255,57.14751623009755,54.055140329454446,77.13201747190752,399.99999999999994,390.39110523384954,382.7934113122158,363.59511638878104
210,3,565,0,18.852166666666424,1.703794475830965,145.07287208527234,15.708208916012302,15.708208916012437,39.335149971235964,39.33514997123573,48.78924886708949,81.87082604351646,66.16340944007128,65.03211013591408,73.18228152214067,81.28629083003125,28.67177976652397,4.26742768618044,14.997546339412565,14.094821251951316,17.375362558826062,17.375362558826062,17.218455219359782,51.14758279638255,49.76272044630008,69.18748333746794,399.99999999999994,399.0517999260967,395.3133647490568,378.33829584515655
211,3,566,0,18.88553333333309,1.7157271804919718,145.9982012450916,15.53657041132574,18.950826115535044,37.78497164973594,37.78497164973572,50.80986348790882,86.87748534115089,67.98264499024812,67.01783582469511,77.04331823178848,87.6742289521045,31.72854821159956,4.453489626078408,18.244941371353207,15.433291238760035,15.818223017131759,17.497052746660522,16.59284038103391,51.14330022206093,47.98275919710227,59.2360865637816,400.00000000000006,398.41830307337773,392.9015243326695,374.3471371251985
212,3,567,0,18.91889999999976,2.2986987301618615,130.1964778838836,13.104599009185517,14.718853553655185,35.79628254611814,37.52586074390122,47.8328220360935,77.01498421686118,62.29855249786254,61.575037689303485,71.45440354591017,79.8063505272371,27.874108767729467,1.3782769648987596,15.191903560862102,14.163338661683952,16.576152276884766,19.774154167789842,18.041028331585835,49.25797302164432,48.95968920088279,61.53045878255797,399.99999999999983,397.45557979831386,390.1054966889031,371.10994215699407
213,3,568,0,18.95226666666642,1.707702835611851,133.47421094273506,15.463906877953205,17.162201095732865,36.02403078177858,37.72438865881121,50.57222904778083,82.8367903627451,65.69663981239235,65.72946744841408,75.91065139804664,82.40996064891272,28.798663404699596,3.6338502461738926,16.952631765190063,14.42334392864609,17.162201095732925,19.0926981289845,18.105218627412683,51.25809906717535,53.30714237779313,69.66088065761419,399.9999999999998,399.7812214968515,398.1292259115433,380.64539148896563
214,3,569,0,18.985633333333087,1.6441426298874093,130.05365664311194,13.557947453213522,18.160148910854474,33.04685786750281,34.68322677316595,46.764226015377076,80.00743346836244,61.912395141457004,60.90824156748704,69.60188740361502,77.22530273353675,26.755762655154285,6.468831680369249,13.301436291419463,12.985112003870881,16.767030705851695,16.76703070585164,15.795126091594511,52.910509163966026,48.460880852448895,68.38526616329614,399.9999999999999,398.29333999747445,392.9810439842055,372.39376882445873
215,3,570,0,19.01899999999976,3.2167709271970013,133.58316663806934,14.828581286109848,16.164073859983894,35.42101555241983,35.4210155524196,47.08478051540993,81.20355771124584,65.05516594403906,63.43209240893759,71.8124105338319,83.06075015292515,30.358312624768132,3.7528366360265863,15.93684284187998,14.87913278728172,14.564549823466173,16.402377728535463,15.458839259513468,51.37012967092261,47.72916621374776,64.83609083073884,400.0,391.68396677708733,384.4579592008547,362.0618222577754
216,3,571,0,19.05236666666642,1.5721006678156213,129.38111513090416,15.799416175430245,19.12543007209385,34.72883886277399,36.29476231765592,44.715141869229335,79.3716246485169,60.25474461665505,60.32494342583857,72.32180795335523,75.34732201373947,29.223259980598073,5.50002390447321,15.127570301920855,14.506438276279027,14.494051998267834,17.576619803545018,16.750528175371926,49.6605072759084,48.85904659766072,68.2552449330679,399.99999999999983,395.21059919298705,386.73995959605463,366.63666104827615
217,3,572,0,19.085733333333085,6.767218421594003,135.43949900833886,15.319942280357937,18.68659263716633,35.568154966185666,39.05834231733004,48.119872024805424,88.76736095716302,70.10279771042823,66.70532466209863,76.6632487264884,86.94033702371121,33.778214641493264,6.947141467998563,15.13902344404562,17.84128061536512,17.253089392225974,18.914950511591073,18.032779155064873,50.83222348253696,53.30042688311232,71.01550094069172,400.0000000000001,399.5561122670594,401.046911753593,383.5586331897162
218,3,573,0,19.11909999999975,8.636348246190655,146.98039683773717,14.243430415464829,19.078316849865633,39.87711643472377,40.06372071281471,47.429201686820726,89.16794309471658,70.14076038584497,65.61840127770608,79.00004085030957,85.82521444758106,35.173827711923536,6.583336737525997,14.10715015184087,20.717357651560633,19.311461755843357,21.365145623197186,19.239465730891766,52.612952375818395,54.54764725378533,68.76616027719633,399.99999999999994,397.81236235430146,395.54474967553176,380.66217328181324
219,3,574,0,19.152466666666417,8.448931673729213,136.1240425463476,15.276525413351822,13.663739713703249,38.14635611516694,40.07680182618466,45.49888950725091,82.26660703127823,68.65944232104302,64.59757967560472,76.4221167231226,83.37893747518706,34.51653373139686,2.264054090908644,13.131513727269635,18.750484334706357,16.89786334745856,18.892385559709744,17.65962190908681,48.96531529337699,48.32726368593899,73.58149024007996,400.00000000000017,396.5151236160218,392.70232273791447,375.0031459359654
220,3,575,0,19.185833333333083,9.745314049285891,138.21139883053826,14.707928668064149,14.974559354612081,37.39232962683233,39.116373608169575,44.332551280636785,83.61179088267652,68.69889616804146,63.84463408703766,73.34894537242303,81.15381026903094,32.96086761443837,6.315226703975895,11.854163082213631,17.686830935055013,17.94008531670492,19.759477048328332,18.02252404888776,48.61255904688335,48.864328882257894,69.44367316600159,400.0000000000002,399.8878655684042,396.32275105124177,372.5450005185636
221,3,576,0,19.21919999999975,10.09934969617309,137.96673589419092,15.034862973533592,18.562973925662867,39.88232375945106,39.98586956009415,45.922261332656355,88.99392495095253,70.44153330169362,65.53040178556319,75.03930112347314,82.9952006237753,33.38691677461463,9.89069996243802,10.375689944946657,17.722772233163596,16.932037349437422,18.56297392566281,17.59894500358689,53.524319984523515,50.81043986963448,72.08555149646659,399.99999999999994,397.03940454493016,395.17079332011343,375.7615470419384
222,3,577,0,19.25256666666641,13.600408018360923,136.9008430147214,15.275737453080282,13.910723413186167,38.83588389837518,40.6264856758814,46.65798475212351,88.75203139603661,74.91153816647258,68.29698679061914,79.2176369980931,86.85532852004246,36.61721589337844,5.660632408638094,10.114218200728601,20.44695346134938,16.95336632097479,18.860372491319968,17.887182188325482,53.04761768242196,54.16101413044447,65.50823978530335,400.0000000000004,398.5460458274941,396.43049391427184,381.87480692450526
223,3,578,0,19.28593333333308,11.423909559550916,140.7878090525386,14.894955735488006,14.629742437400138,37.19355484519919,40.51866023303263,45.95195732206851,86.36959165211645,71.74360729432242,66.2014806955059,78.67911287662946,86.66357066725413,36.80927051875051,3.6855275717288123,12.784333504707092,21.39241731995162,16.475796673289466,18.06278699597575,17.221279319215512,54.14300698994657,51.689396401278486,70.14317680897263,400.0000000000002,394.85103640001563,389.35928463123633,368.7817782917155
224,3,579,0,19.319299999999743,13.475871769304012,134.22900778495315,15.135860543401055,18.687671786847527,36.92411564110492,38.48027138270786,45.62242099894633,92.89859496354755,74.2255880124965,67.47075612108961,81.79122278093689,85.37258992325292,37.98450010998249,9.273540058455069,11.08423126727962,22.0384128897266,18.687671786847442,18.68767178684754,17.81680134208034,55.67125180723019,51.83978919408213,74.2255880124965,400.00000000000006,395.3739020809278,388.01295330228845,369.39623539630804
225,3,580,0,19.35266666666641,15.427925988026415,142.7848682297349,13.820435093015663,15.804272170047932,42.992268366587545,44.70123209263505,46.788936478187885,91.6423356958178,75.91084646329135,68.24452194558864,83.82558382090895,87.7089452526526,39.00820686137092,5.856786246512684,11.95165323475328,24.226038141627214,15.804272170048021,18.934112476021713,17.22646433481941,53.62636440347984,50.272071286687606,78.06734566596288,400.00000000000006,401.5690360112748,397.7013421009057,379.39935962519127
226,3,581,0,19.38603333333308,16.699605492135966,137.30285239165792,13.770847470044346,17.030322854740618,38.55403311912496,40.390957131750916,45.855547645743684,93.0694049663903,76.05199090962967,67.72983996013284,79.78538319947847,86.71759135148295,37.477250321775045,9.748417713756567,10.950722565119804,22.99543422922784,15.396275525400089,17.03032285474056,16.155294466742077,52.76060298189782,52.29484524668504,71.39935808730817,400.0000000000002,399.71056057654766,399.1345455826763,377.7803637590804
227,3,582,0,19.419399999999744,11.273746025020063,134.1489737226753,14.584016029443063,16.185677905079526,35.577884246407045,37.07730347102076,44.22378191934444,86.09963671614523,69.92393880585065,64.30278647448267,78.61664075824694,82.64225303456351,36.51077463267029,5.457507275867556,12.560929444456633,21.325553640994485,18.006330337866306,18.006330337866217,17.075730048022137,57.907668238055294,53.49478186933351,74.52097706917448,399.99999999999994,398.4406665241542,396.22110593562104,380.25345318632947
228,3,583,0,19.45276666666641,10.144896941544445,138.78951763861468,15.376455664896252,18.646691427645244,38.39588765842979,40.16620257826076,45.522375192195604,89.1616074876795,70.54267882880023,65.67845576996865,77.44908132177386,84.47876047076852,35.45492245205219,8.194480635892091,12.46541942118256,19.35205277354089,17.008399460166423,18.421572212193922,17.584415429389537,56.36004387478948,56.03308205390607,61.50582265958497,400.00000000000006,397.28919238629476,395.32744909302426,370.28779937064434
229,3,584,0,19.48613333333308,6.581910361506241,136.61428430978393,13.266264452665277,18.396998737673037,37.88173894145711,36.34978806280136,45.18326859939824,83.32033021481868,64.92863583328909,61.635371191076615,71.8791962532764,85.44972886042797,33.56120508001857,4.6046500774640435,15.791718437470195,19.290846800300756,16.780644685019624,18.396998737672934,17.450001009420305,50.559869242639024,51.92909338461618,63.06710124251726,399.99999999999994,397.0513899202791,391.6271233800639,373.81687413394155
230,3,585,0,19.51949999999974,5.1471815414760345,139.0691871309578,13.832634754888065,18.950826115535115,37.784971649735795,37.90165223106977,45.42628699633304,83.22603312839934,64.31116745807113,61.681604794722034,73.76272672679545,84.35859032247959,33.76793523557137,4.124016274235601,16.7614720848876,19.31346235359763,19.182413032120877,20.660091115299142,19.79834050465263,55.725259507552664,53.29576477174078,73.05452703997688,400.00000000000017,396.7820813631678,391.1895596936894,371.0773222851382
231,3,586,0,19.552866666666407,3.8273394032294417,140.39607475549056,13.799668466947617,19.136697016147348,39.40487091967655,41.221706918460946,46.999977209068334,83.02768672361987,63.906254011752154,62.2359298944308,77.86633064824525,87.84448465427045,36.03562367002132,0.07141828020667162,20.62968036828522,20.119549795379953,17.455353324303395,19.136697016147238,18.13514186677878,52.46182811756779,53.97181461336703,71.50060063189665,399.9999999999999,402.36606353818365,398.82639616494697,380.53840489089794
232,3,587,0,19.58623333333308,15.029296734946833,136.18712137891205,13.38099508793789,18.55610150242012,36.551281010606,39.86755844168043,45.574027062611776,92.02030418223953,73.49715524946377,66.1531475661626,76.72440526348942,85.97616621690884,35.91680326079688,10.647676427668785,11.238647942314742,22.11048597898707,20.19122138738133,20.191221387381443,19.24223630014609,55.39848491601492,52.423249014694875,70.66927485583498,399.99999999999994,395.359069910103,386.7120046053498,363.934305198209
233,3,588,0,19.61959999999974,16.105351464314218,129.20467396725945,16.185677905079576,19.393411288223152,33.85956243644904,35.577884246407365,48.98251421220715,100.48758491261124,81.10447761505712,73.07293867709666,84.35145886283851,87.39863800074079,37.00146096024116,14.602715608908056,7.974111640094748,20.677287007193513,19.59300568488291,18.006330337866224,17.788402889442125,59.99381263713974,59.756370106913494,76.30945985240024,400.00000000000006,395.22479990209075,391.4130587248284,372.20439396379095
234,3,589,0,19.652966666666405,17.018965440026076,131.05708469851632,13.72112859868769,17.10384858724175,34.2076971744835,37.480383476516124,52.068022127912805,99.64455293572763,82.55514032927557,73.93257762846918,80.17424733116809,89.692793627784,33.19007864410162,14.579500147220983,5.529079078307404,19.572835909380046,17.10384858724175,19.027781815309098,18.87064806782655,51.077663733753184,52.835734033346625,72.46562769812216,400.0000000000002,393.3737915756772,391.5286885726006,372.01138319304044
235,3,590,0,19.68633333333307,2.382556824937145,141.52668310031245,13.582663703477746,18.608363669794304,35.41925355390833,37.10215530576671,54.33065481391087,88.00959805227129,69.40155333211389,68.64894220282952,79.1306271197285,91.95850313721246,31.2266863149282,2.4629928220425654,19.3738507548303,17.251106425729517,18.83576555395096,20.838861349415627,19.6176108691767,59.42668454338741,56.7961066427315,74.81380183975222,399.9999999999998,396.51501085739176,390.88820072747546,372.56744313035796
236,3,591,0,19.719699999999737,0.0,151.36259370367475,16.483931444225576,25.484839871385496,38.27057682925544,40.047605512177256,56.89854427744725,98.71914509120596,73.38048132758107,73.35405338585053,88.89132804932319,94.54303632361564,34.84563690369464,7.00063516205887,20.312672769799974,18.22528225734368,21.91986497404764,23.942909557748163,23.81791344166072,60.82971031111191,58.60447325538013,82.41965722112754,400.00000000000017,391.8862286372231,384.20076902652823,373.18862859301066
