,frame_seq,video_id,gap,time_seconds,m1,m3,m4,m5,m6,m7,m8,m9,m10,m11,m12,m13,m14,m15,m16,m17,e1,e2,e3,b1,b2,b3,m_0_16,m_1_15,m_2_14,m_3_13,label_measures
0,0,3,0,0.0,0.0,182.71880788593583,27.158424219672725,29.627371876006464,44.44105781400981,46.910005470343776,42.04466355695799,98.78876327840214,69.17460867852805,69.13053437734857,76.53737734635013,79.0063250026841,35.79974101684127,20.98605507883792,11.110264453502396,8.641316797168543,19.75158125067093,19.90529237242139,19.75158125067105,71.59948203368253,74.06842969001639,83.98052052042794,400.00000000000006,402.5066233427797,392.5937320741164,375.3125285101606,{}
1,1,3,0,0.0333333333333333,2.4538030252794023,184.0515848557988,29.44563630335228,31.8994393286318,46.62225748030765,46.62225748030788,39.33745501078613,98.18278875790344,66.29810690672234,67.50110787459175,72.68387097920629,77.01535898451209,35.56577289905704,23.32243397076502,8.82571977959708,8.350007224101091,22.22013144703136,19.63042420223489,20.856239933062056,72.35838344123533,72.4585334529188,83.46538039755612,400.00000000000017,402.45361946043727,392.63915538446105,375.46393735416257,{}
2,2,3,0,0.0666666666666666,2.4683834758816614,182.6770547206229,29.62060171058108,32.088985186462736,46.89928604175339,46.96419857945215,39.571197415412655,98.7661890091632,66.69204898879967,67.90210611076054,73.17064299046808,77.4932237835693,35.81477448428996,23.42337621073284,8.88948137016041,8.413371021934836,22.21545128293598,19.74706780705409,19.746050231674303,72.75717874069312,72.86994171790445,86.42867708342787,400.0,402.5357552723213,392.6669800190208,377.9529583030444,{}
3,3,3,0,0.0999999999999999,0.0,181.58092045141856,29.44286643529388,29.544921737611663,44.16429965294082,46.61787185588194,36.88527811255177,95.6893159147051,66.29187043056815,66.25816066197672,70.6996970679163,74.08432396082776,35.576329143892735,23.296047182994585,8.700630098320744,8.47414948838616,22.218041261860467,22.218041261860392,22.069277212515544,71.74402432483697,73.01483219169205,85.87502710294052,400.0,400.0000000000002,390.1488415903938,377.9218077439499,{}
4,4,3,0,0.1333333333333332,2.4389790497400554,180.55035600017573,26.82876954714129,29.267748596881347,46.34060194506242,46.40474121720531,39.09980860443301,95.12018293986443,65.85243434298309,65.85243434298309,70.73039244246331,75.60835054194354,34.145706696361685,21.95081144766096,9.755916198960565,7.316937149220394,17.24618625243149,17.072853348180843,17.072853348180843,70.73039244246331,70.73039244246331,85.39910219093218,399.9999999999999,400.0000000000001,392.683201404205,375.6106923396532,{}
5,5,3,0,0.1666666666666665,0.0,188.8216518320359,27.32708413795968,29.81136451413772,49.68560752356302,49.68560752356302,37.34692318206182,94.43533653715248,64.6390467481771,64.59128978063188,72.04413090916637,74.52841128534442,36.022065454583185,21.11638319751421,8.694981316623512,8.694981316623512,19.874243009425182,19.874243009425182,19.8742430094253,72.04413090916626,74.5284112853443,81.98125241387902,400.00000000000006,402.4840899003971,395.0318273861274,380.1679576035152,{}
6,6,3,0,0.1999999999999998,0.0,181.6477307649297,26.99183327807301,29.44563630335231,46.68678658728819,49.07606050558718,39.33745501078605,95.7297718299607,66.29810690672241,66.27445684945167,72.69953778065803,79.47875703090745,36.80508958624148,19.62938111266192,12.496023543370027,9.561734614157672,19.63042420223476,17.17662117695557,17.175708473579334,67.46334977766696,67.5139409661017,85.91815306268379,400.0,399.97742005285687,390.1623973048282,375.46393735416245,{}
7,7,3,0,0.2333333333333331,2.453941549955577,186.5157014502186,31.90124014942271,31.901240149422595,46.62488944915616,49.07883099911173,34.44271096658742,95.73517606799912,63.84965404303402,65.05101190504945,72.69271526622663,77.03982932172926,40.48794910433003,20.85742832647304,11.266374393129126,10.793049653561525,19.63153239964472,19.78430927500121,19.618064863657764,67.44877538838534,67.53596678777944,85.92300340487213,399.99999999999983,400.00000000000006,390.18442316395607,377.93886672026025,{}
8,8,3,0,0.2666666666666664,0.0,185.38189917716943,29.26829268292676,29.26829268292688,46.34146341463409,48.78048780487816,36.58536585365862,95.12195121951224,65.85365853658539,65.85019510655582,74.68024975902085,79.02023412786696,40.26680021757954,18.26670654380337,13.664071824105008,10.74990364560017,19.512195121951287,19.512195121951287,19.51116892046105,69.48977853979568,69.55231433761764,85.40068975615397,400.0,402.439024390244,392.6829268292684,378.0566482265492,{}
9,9,3,0,0.2999999999999997,2.453987730061407,186.5192114420602,29.549925346729527,29.44785276073631,49.079754601227,49.14106599877489,39.340416053696735,95.70552147239268,66.25766871165638,67.48122009638405,77.60650142214081,81.94413724100855,40.48873205783036,15.925320077842798,16.197971472171503,13.24837911534155,17.352313648749618,19.63190184049068,19.63090039167525,67.46882685118737,67.56797281276135,85.92462036815506,400.0,402.4539877300613,395.0920245398776,382.82995115406135,{}
10,10,3,0,0.333333333333333,0.0,185.3990106799993,31.70201341730552,29.263397000589773,51.21094475103196,48.77232833431632,34.2276124713884,95.13729942786402,65.88778733839354,65.854283048203,72.69482479286069,78.5224161146349,41.45593397356504,19.50867481108935,12.317977364694343,12.05536058839118,19.66075410079508,19.66075410079513,20.715461426006183,66.45454996546738,65.25401613093868,87.82405414324143,399.99999999999983,402.438210982967,392.6475352942914,378.0170092996199,{}
11,11,3,0,0.3666666666666663,2.409594832831906,185.6013784543252,28.91513799398196,28.91513799398196,48.19189665663652,48.25209892452703,38.62874377211005,94.00508564593608,65.10366732096726,66.29319371574957,73.30998922893775,80.99741652568719,38.56753710832902,16.846518785203102,12.437735763642422,11.655332016154262,19.42677461125861,19.276758662654675,19.274454223837324,66.87689174958984,68.08154513857994,84.37023491024823,400.00000000000006,400.0217724596693,390.3841098696788,375.90451690279065,{}
12,12,3,0,0.3999999999999997,2.409638554216816,185.60474613640213,28.915662650602467,31.325301204819286,48.252974444580296,50.65974949790037,36.22481055029606,96.38554216867466,65.06024096385538,65.06920405581627,73.77573431791348,80.50745957049071,40.97409890821496,19.2388236462034,14.717886391704951,11.811569585241728,19.427127104333888,19.277108433734863,19.27608411808103,71.11782065730188,71.11782065730182,86.78044870057396,400.0,400.0,395.1880692822884,378.3439477993616,{}
13,13,3,0,0.433333333333333,0.0,186.8877528443705,28.742514970059915,31.13772455089816,47.96403447784636,50.35639770449993,38.39813063923682,98.23279834447838,67.10862623291925,67.06586826347302,76.64670658682633,81.43712574850292,40.71856287425146,19.16167664670661,16.76646706586814,11.976047904191546,16.936689369737774,16.93668936973766,16.766467065868255,69.46107784431143,71.85628742514967,86.36050959195182,400.0,402.4023381176394,395.2095808383235,378.450693473704,{}
14,14,3,0,0.4666666666666663,0.0,189.28218539047032,31.137724550898177,28.74251497005995,50.35639770449975,52.749019270767086,36.007895517060824,95.83831867661108,67.10862623291922,67.07732357805673,76.17652981347521,81.94224122723415,43.11937283201985,16.760071186676214,14.5007024742182,11.846252894008105,16.936689369737646,19.1616766467066,19.161422085982792,67.68229115680231,68.87988003717635,86.22754491017974,400.00000000000006,399.99999999999983,395.21683898252553,378.47343166665735,{}
15,15,3,0,0.4999999999999996,7.185628742514962,186.8417005820972,28.74251497005996,31.137724550898128,47.90419161676656,47.96403447784632,36.00789551706089,103.02185948554046,71.89619650205343,68.28427100157603,78.11385047362694,82.40555307552427,44.30909386009864,22.75331846869915,11.021043650481488,15.300588454639636,19.31079700191272,19.1616766467066,17.96314615949933,70.69759385278451,70.70975165052363,86.26080529518143,400.0000000000001,404.7904191616767,397.6120048403995,383.2634718844476,{}
16,16,3,0,0.533333333333333,11.834112355856377,189.40495901296927,26.035047182884195,30.768692125226607,49.7595929006485,52.123858029409625,35.581143684110685,104.16708096922956,73.40966123651401,67.47507890619192,77.18337587122016,83.84877378750832,44.991435934944775,23.64284260886257,9.7324469574786,16.325394896415787,19.0819328070478,18.934579769370227,18.93359408105033,67.47507890619187,72.20847742645452,85.23847515778075,400.00000000000006,399.992997627946,395.2593526856034,381.08781824576994,{}
17,17,3,0,0.5666666666666663,23.786687860641123,191.7744085108133,26.035502958580032,28.402366863905296,52.07100591716007,54.48929909217212,35.58176657603043,113.60946745562129,85.207100591716,73.3810593084113,79.52244468883725,86.22213783112045,47.34692563051817,30.73120115264601,0.2791538809284475,21.0457751969542,19.51765976623749,16.568047337278134,16.5671759768411,69.87343010891897,69.8612929836612,82.87404213023217,400.0,400.00000000000017,395.2662721893492,378.7278094952827,{}
18,18,3,0,0.5999999999999996,25.989084746322952,195.3508067970617,25.882352941176464,28.235294117647072,54.16877380339465,54.16877380339465,37.72051656913268,117.6470588235294,89.41176470588232,76.47058823529403,80.0,84.70588235294122,44.70588235294122,35.29411764705878,4.705882352941103,18.82352941176476,18.97001823129077,18.970018231290684,18.823529411764696,68.23529411764707,70.58823529411757,84.73855578997231,400.0,402.3529411764705,395.3011203861515,381.1837326831823,{}
19,19,3,0,0.633333333333333,30.587706099627887,197.76964748406155,25.88190516122376,30.587706099628,54.16783665169778,54.16783665169778,37.71986398197533,124.72592006676268,94.1454254298778,78.83319528442576,79.50285815092684,87.5750105417253,45.880955853528576,41.17521679162837,8.090251387190278,19.86666503953564,18.969690038800334,16.470303284415092,17.640488483329136,71.20145180583108,67.62991651782448,84.70441689127735,400.00000000000017,402.3528600006818,395.2942814439023,381.1771379800566,{}
20,20,3,0,0.6666666666666663,30.23255813953493,197.72913059534875,25.68688608648204,30.23255813953482,53.53890434056423,53.53890434056423,37.28190591135202,123.3435405225685,93.13946230000369,77.95078463385698,78.08264048976537,84.77132845311951,44.19568552130261,41.8702276989178,9.026132681730587,18.32796397126981,16.44434374852439,18.74943662395012,18.579688787094938,68.6849140322928,66.21561345800791,86.04651162790708,400.0,400.0,395.3488372093025,379.06976744186073,{}
21,21,3,0,0.6999999999999996,32.831973912557046,201.2239828547984,28.167472698929352,30.40935672514629,53.801169590643006,56.18906268755217,35.165605563445524,126.33744670307166,95.93495510835028,79.56382542239783,76.21037785322233,82.94114094580243,44.46599872864158,46.757322334626565,11.408882121465922,18.44992861902301,18.713450292397656,18.71345029239772,18.712476115542245,71.38905109896257,68.97838772183286,86.58131238980923,400.00000000000006,404.6783625730994,395.3216374269008,383.6328625781282,{}
22,22,3,0,0.733333333333333,32.45187137742729,201.1659963866624,27.74520122674553,32.36940143120301,53.17830235126216,55.53855031717283,37.06578434163606,129.5601544139276,97.21824195417338,80.95509637547605,77.60093434748944,81.9972824341719,42.78353458197876,49.71946248985103,14.752323348091068,17.064299317381597,18.640746964035948,18.49680081783029,18.495807754325995,70.60511068911751,70.49729833821789,85.54770378246505,400.00000000000017,400.0,395.3758779499382,381.5035231673596,{}
23,23,3,0,0.7666666666666663,34.95879109022021,204.69017266061235,23.254241924287808,30.230514501573992,51.15933223343277,55.85860594680964,37.2793857568278,125.65900369738875,95.45575981534648,77.9465141399478,72.85047465290017,80.68126819091651,39.52743630497207,48.86415167722225,15.878439820162384,15.878439820162498,16.277969347001342,16.277969347001456,17.420503778418038,71.63368981083909,70.30847859671337,86.04069511986437,400.00000000000017,402.3051061132069,395.3289521366455,381.376657200324,{}
24,24,3,0,0.7999999999999996,34.88313137444898,202.3355267148234,25.580963007929288,30.23204719118919,53.53799950100434,55.86143798280583,37.28127582480555,127.92595458446304,97.70044895085468,80.25083303487884,75.71328314710547,80.11369289372408,40.68292100430779,50.00845060283302,17.166368103679133,14.840948318880578,18.60433673303955,16.278794641409544,17.440648385988652,73.32823721397887,70.91934082152096,88.37059948193779,399.9999999999998,404.65100648064623,399.9999999999998,383.7214921514764,{}
25,25,3,0,0.8333333333333329,34.482189161308646,199.9966971355909,23.10278081434114,29.88456393980082,52.87269004733995,55.21937381908116,39.07981438281647,126.45559016108008,96.57749259104092,79.31988129934916,75.34763407157936,76.38387247882372,36.78646345717255,50.57915398118257,18.2532799896768,13.65571648167338,18.53361978293717,18.390500886031308,17.24086315501279,69.57090272084974,70.67860584583497,85.08712596230342,399.99999999999983,400.00000000000006,393.1036780557532,379.3319441462675,{}
26,26,3,0,0.8666666666666663,32.45187137742735,203.51734994187555,25.43310112451672,32.369401431202945,53.17830235126207,55.49040245349092,36.99360163566054,127.18652297759364,94.82429634194888,78.61914375928279,70.62256266750194,77.34398105165167,36.99163592978846,53.19931146603574,18.23363497827836,13.58584567008984,18.496800817830326,16.34901661068086,17.32791193360572,70.57489303357181,70.50338858267656,87.89022098925234,400.0000000000001,399.99331768558005,395.375877949938,379.19146578567785,{}
27,27,3,0,0.8999999999999996,34.7584860932716,203.5173499418756,25.43310112451673,30.057301328974223,53.1783023512621,55.538550317172536,37.065784341636,127.24955421445743,97.2182419541734,79.78435226434112,71.15901688441227,76.83736267619884,36.99310507391681,53.18956817622734,18.364776579764907,13.728658813053244,18.496800817830337,16.18470071560154,17.340518003398472,72.28510233679197,73.38722852422723,87.8902209892521,400.00000000000006,400.0200462734941,393.0638176144869,379.2126120599619,{}
28,28,3,0,0.9333333333333328,32.45241352050449,205.79333595428085,25.43352601156068,30.057803468208142,53.17919075144514,55.53947814781192,37.06640356504365,124.94109675011602,94.910408100688,78.64457730498202,72.92475274214837,77.38019503319788,38.13617766419827,49.74441109276995,17.087223272970277,14.727043032306485,18.49710982658959,16.349289738417305,17.3280579914055,70.58865597332806,70.49232208595384,83.23699421965306,400.00000000000017,400.0066824260553,395.3824831251091,379.1907514450869,"{'neutral': (['m1', 'm3', 'm12', 'e1', 'e2'], 4.264965464790841, 6)}"
29,29,3,0,0.9666666666666662,34.88313137444903,204.66091694423469,25.580963007929363,28.003235043324363,53.48746810748848,55.86143798280573,37.28127582480551,125.66537461939234,97.70044895085478,80.25107277677353,73.37171730783177,77.82876451306174,38.36936289719563,50.02066564564984,17.174165589717177,14.848749656553537,16.44406582926278,18.60433673303945,17.44061949872537,73.32327114255776,73.27482497728334,86.0764778979792,400.0,404.644323943609,395.3489953476036,383.7144451189394,"{'neutral': (['m1', 'm3', 'm12', 'e1', 'e2'], 4.264965464790841, 6)}"
30,30,3,0,0.9999999999999996,34.67976353337057,203.50715104185616,23.119842355580417,30.14458637848111,53.17563741783495,53.22587421450704,37.0639268575997,124.93274842077692,94.81954439565013,77.47127074573677,70.63750809240196,77.36945307254939,36.98976174145105,50.884879494068855,15.91949266657673,13.58367545816236,18.63981281707184,16.1838896489063,17.338950816305214,70.55365824389474,70.49376549496105,85.57465404249314,400.00000000000006,402.2919005651013,393.0441199396778,381.47739886707626,"{'neutral': (['m1', 'm3', 'm12', 'e1', 'e2'], 4.264965464790841, 6)}"
31,31,3,0,1.0333333333333328,32.640538689315136,206.98631058595345,23.2554209162994,30.232047191189192,55.813010199118445,55.81301019911867,39.60255478859079,125.66537461939234,95.46059943035752,79.10047635151045,73.34749422519474,77.82876451306186,36.03183542271381,50.03277718696825,17.16205404839843,14.812415032597984,16.44406582926275,18.604336733039503,17.44061949872537,73.32327114255781,70.9251859614829,86.07647789797922,400.00000000000017,402.32550301575503,395.3489953476034,381.3959930287605,"{'neutral': (['m1', 'm3', 'm12', 'e1', 'e2'], 4.264965464790841, 6)}"
32,32,3,0,1.066666666666666,32.36940143120293,203.51734994187555,25.43310112451673,30.146097095038304,55.49040245349094,57.84872607574604,37.06578434163609,124.9390095108848,94.82429634194892,78.62243113876355,71.15360280733671,76.84298581506857,36.99309462048666,50.87761017339847,18.36339153772201,13.72714963993178,18.64074696403588,18.49680081783032,18.496547310243383,69.97941099510263,71.09307745619071,83.26770998950373,400.0000000000002,400.0,395.3691174811224,379.1914657856779,"{'neutral': (['m1', 'm3', 'm12', 'e1', 'e2'], 4.264965464790841, 6)}"
33,33,3,0,1.0999999999999992,34.883720930232585,204.7040100899106,23.25581395348836,30.232558139534937,55.813953488372,58.13953488372083,37.28190591135207,125.6029266641003,95.37719374144127,77.91798048873034,71.57392779758106,77.28538264203462,37.20880286850684,51.16210394419693,16.13425746144128,13.808707282159617,16.27906976744194,16.444343748524314,16.272826513574728,70.36897951816059,69.17608072153416,88.40268748254962,400.0,402.3255813953489,393.0232558139536,381.3953488372092,"{'neutral': (['m1', 'm3', 'm12', 'e1', 'e2'], 4.264965464790841, 6)}"
34,34,3,0,1.1333333333333324,34.88372093023247,207.0289978461028,23.25581395348847,30.23255813953494,53.48837209302341,58.18602792184564,37.498873247900185,125.6674984754074,95.46221279894782,77.9300299715245,69.2483776182994,74.97188194554712,34.877227947828146,53.49367886487562,18.47788186491414,13.814732023556758,18.604651162790702,18.604651162790702,18.604401434253475,72.71862866303076,71.50163090081588,83.75322374590287,400.0,400.0,393.0232558139536,379.0697674418604,"{'neutral': (['m1', 'm3', 'm12', 'e1', 'e2'], 4.264965464790841, 6)}"
35,35,3,0,1.1666666666666656,34.95879109022011,202.3653557078213,23.25424192428773,30.23051450157402,53.48475642586186,55.85860594680959,37.20678707886032,125.59443625095876,95.37074650489474,77.90171044636372,69.76272577286306,74.41357415772063,34.88136288643159,53.48475642586163,20.928817731858885,11.627120962143865,18.60339353943016,18.6033935394301,18.603393539430044,72.08814996529185,72.08814996529185,83.74756225782757,399.99999999999983,399.979720994672,390.67818517206575,379.0512765018154,"{'neutral': (['m1', 'm3', 'm12', 'e1', 'e2'], 4.264965464790841, 6)}"
36,36,3,0,1.1999999999999988,34.68150153343174,201.2058535999554,23.121001022287945,27.7452012267454,55.49040245349079,55.49040245349079,37.06578434163603,122.5631157423026,94.82429634194888,77.4553534246644,69.3630030668636,73.98720327132116,34.681501533431856,50.86620224903322,18.496800817830263,13.872600613372695,18.64074696403586,18.64074696403586,18.49680081783021,71.67510316909244,69.36300306686354,85.54770378246508,400.00000000000006,400.00000000000006,390.7517577496362,379.1914657856779,"{'neutral': (['m1', 'm3', 'm12', 'e1', 'e2'], 4.264965464790841, 6)}"
37,37,3,0,1.233333333333332,32.636126464133405,202.30817575978463,25.57750506962043,30.22796053682407,53.48023787284251,55.85388684384605,34.87841600402771,123.25900403963392,93.03817015070234,76.73251520886106,69.75683200805554,72.08205974165742,36.041029870828766,52.31762400604168,19.76443573561573,12.788752534810214,18.7465853117903,16.44184298232898,17.439208002013856,72.08205974165742,69.75683200805554,83.7081984096667,399.9999999999998,397.6411371619356,390.6659395469525,379.0406499049992,"{'neutral': (['m1', 'm3', 'm12', 'e1', 'e2'], 4.264965464790841, 6)}"
38,38,3,0,1.2666666666666653,34.961154368309025,202.33894636424384,23.25581395348836,30.23255813953494,53.538904340564365,55.86238209053168,34.883720930232585,123.27775144835884,93.05232104066302,75.57435608525736,70.28463313860118,71.5618783147869,36.040003037468864,52.31885429244062,17.58019539674592,12.929095038182597,18.604651162790702,16.279069767441882,16.278851254971755,71.47753193522749,70.34488055257214,86.07793266661267,400.0,400.0,393.0301361720583,379.06976744186056,"{'neutral': (['m1', 'm3', 'm12', 'e1', 'e2'], 4.264965464790841, 6)}"
39,39,3,0,1.2999999999999985,35.087119338952704,201.179750075656,23.391412892635213,30.40883676042578,53.85107654172581,56.18810191976817,35.16500427238787,123.99655373798136,93.59488626944838,76.00887794412051,70.68496711520868,71.97635051993336,36.256198230758514,52.62996517368174,17.68951607226529,12.999114083406994,18.858759983729925,16.37398902484465,17.543321724560656,69.56414378280624,70.77024715136974,86.54822770275018,399.9999999999998,399.9931604640623,392.97573659627136,378.9408888606902,"{'neutral': (['m1', 'm3', 'm12', 'e1', 'e2'], 4.264965464790841, 6)}"
40,40,3,0,1.3333333333333317,39.53488372093018,200.01352036506543,23.255813953488488,30.232558139534834,53.488372093023095,55.81395348837211,34.96115436830907,127.92811664627968,97.70210017488378,77.91819076565798,71.56292104114755,74.94665613164193,38.359251434968655,54.66270232553256,19.631815770486696,17.29396243523604,11.627906976744246,11.627906976744187,10.46496979805636,68.05614103827145,66.86260538816964,83.72093023255816,400.00000000000006,399.99999999999983,388.3790557793904,374.4258268839776,"{'neutral': (['m1', 'm3', 'm12', 'e1', 'e2'], 4.264965464790841, 6)}"
41,41,3,0,1.366666666666665,54.11390228166388,195.33728911328976,23.527783600723367,35.29167540108511,56.51567560161889,58.86649576182589,40.06637172706263,152.94869062900133,117.66244343490986,90.60797572022956,83.15011720217171,90.97085809778594,47.030807449866415,65.88817789737163,27.798041439371445,23.05554416027121,6.654662132144757,4.705556720144719,4.686187944652147,72.48888321327013,71.162485557374,87.08458782084142,400.00000000000006,400.00000000000006,390.5895534706176,371.7687617030851,"{'neutral': (['m1', 'm3', 'm12', 'e1', 'e2'], 4.264965464790841, 6)}"
42,42,3,0,1.399999999999998,73.40966123651393,196.50328869770783,23.78627145254537,35.50233706756917,54.436916836939496,59.17056177928196,40.23598200991176,172.7780403955033,137.27570332793414,100.5959958279185,90.699648018454,98.58382280783565,54.410930187713575,78.11407526076573,39.7942016456019,32.65668225360969,7.48454982616931,7.1004674135139245,7.080571098971063,68.1607791582802,64.40219181888006,87.57243143333721,400.0,397.62617515677465,388.1661011271863,369.2318913942504,"{'neutral': (['m1', 'm3', 'm12', 'e1', 'e2'], 4.264965464790841, 6)}"
43,43,3,0,1.4333333333333311,87.56783272525841,196.45020578699985,21.3002836358736,37.86717090821986,56.8007563623299,61.534152725857474,40.30341774879028,186.98413486177168,149.1207675870409,105.3290165736247,101.25859931058892,104.65371142648485,62.71044678302621,84.02282940835823,43.6284297812756,41.261764036253226,9.758146587369126,9.75814658736918,9.45427205995827,66.88618686717558,65.65948577420602,89.9345309070222,399.99999999999983,397.6123382185068,388.1457172854229,366.8382181733799,"{'neutral': (['m1', 'm3', 'm12', 'e1', 'e2'], 4.264965464790841, 6)}"
44,44,3,0,1.4666666666666646,86.0406951198645,190.6847837791593,23.25424192428773,37.20678707886032,55.81018061829059,60.50573217302838,39.60054703754197,186.0484687278182,148.8453145832314,105.80680075550912,104.64408865929464,104.64408865929464,65.1118773880055,81.38984673500704,41.85763546371789,44.18305965614661,13.952545154572704,14.14500314475474,13.952545154572649,67.43730158043434,62.78645319557677,88.39671170348598,400.00000000000006,395.3494696979908,381.39792533562326,360.4482511167659,"{'neutral': (['m1', 'm3', 'm12', 'e1', 'e2'], 4.264965464790841, 6)}"
45,45,3,0,1.4999999999999978,91.76311829888378,192.93783847457613,23.529004692021623,35.29350703803221,54.11671079164955,61.17541219925586,40.06845117061286,190.599461528962,155.30925494799942,109.4282486868259,104.88557978219058,106.86432533427605,65.85361721513823,84.72409308990473,46.79009299382665,44.389054183674034,16.470303284415035,16.470303284415092,16.469437064614112,71.83811595803098,64.64706504923242,91.79327873299292,400.0,399.9930797643653,388.2357073543048,367.05247319553536,"{'neutral': (['m1', 'm3', 'm12', 'e1', 'e2'], 4.264965464790841, 6)}"
46,46,3,0,1.533333333333331,88.37209302325583,193.02325581395343,20.93023255813961,34.96115436830899,53.48837209302329,58.139534883721005,39.60322410680553,183.77979628028223,148.8553767981885,104.66957579929874,101.3372187136132,103.32704344823104,62.77537430839743,81.42698447144255,43.90800001750256,41.55856840313413,18.74943662395012,16.279069767441896,16.266217860701886,68.66094024030957,61.56469781323841,88.4026874825498,400.0,397.6744186046511,383.7209302325583,365.1236853048276,"{'neutral': (['m1', 'm3', 'm12', 'e1', 'e2'], 4.264965464790841, 6)}"
47,47,3,0,1.5666666666666642,77.1916625456962,194.14872700887213,21.05227160337172,32.83141252389351,53.80024965306088,58.47853223158808,39.83414077935964,170.82138815756002,138.0291578743435,99.43240594713382,99.58389660157218,101.59569249251308,60.80228906536309,70.20682889289367,34.806492763747656,41.79930137262056,21.18182526680048,21.052271603371665,19.88163348848468,64.41382626717245,61.94149878673909,86.54822770275038,400.00000000000006,397.6608989426067,385.958312728481,367.2526318333703,"{'neutral': (['m1', 'm3', 'm12', 'e1', 'e2'], 4.264965464790841, 6)}"
48,48,3,0,1.5999999999999974,65.10637654085183,195.3191296225556,20.927049602416773,32.636126464133326,53.4802378728424,58.13069334004631,37.27623628224262,155.8596524791091,123.259004039634,90.70899364335504,91.48797165720327,94.50800949550752,55.76284151440484,62.84554930185664,27.53986885882284,34.40685965782427,18.746585311790284,16.276594135212985,16.27464835086215,71.61804016550246,67.95085136184736,88.35865387687032,400.0000000000001,399.99999999999983,388.4244036950667,369.8939653952094,"{'neutral': (['m1', 'm3', 'm12', 'e1', 'e2'], 4.264965464790841, 6)}"
49,49,3,0,1.6333333333333306,53.78645624962621,191.7604092377977,21.176394632867176,32.73958206498973,53.7864562496261,58.463539401767534,37.48967341380672,145.06499492705765,112.34739262906804,85.44926527375912,86.41222743823062,91.37844740594517,51.43065849491563,56.16673656168689,20.373614599257508,29.664079758372168,18.85392494139437,18.70833260856564,18.702057634514745,66.20819108177307,62.61070978808709,86.52603831461595,400.00000000000006,400.0615190071736,390.7114445314546,374.34930614956806,"{'neutral': (['m1', 'm3', 'm12', 'e1', 'e2'], 4.264965464790841, 6)}"
50,50,3,0,1.666666666666664,46.56264907903746,188.4008507042234,20.92704960241664,32.63612646413339,51.20782895572648,53.48023787284279,35.187080569471384,135.18354916303934,102.54755192349202,79.21594224261105,82.70750452638231,84.85155134900685,48.7561038630904,51.33135563328176,15.469477493964064,29.244079985686085,21.05583266164315,20.92704960241664,20.95536266023253,62.53669531241746,60.871765098200456,86.06484240363405,400.00000000000006,397.7227101531855,383.8386892397384,370.06932600812365,"{'neutral': (['m1', 'm3', 'm12', 'e1', 'e2'], 4.264965464790841, 6)}"
51,51,3,0,1.699999999999997,39.8103232458221,187.1508658711048,18.84748399937065,32.72839745750814,49.1482252082864,53.81887803570893,37.69496799874141,128.91543400450067,96.30251433108612,76.33464778054963,81.0490146740459,85.47766236187567,45.6436431052133,45.64364310521319,11.404958292851916,25.262339767674234,18.847483999370635,18.70194140429036,19.905104661428368,63.42966365794888,58.19147822073097,86.52806434517277,400.00000000000006,395.32742409858713,386.0745047830817,369.725663101997,"{'neutral': (['m1', 'm3', 'm12', 'e1', 'e2'], 4.264965464790841, 6)}"
52,52,3,0,1.7333333333333305,37.23097217453744,176.74701648831015,21.03026480467919,30.280446564178565,46.67974743031966,51.30358643199755,37.44764309498392,125.94627498811184,95.67065253750827,77.03789009287334,79.40709315793424,83.75162673819705,44.17340324327586,44.35243622048449,9.966169064613725,25.99558829069304,18.72382154749189,18.579233889110824,18.613461863790462,69.8706032386213,63.007672445623655,88.28191363507939,400.00000000000006,397.8096103599363,384.04730311490704,365.51130867677,"{'neutral': (['m1', 'm3', 'm12', 'e1', 'e2'], 4.264965464790841, 6)}"
53,53,3,0,1.7666666666666635,35.027875279899334,173.05645373127325,21.14606008200868,30.714651159484323,42.09826679741147,46.93677197801624,40.31165863309432,126.87636049205229,96.19742715712258,78.7307639076746,82.32923663081021,87.15107072748287,44.60196539422122,42.08363124967195,7.39984440578462,24.073364784625028,21.52940355916959,18.68153348261297,18.714445206887603,65.97796754060886,60.65485366160874,86.5282268656364,400.0000000000001,397.668814479258,383.68272454473697,367.3680334602512,"{'neutral': (['m1', 'm3', 'm12', 'e1', 'e2'], 4.264965464790841, 6)}"
54,54,3,0,1.7999999999999967,30.465870320630017,170.82954464014327,21.15904463264488,30.465870320630017,42.12411686474292,46.79089095689289,42.63941574157016,124.63220074776638,94.19238880171096,78.87635470486293,82.53748515456357,87.24293806040839,42.3970909781732,39.68425333347682,7.4903127888957215,21.8467456342795,18.83847776034212,18.83847776034224,19.98617114344802,65.87634068182734,60.64272469471416,86.58135875587183,399.99999999999983,400.2456164521552,386.11633160507694,369.7853031810878,"{'neutral': (['m1', 'm3', 'm12', 'e1', 'e2'], 4.264965464790841, 6)}"
55,55,3,0,1.83333333333333,25.79303520876648,168.39306718964565,21.14606008200868,28.119431538469858,42.09826679741147,44.430051935746285,46.93677197801635,121.99002027010026,93.8735439560327,80.96265246232258,82.32923663081021,86.76914327428108,37.61985414037599,37.42889041377521,5.263437714437146,16.90028980417901,21.146060082008788,18.68153348261289,18.61896334358704,72.96007879445398,67.25503746225206,86.52822686563685,400.0000000000001,397.8127719589834,383.8319275912621,365.037594479792,"{'neutral': (['m1', 'm3', 'm12', 'e1', 'e2'], 4.264965464790841, 6)}"
56,56,3,0,1.8666666666666631,14.296561076380884,167.13876882126394,18.94904818952789,23.620626304532376,42.56647076149671,44.71827137821792,49.58048005223056,106.41617690374169,82.79738348390083,75.63964801843258,80.37641233607928,85.35684959854848,33.288101559773736,23.517410796647937,1.9196673457965967,14.875936119284574,19.38140149558752,18.949048189527776,20.004954445670137,66.70695445579372,60.54975516710857,84.74271972140727,400.00000000000006,400.00000000000006,385.8067448328424,369.3699963073284,"{'neutral': (['m1', 'm3', 'm12', 'e1', 'e2'], 4.264965464790841, 6)}"
57,57,3,0,1.8999999999999964,5.165872295507076,166.5943757646901,20.79223490850598,23.21770830173475,43.95547210439776,44.13723224064451,51.03505353746921,99.76956570974303,76.55258030620388,74.15252095010567,81.41586007005833,85.87830371238226,32.61381683272896,16.117017197542168,8.806205272883858,12.29545641874347,20.920188331016405,16.1717382621713,17.268232711652388,67.81490152191157,61.69090971489254,90.21808108640766,399.99999999999983,397.6044082518934,383.67514668879727,365.2019621346172,"{'neutral': (['m1', 'm3', 'm12', 'e1', 'e2'], 4.264965464790841, 6)}"
58,58,3,0,1.9333333333333296,5.166992753669141,168.93774974973945,20.924725840739228,25.52306142377608,39.553658582046296,44.14680543937744,48.58072424219172,99.79120535118824,74.26821928969719,71.86447856849304,78.78841582699204,84.15608220041725,32.92834284003766,18.317014681305068,9.002880252145133,12.51476700412354,19.05492776118507,18.62985731330492,18.516687172220145,68.13530116463653,61.18200030453215,87.93001176008953,400.00000000000006,397.77790931959305,386.1441335051986,365.36156144611897,{}
59,59,3,0,1.9666666666666628,16.512298760648914,173.0564537312733,23.35191685326616,23.46838598900817,44.4300519357464,46.76217705683359,49.53689628194674,112.69568298125718,89.22754901116073,80.96849621183799,84.31069055663829,89.86133134128863,37.62625859552452,25.59199697944177,2.2084464398502632,14.67967339429913,19.256483949331567,18.68153348261293,19.876017958652767,73.45741634154496,69.0641432098642,86.90553197005185,400.0,399.9999999999998,385.8793857908324,367.226990735315,{}
60,60,3,0,1.999999999999996,46.993014346797295,181.0603704137868,21.27699218561337,28.29354133997509,49.34266506413721,54.04196649881679,44.8900139243234,141.2919824777068,113.00329948924352,89.56431514919211,87.21048791272528,94.8307063903776,46.1433354461891,50.2565891018329,17.719088363401966,22.7833833267091,21.27699218561337,18.79720573871901,18.735513760967308,65.90716262106719,60.93797178852634,91.75679376798772,400.0,400.00000000000017,388.2686724722903,366.914341998093,"{'happy': (['m1', 'm3', 'm12', 'e1', 'e2'], 4.8079170225989545, 14)}"
61,61,3,0,2.033333333333329,56.07901413765001,187.0614361396625,25.8088731932622,32.79610298903979,53.79316077393256,56.12767272740077,40.33641164952915,154.65919845787874,121.8634812825203,93.89437608340496,92.02987472533324,98.42415822897648,55.10438148326614,59.43098078853518,22.463655785229207,29.79018996790819,18.83847776034207,18.838477760342208,18.81234062567205,64.46872003486334,61.88710276984108,86.58135875587173,399.99999999999983,397.782627319883,385.9961199373932,369.6597807759041,"{'happy': (['m1', 'm3', 'm12', 'e1', 'e2'], 4.8079170225989545, 14)}"
62,62,3,0,2.0666666666666624,60.399819158208594,190.6191802611488,25.65914646058616,35.154427645099034,53.48108693240196,58.12319202023081,35.53613728905932,156.26854989726516,121.15650656307652,91.055394392862,85.62136722359412,94.17405346392012,54.60015994859998,66.36601008031892,26.86299518025021,29.17836327845987,18.72918884631147,18.72918884631147,18.71195442634837,70.21708150897399,64.83030674987373,90.62950679193378,400.0000000000001,395.3589364274694,385.9723250776537,369.72590889254985,"{'happy': (['m1', 'm3', 'm12', 'e1', 'e2'], 4.8079170225989545, 14)}"
63,63,3,0,2.099999999999996,65.06877690020039,192.885423984744,23.22404236138864,34.913391192264186,53.61686530754142,58.06010590347157,37.806001911726575,160.66606683698652,125.7534179672934,93.24929559094574,87.761969350904,96.42183966977076,54.49138209463342,68.56807767401244,29.08752913752346,31.4023112987403,19.151035941964807,18.579233889110995,18.6122585957736,72.65125940509296,64.6728985550107,90.69278466313888,400.0,395.4911903507285,386.2179890618822,369.9918685701391,"{'happy': (['m1', 'm3', 'm12', 'e1', 'e2'], 4.8079170225989545, 14)}"
64,64,3,0,2.133333333333329,64.7120064868144,189.5196932598239,23.096705540435607,34.72196197533766,51.02229020035638,55.48019056708954,37.59871258536941,159.7851389663049,125.06391524340296,92.73469819535558,87.86324795586688,95.48042469397636,54.29452721466373,68.11173153030416,29.140129614395505,31.44299700033548,18.62115932035486,18.477364432348548,18.422939087520376,69.4403088683465,62.53170671052629,90.1067579031928,400.00000000000006,397.69280929690615,386.0536777053369,367.7021636310188,"{'happy': (['m1', 'm3', 'm12', 'e1', 'e2'], 4.8079170225989545, 14)}"
65,65,3,0,2.166666666666662,43.8947181401792,184.9497716675959,23.21770830173479,30.12195285001562,48.73474176642729,53.18591051011201,39.881069441275415,136.79323479371786,106.67244852788812,84.79733263869309,85.48808581830224,93.69446974699304,49.88182576511304,47.20146727329609,12.699231532815476,27.08106696467894,16.81886166418415,16.17173826217137,17.26882949023036,74.29434198463525,66.53665242902395,88.06259335413303,400.0,397.6916515045661,386.0603984649632,369.8201758140326,"{'happy': (['m1', 'm3', 'm12', 'e1', 'e2'], 4.8079170225989545, 14)}"
66,66,3,0,2.199999999999996,25.546446597527467,181.2814657646106,23.3398737151599,25.65179321599864,48.82575298679774,51.145647874255445,40.0909130344851,114.38872341198092,88.7389412637551,75.98501048581227,79.37386005133578,87.24358776391796,43.39033130217706,31.05753025636613,3.507548324386221,20.46960096583348,19.151035941964835,18.57923388911092,18.5170063825459,72.3706332784501,66.88675061900364,83.896350778962,400.0000000000002,399.8853703945512,390.3366713576543,376.4086414566259,"{'happy': (['m1', 'm3', 'm12', 'e1', 'e2'], 4.8079170225989545, 14)}"
67,67,3,0,2.2333333333333285,7.303819595400709,171.1651329875389,25.51114510017805,27.812116422367207,46.423803587806425,46.25111680116043,35.33116567511642,95.70512286772698,67.96870314398369,64.15099796147797,77.04696935688298,81.7449552932784,44.30200738020778,16.11409176183588,13.577179356182455,19.21476247985686,19.04603130940096,18.47736443234849,18.41610487066964,72.11408412366802,66.57046071872156,90.34325898687926,400.0,399.89996415225744,388.2720389208857,372.0362382321516,"{'happy': (['m1', 'm3', 'm12', 'e1', 'e2'], 4.8079170225989545, 14)}"
68,68,3,0,2.2666666666666617,13.968605915391612,177.06312815307246,27.65261481542964,29.941714419183164,45.9858681109705,50.57350720338036,32.879797461071455,104.25363321991112,74.37722094422212,67.21833474527045,76.38500480569587,81.69017108906633,46.43194207303827,25.082168910536552,6.737091696138577,19.19014794980228,16.238174542072134,16.23817454207222,17.07160256451823,71.56105935776395,68.23946188388368,87.38491819992088,400.00000000000017,400.00000000000017,390.6352684873152,374.5707277128414,"{'happy': (['m1', 'm3', 'm12', 'e1', 'e2'], 4.8079170225989545, 14)}"
69,69,3,0,2.299999999999995,32.5860630100189,183.6461623604951,25.538269462023944,30.53668094112188,51.28716472041133,53.59970314092786,33.241124765726696,121.52735934844532,91.01976578251946,74.69659379929988,81.94244094861938,86.6785203404321,51.37051699423751,37.1268468033993,4.730174055912585,26.27283941917028,18.71782825893981,18.71782825893981,18.60771342094978,74.20645091959864,67.5334213525806,88.34522085987737,400.0,400.14146534962345,388.41184970497625,374.5077171229068,"{'happy': (['m1', 'm3', 'm12', 'e1', 'e2'], 4.8079170225989545, 14)}"
70,70,3,0,2.333333333333328,43.680223440600585,188.3800349985616,25.357736307837904,32.22282992726233,52.85286094654556,57.44043664440632,33.427084289449255,134.12159520116418,101.9492467421362,79.83292389307007,79.82111254170252,84.56927579144576,49.5486189867479,51.69828493563671,13.193279477520264,24.93376273683544,18.931499850676623,16.070471022057006,16.03981515709279,69.52161414922489,61.51351792204599,94.12704455776196,400.0,397.83317976694366,388.5368690864781,372.49011829854265,"{'happy': (['m1', 'm3', 'm12', 'e1', 'e2'], 4.8079170225989545, 14)}"
71,71,3,0,2.3666666666666614,48.45511091839303,188.57735275469952,23.084489426933995,29.94911870922397,52.88073968699169,57.470735231760806,32.48438016428624,133.93653060007136,104.00076098396212,79.68589723125592,79.20845027360906,82.76543010807814,48.59216411450621,52.86531438544512,18.763665435520352,25.949242148105213,18.51894598144851,16.078947847766045,16.042217776933455,53.59342099585672,54.42895317173844,85.2676306554414,400.00000000000017,400.09891604651887,390.9208694014085,377.1547055093988,"{'happy': (['m1', 'm3', 'm12', 'e1', 'e2'], 4.8079170225989545, 14)}"
72,72,3,0,2.3999999999999946,48.01599351032392,187.40410166324008,22.952789384362777,32.055894328781015,54.8608701000619,57.09719764124519,32.70029836167486,135.44437355210383,103.40742298996514,79.25128080514844,79.68841518048998,83.50448013279515,49.28394720910512,53.71436317540372,17.82208662709695,27.07279516472829,18.413292963570445,15.987215339548584,17.101405629912335,59.20217175232551,55.19707571879155,86.817786370384,399.9999999999997,397.8162992079364,388.6906145237744,375.1212014259854,"{'happy': (['m1', 'm3', 'm12', 'e1', 'e2'], 4.8079170225989545, 14)}"
73,73,3,0,2.433333333333328,52.44882271226968,186.41310785225423,24.98991764693352,29.620787496309948,54.570765549244,59.06707807456994,30.89996617186294,137.23316243851215,107.64164161204152,81.12900374906383,79.83004628847243,82.66306663238663,51.28237033330311,55.702352280654736,22.41142442187788,27.066511791961148,16.064127481309022,18.174485561406104,17.07453132587341,65.10069155434542,59.91661698311651,84.08769026177107,400.0,397.8004749823671,388.71869328468273,372.9161859270739,"{'happy': (['m1', 'm3', 'm12', 'e1', 'e2'], 4.8079170225989545, 14)}"
74,74,3,0,2.466666666666661,52.31873315176456,186.4070253055917,22.83915182392191,31.8971879699033,54.58925799499525,59.13078151135256,32.538401606152654,139.2963966514477,107.41399490215068,81.03240809829026,80.6066686511889,83.82336669595463,50.14264599193677,56.85986837953578,21.570798653135057,28.47723857277913,16.06957114703385,15.908063820358173,15.89427269178367,63.95552583122492,61.11726285054931,84.1161851350769,400.00000000000017,397.7275670100274,386.3988446412469,372.7655616828882,"{'happy': (['m1', 'm3', 'm12', 'e1', 'e2'], 4.8079170225989545, 14)}"
75,75,3,0,2.4999999999999942,52.46236269706071,184.07819794722155,22.72397177019786,31.81356047827696,52.314511686219234,56.80992942549464,34.76099264477116,141.34602707774715,109.66523796658134,83.24657504597292,82.9071752601817,88.22053742394814,51.22596077270112,55.67326831065566,20.492724997258392,29.668222654511624,18.32065174763949,15.90678023913847,15.893272727742328,70.80581738058982,67.87995715825144,86.47060986731027,400.0,395.50157303280304,384.1426769525265,368.1914594102323,"{'happy': (['m1', 'm3', 'm12', 'e1', 'e2'], 4.8079170225989545, 14)}"
76,76,3,0,2.5333333333333274,42.75505021723672,179.78648813545524,22.583633774018875,33.78215538428659,51.68457763903182,53.93173318855504,34.00563404201335,133.05741794998318,99.28257722503484,77.70455240673675,83.26817973603875,85.67753299370736,50.660435043487496,48.35583627528274,11.656846799782215,27.43985654566848,18.117147240774862,15.730088846661795,16.84801372210177,68.28828774270903,66.61221591128736,89.91430703768938,400.0,393.2586415585626,382.023052642786,364.0669406268268,"{'happy': (['m1', 'm3', 'm12', 'e1', 'e2'], 4.8079170225989545, 14)}"
77,77,3,0,2.5666666666666607,36.234294481549846,175.29253711420324,24.718711044754304,33.7073332428467,47.243739946988285,51.68457763903183,31.779578548975547,126.161324568776,92.57080848835714,74.30585119302077,78.83357301540252,81.12653239588906,48.41403321387384,46.0512375070781,9.468641908759764,25.30984859323678,18.117147240774887,15.730088846661802,16.84801372210177,74.91109935436765,73.40961833871904,87.75422951187402,400.0,395.5249117502642,384.2898805907381,366.3139259953092,"{'happy': (['m1', 'm3', 'm12', 'e1', 'e2'], 4.8079170225989545, 14)}"
78,78,3,0,2.599999999999994,32.076815812752564,175.988983968577,25.139163496305667,32.07681581275245,50.27832699261156,52.563705492275645,32.72164042005036,121.6628708726898,89.59733065722256,73.31151872291832,77.99097736480655,80.17124557961449,46.922155303792806,42.29488393300369,7.329412296588657,23.437883309185622,16.16006634690459,15.997649497649029,15.992499299043573,76.18181863337014,74.77856089937143,86.96458288280921,400.00000000000017,400.00000000000017,388.6218772851096,372.62884437955387,"{'happy': (['m1', 'm3', 'm12', 'e1', 'e2'], 4.8079170225989545, 14)}"
79,79,3,0,2.633333333333327,31.71447060365027,174.0009822427183,24.855187196821923,29.46109021005152,49.76170158789871,51.96993686608209,32.352011161666745,118.03916292882803,88.58522385393145,72.51773835209019,76.64648549914352,79.82244484303055,46.40429485790685,39.55833804997235,7.092975868014605,23.04334946175913,18.21717505118084,15.81693730706854,16.93844983406484,75.94071675605738,73.25879553233062,85.89309989225417,400.0,397.740763857442,386.4908788553508,370.67845165198673,"{'happy': (['m1', 'm3', 'm12', 'e1', 'e2'], 4.8079170225989545, 14)}"
80,80,3,0,2.6666666666666603,29.632259899346487,175.05619627225565,24.99959647154718,31.89873249079276,50.05081834966355,52.27188353141675,32.140698530833255,118.52903959738612,86.63095871218654,71.69077932931202,80.17681595108718,79.20300846989971,47.78612425540496,38.650882646171794,6.283376842898974,24.5538600613653,18.323017305188102,16.070349265416656,17.01844502836849,72.89644573459157,68.02740832865527,86.36224235625379,400.00000000000034,397.7468257150935,388.6566708706383,372.83210295766605,"{'happy': (['m1', 'm3', 'm12', 'e1', 'e2'], 4.8079170225989545, 14)}"
81,81,3,0,2.699999999999993,29.457800384776448,178.61415071293166,24.954896304679004,29.457800384776448,49.75614485858377,51.96413355022971,31.95147061900065,115.77724609366211,86.32811978395618,71.37870455197776,76.5237448996578,75.26658571968164,44.14025565249494,39.623794894803154,7.10062129430969,20.78968792071624,18.21514079778087,15.815171080504594,16.93672784134492,73.77661928415438,68.84110546647048,83.62500135611646,400.00000000000006,397.7990171726007,386.5797853631611,370.8642306238618,"{'happy': (['m1', 'm3', 'm12', 'e1', 'e2'], 4.8079170225989545, 14)}"
82,82,3,0,2.7333333333333267,29.632738205466463,175.05902192410642,25.10309322088021,29.6327382054667,47.78135464006511,50.051626239875645,32.14121732666125,116.46479977562694,86.84078715701267,71.80259346611626,77.04844504354946,77.91494731303612,45.53820710856587,38.72328385395417,6.0772253765353526,21.97871297062943,18.323313064314863,18.18181818181821,18.17312867896481,67.18905435560572,62.50525830432628,84.12161601509871,400.00000000000017,400.0581052838521,391.0742251629183,377.4438275759808,"{'happy': (['m1', 'm3', 'm12', 'e1', 'e2'], 4.8079170225989545, 14)}"
83,83,3,0,2.76666666666666,22.969644267424908,173.76307825763385,22.85565029198144,29.80012207119126,48.05125301374059,50.28243064235919,34.586874940023435,110.08738986027868,80.28809661664557,68.69088433520267,77.91801805187163,77.80084809991388,43.47005217630726,32.045981860431425,0.5858497597885162,22.26229087196328,18.426814365893,18.284520233585244,18.278512505401523,64.67781348065125,61.1041299459414,80.02742029018728,400.00000000000017,400.1371014509357,391.072131781796,375.1739505350512,"{'happy': (['m1', 'm3', 'm12', 'e1', 'e2'], 4.8079170225989545, 14)}"
84,84,3,0,2.799999999999993,17.977244396184854,166.35023351160083,24.82064430625877,29.299323726631243,44.99925481121633,47.24373994698804,34.00563404201344,105.99811527498714,76.70012968875439,67.56531743339792,76.72378757142894,76.49338580695007,42.79712775193059,29.203423647683508,2.8800220559844547,19.699350862934462,18.11714724077487,18.11714724077488,17.942537408783892,74.99577433783804,68.94772802027046,83.1751167558003,400.0,397.7719230432924,386.5695419075713,368.7047474393065,"{'happy': (['m1', 'm3', 'm12', 'e1', 'e2'], 4.8079170225989545, 14)}"
85,85,3,0,2.8333333333333264,15.979814264102757,167.24690722782756,24.961267835451466,31.63841807909605,47.51140348390652,47.45762711864419,33.97355113756588,106.43084148534795,74.88380350635431,66.78855203493993,74.86189348971288,76.84582540970678,41.90912833305083,30.49865283944416,4.019469005536848,18.62946476317996,18.21979152157866,18.21979152157857,18.044606220291485,75.33207388693683,69.36881031238863,85.90543642372069,400.0,400.0255346313697,388.7596854264386,370.73169092718433,"{'happy': (['m1', 'm3', 'm12', 'e1', 'e2'], 4.8079170225989545, 14)}"
86,86,3,0,2.86666666666666,22.711220864232697,169.5038854657873,22.598509394984383,29.378062213479744,47.45686972946741,51.97657160846424,34.19775015325138,108.6844996290795,79.38480343012746,67.87405186088574,75.65002604010738,75.98435258005895,41.854224251540586,32.746708163201106,0.7320598374806195,21.1375072759123,20.463820611940136,15.818956576489136,16.946897025138355,74.13979235963575,68.35248466805803,83.64501771289311,400.0000000000001,399.99361629122455,388.7206380420701,370.6775569963368,"{'happy': (['m1', 'm3', 'm12', 'e1', 'e2'], 4.8079170225989545, 14)}"
87,87,3,0,2.899999999999993,22.83472977376768,170.42568708010833,22.72140535329415,31.80996749461184,49.987091777246974,52.25923231257632,34.38372548479487,111.5433570214371,79.81651648350869,68.21862734740114,76.46050399039223,75.92727427790612,42.0671875350414,35.20475297435132,0.8693962703578109,21.340780449713748,20.449264817964703,18.17712428263531,18.176178025611648,73.88709103013326,67.00147256890034,86.3712317542987,400.00000000000017,397.6505601551946,386.26389100600073,370.3589072586946,"{'happy': (['m1', 'm3', 'm12', 'e1', 'e2'], 4.8079170225989545, 14)}"
88,88,3,0,2.933333333333326,29.88308349210366,174.71622585575366,20.68828857145642,34.480480952427214,50.57137206356019,52.920018911421565,34.785623900095445,119.6207127856409,85.17601637116701,70.1539791938394,75.02364402219064,79.12316721102161,42.54736350026633,42.49997016860357,5.462081474136198,21.599510905314787,13.982438504272489,13.792192380970969,13.791459513870793,58.62555126686652,58.649247932697904,78.15575682550202,400.0,402.278845435363,393.0774828576708,374.68789301637656,"{'happy': (['m1', 'm3', 'm12', 'e1', 'e2'], 4.8079170225989545, 14)}"
89,89,3,0,2.9666666666666592,34.15776208092191,172.68268068503576,20.449264817964853,36.35424856527067,50.03870468906256,54.53137284790591,34.3837254847948,125.15349378135193,88.87526425726774,71.65394836330893,75.93783818450697,78.69306210335913,43.16517472868543,47.74513027800549,8.688622796731465,24.55532896099908,6.426583921361013,7.185139255635119,6.797427431378878,60.80827526168662,59.636096664631054,86.34134034251778,400.0000000000001,397.63108545975535,388.5426751703058,370.3867852344404,"{'happy': (['m1', 'm3', 'm12', 'e1', 'e2'], 4.8079170225989545, 14)}"
90,90,3,0,2.9999999999999925,38.63636363636358,177.28729543869454,20.45454545454548,38.70315083165086,47.72727272727287,52.27272727272717,34.392604432776245,131.99439632483268,93.2926170535172,73.92704537441898,78.18634173403655,78.75748846414228,44.3124798155369,53.43867543913984,12.097373825961084,23.45954813763717,5.081972676135764,5.081972676135812,4.508413550408477,63.10563764763015,59.64230109273416,90.90909090909096,400.0000000000001,397.733766180759,386.4237921084028,368.2449440833848,{}
91,91,3,0,3.0333333333333257,34.285714285714256,180.57142857142856,18.428017710396688,38.85714285714289,50.28571428571423,52.62109455186882,36.64278752430037,128.08160663882884,89.25999629607607,72.04412904681976,76.79574550591042,78.69639208954675,41.15260735835204,50.29495801381756,11.175320735430772,22.57920023724841,5.111012519999481,4.5714285714285126,4.571175327732817,62.86569016508264,62.88974898259698,86.8571428571428,400.0,400.00653055893474,390.8838754433761,374.9198553813651,{}
92,92,3,0,3.066666666666659,22.853784996641465,175.9889839685773,22.853784996641696,29.709920495633945,47.99294849294721,52.56370549227552,39.11937859694415,114.36030358636177,84.68244835546741,73.17596169901572,74.55189950074657,74.1092064688853,35.43338956370758,39.97996664768812,5.461874839045208,14.602887713153793,9.422856948630969,9.422856948630857,9.129048197571706,60.56519262923757,58.26797473417355,82.30536123537233,400.00000000000017,399.9673551998544,388.514344942906,370.2313169455927,{}
93,93,3,0,3.099999999999992,4.59398509936176,172.27444122606417,23.08448942693387,34.45488824521297,48.23684354329802,50.533836092978895,39.11637360816966,101.17202706371644,66.77100930366038,64.39717436543776,74.11862511498748,77.68831327271687,36.81538386671559,25.23769527514673,12.02984909154793,13.326835788856329,14.527456450857889,11.48496274840417,12.606948677047512,73.52367708869929,66.56278518112697,91.87970198723428,400.00000000000006,402.13773362035937,388.2528986020287,369.8443334668341,{}
94,94,3,0,3.1333333333333253,3.327331066072262,171.7528202852807,25.880561960795685,32.93889704101272,47.05556720144676,49.46433237331836,40.0663717270626,101.27884191449137,68.39264053845896,67.09995392458859,78.7733854838466,81.37540228942146,40.04610795977442,21.154753069983144,14.489312759811584,16.128939787982063,16.636655330361183,16.636655330361197,16.449736380450304,67.61679287912057,64.15931849363062,82.38084686534775,400.0,402.3250995723699,392.942162108175,374.1213527773178,{}
95,95,3,0,3.1666666666666585,25.57966611671654,176.73223862458653,21.05761167198472,30.23051450157402,51.15933223343308,53.48475642586176,41.92218081503176,118.68779188559984,88.48842541831887,75.63861301947122,80.09910839201234,82.80387686259564,39.56317039208557,37.20242949012891,4.25882403920798,18.209735098006377,16.443232156016407,16.277969347001466,16.276062901931482,62.23340086263272,58.74567309793326,81.3898467350071,400.0,399.97296109774857,388.3458401356047,372.0678707886032,{}
96,96,3,0,3.199999999999992,46.568944093644085,176.74119896387523,20.92987882466944,37.20867346607911,51.16192601585862,58.13855229074821,37.28127582480559,141.93429439105256,104.75270055928578,81.45701329670794,81.52326299328945,86.10051475709713,46.55546859767492,58.1190520009784,17.875372677606492,24.90988591461621,16.278794641409448,16.278794641409448,16.273334560273952,61.00994785180421,60.05836130090722,79.10262287101204,400.0000000000002,400.054077804688,390.7187554378952,369.8270039415009,{}
97,97,3,0,3.233333333333325,83.75180826624263,181.39228314713503,25.58096300792919,37.20867346607899,53.487468107488525,58.13855229074858,32.88813165852551,179.20259782274013,142.0295203624431,100.11490604479218,93.15857078128136,97.8320776766634,62.828709365353575,83.69172348037921,41.12686067936159,36.53723724107647,20.92987882466947,16.278794641409643,17.43577572507911,77.44839760218963,73.90132570210471,86.07647789797902,399.9999999999998,397.69489606131424,386.1030238676152,362.8143797114459,{}
98,98,3,0,3.266666666666658,91.94794920647276,181.5971996827836,22.98698730161819,39.14542881479,55.1687695238836,59.810356392820296,34.785623900095416,188.61940179057987,149.4861299194983,103.48352811915356,95.6588442689656,97.54057950234404,62.073443268158485,91.95492238554311,50.27091405120802,38.778037467598665,18.53270164825117,18.389589841294576,18.40051225044226,74.76920123513008,72.38725790173953,85.08291084174985,400.0,395.3761815878329,379.2922561664645,356.3279625693875,{}
99,99,3,0,3.2999999999999914,96.53737660473068,179.28369940878576,20.68658070101383,36.84790186542216,52.86570623592413,62.05974210304126,34.7827522590371,188.603830782852,151.77122761179336,103.4749852926958,95.67476485689008,97.53252728129576,62.08022768222168,91.93542254109934,50.25485532687037,41.10894800671952,18.38807173423449,18.38807173423449,18.39899324170972,77.06141441236446,72.38128215088108,87.34334073761377,400.00000000000006,397.64205125281984,381.580180359588,356.2985467966399,{}
100,100,3,0,3.3333333333333246,105.26135801685837,180.1746259459368,21.05227160337165,35.16500427238792,53.80024965306097,58.52529635919864,40.03964931843518,201.28851059181824,166.14490977573828,113.44835252928078,105.26135801685848,109.93964059538553,67.83509738864211,93.5656515705408,53.80024965306097,46.78282578527046,18.713130314108184,18.71313031410807,19.88270095873986,79.53080383495973,79.53080383495961,86.54822770275041,399.9999999999999,400.00000000000017,383.62630290125145,360.23535308110155,{}
101,101,3,0,3.366666666666658,89.64925047631093,174.70110349229816,22.98698730161825,36.77917968258903,50.57137206356016,55.16876952388361,41.63120463632532,190.8473768962094,154.08141751440917,109.16304151961106,101.56795744123576,100.66744825253602,59.76537299738607,89.6480594960791,48.4023688926095,36.90902793157363,20.68828857145641,20.68828857145641,20.68801372986445,77.55042947420526,76.4484905985596,89.6787161305088,400.00000000000017,395.3828637951156,376.9865917465382,354.00706767381325,{}
102,102,3,0,3.399999999999991,45.21885365203243,164.85835670125016,24.839339715488336,33.8718268847567,40.64619226170808,47.420557638659695,45.162435846342376,149.05314429451184,115.18634772964772,92.57576885524702,88.49337889417416,89.88388726519463,44.02682273884875,59.833456358141234,23.82285495479084,19.294789233775305,18.06497433853695,18.205559916710484,18.07066647980014,78.42704906294057,75.09933672203681,85.80862810805057,399.9999999999999,395.33257516543415,377.2753225480837,352.3321317088222,{}
103,103,3,0,3.433333333333324,9.229915912604149,168.46176931418557,25.38226875966137,29.997226715963624,39.22714262856777,41.53462160671872,50.8169531631459,115.39702139031608,85.40789864769123,80.67777495731957,85.08155819686715,83.13597142172318,33.418656673656415,31.17016417304103,0.5999863408378587,10.817229465396508,20.767310803359475,20.89511084531353,20.81894351606229,75.51672740409333,69.98287280413274,85.40789864769116,399.9999999999999,397.556597128174,381.2999919489026,360.43973882531225,{}
104,104,3,0,3.466666666666657,3.299986336022232,168.02407923567017,28.09837115920129,30.334755308316787,44.33541160446276,46.66885432048726,46.90161813011077,107.43977106737702,77.14490077445886,75.66696841581711,82.07703992324355,78.50286842458718,33.814006096304865,26.81800483500035,7.423729981635461,8.900272961408291,21.000984444219355,18.81281661747821,19.904033739238912,70.52250517676748,67.22957995997251,88.70152108874773,399.99999999999983,399.8434269024488,388.053698555233,366.9519517576625,{}
105,105,3,0,3.4999999999999907,9.21841923065092,165.9475495800353,25.35065288428968,34.5690721149406,41.48288653792876,43.787491345591526,46.14967530893736,115.25328412706811,80.69408447779524,75.92215484296935,81.17146921384915,77.58229435447254,33.39569376485076,35.69884505897869,0.4150348778757688,11.100721592762396,23.04604807662714,18.580317967344826,19.658623863328103,71.91209954405679,66.52249169333174,85.39486025327489,400.0,397.3555741173863,381.1038781947826,360.2562481281244,{}
106,106,3,0,3.533333333333324,23.179157400790206,162.27065750189703,23.17915740079032,34.76873610118554,41.72248332142242,44.101354660309575,41.78682026530001,122.87139940799158,88.11129173586849,76.33191520408991,84.28934218195513,79.95432599252115,40.52943218203768,40.52943218203791,4.329077811092475,18.22488313064809,20.989619744166458,23.294764888032624,22.09670580943032,67.1393055311529,65.06087311156125,88.11129173586858,400.00000000000006,394.8697194848161,380.8442073543361,359.75515888614854,{}
107,107,3,0,3.566666666666657,23.01055707665416,158.83952709259722,23.01055707665428,36.81689132264674,41.41900273797765,43.72005844564287,39.3877291722361,122.04275390694043,85.26335185006153,73.2120803606432,84.90763953022474,79.74887324998645,43.566841257081705,39.11475528920471,1.3426925934866176,21.87175566758605,20.70950136898883,20.83694565721968,20.811735199043824,71.16270745479522,67.20529770557118,85.41846085920939,400.0000000000002,397.28378186852814,380.6769645690397,357.4051399265726,{}
108,108,3,0,3.5999999999999903,23.26328544845409,162.99247922356193,20.93695690360849,37.221256717526245,39.547585262371726,44.26141918736481,39.61594760425552,120.99145080794564,83.78013150285429,71.90396951602077,80.58080856740992,79.25320477812636,40.53932999419567,40.7764020994249,2.228477789154681,20.696394786510385,23.26328544845398,21.065800931417733,22.13068102314719,70.97938830562674,66.56984714836335,86.19981192860168,399.9999999999999,397.2235793103021,382.7146309635862,361.659927177116,{}
109,109,3,0,3.633333333333324,34.69425485650541,166.67692001807342,23.129503237670143,37.00720518027244,46.25900647534053,50.937447051298,32.46380480538539,127.233292890845,90.23471096382865,72.50525311159095,84.06989126392511,79.06544938317086,49.43513096626941,45.15236982954832,7.589478644217365,28.021325282663497,20.944655987090123,20.81655291390321,21.999431861141147,68.34671570949843,68.59516317875568,88.01376234379394,400.0,397.24206372023616,382.8194818065848,361.8861915315898,{}
110,110,3,0,3.6666666666666567,37.028878146084935,166.77453298753937,23.143048841303067,37.10112968434149,46.34391918882622,50.96727814886786,32.48281696607841,129.6010735112974,92.6011196575492,73.73978478154629,86.05540645696124,81.89888414150869,51.8025836722137,45.336882292620885,5.157166576579925,27.94106667609742,20.82874395717288,20.95692205287244,19.781967316135024,73.27794896871825,72.50822261400481,88.06530688094604,399.99999999999983,397.2657864851178,383.0436768924106,364.0821605578348,{}
111,111,3,0,3.69999999999999,34.69425485650541,168.98789261583894,23.129503237670143,37.00720518027244,48.62699586129676,53.39860479182995,30.157182627632576,124.9207318543412,87.92254059289469,70.19824089705878,81.76287904939306,76.59280552246719,49.35231514318366,45.23518565263407,5.365282252770953,28.10414110574925,23.129503237670143,18.647601669220265,19.77523546969473,61.59131071207349,61.50849488898768,87.92254059289486,400.0,397.24206372023616,383.0080920934541,364.19237223053614,{}
112,112,3,0,3.733333333333323,30.242271082990115,162.99247922356187,25.58961399329924,37.22125671752634,48.90825685264822,53.55610501369691,32.65157708621146,125.64327965437212,88.43108899263186,72.96230189890787,83.8718295423289,80.00320271842077,49.59579588250256,43.25124789129325,5.3387050169933445,25.76505464722834,20.93695690360849,21.065800931417737,20.967957385582167,69.17104761147789,68.0878321007836,88.52283837472943,400.00000000000006,397.0123499598378,382.71463096358593,366.1289355259875,{}
113,113,3,0,3.766666666666656,30.2601878800914,165.4146448804983,25.60477436007748,37.24330816011267,48.93723216710825,53.58783390946757,30.349583016888623,123.3904158240692,86.15659987486713,70.68056223135864,81.77827245975789,77.69594323873935,49.7002632289101,43.199662739135874,5.27350739548001,25.864728099737363,20.94936084006323,18.766571861633587,19.896865587486104,69.32776691764866,70.64464731152555,83.8297663868594,399.9999999999997,397.2475568231527,382.7644645028449,366.1905188636855,{}
114,114,3,0,3.7999999999999896,30.118243497339424,169.26827662511369,25.48466757467176,34.82896006857732,48.70767757078254,51.02196225179785,32.517668615429535,122.78976195069116,88.06842130692384,72.66307377139015,83.8360808730356,79.52098847515879,49.4694521328023,40.83926733704868,5.239755054564853,25.736443944479674,20.97940727327767,20.979407273277783,20.88196499686819,71.19902456496777,70.2743619082799,85.75245679955891,399.9999999999998,397.4962736903394,383.2796423540052,364.4727936672738,{}
115,115,3,0,3.833333333333323,30.2422710829902,162.99247922356204,23.26328544845392,37.22125671752625,46.58469280701095,51.23207180861228,32.65157708621148,123.31735741962926,86.10558729275714,70.67824971921925,81.1745502977019,78.18914652142928,47.31628048584662,43.24096739442689,5.188916087331336,25.5180941829027,20.936956903608632,18.61062835876313,19.80791711876213,74.5877070452907,72.26572633041178,86.35662452307348,400.0000000000002,399.5397318091127,385.22343017407707,366.1289355259876,{}
116,116,3,0,3.866666666666656,32.17646950539512,163.32626993932854,22.98319250385381,34.55131446316326,46.02380712254792,48.26470425809273,32.17646950539512,121.83260059813408,87.33613151464405,71.11198500807666,82.96004104035012,79.76745109153387,49.24865606229457,40.35670183448053,4.930777809838332,25.43429992556912,22.983192503853697,20.81216598263488,20.858254332265915,75.77080145190479,67.02074011070476,83.02628587732347,400.00000000000006,394.9499636076882,383.2890965427497,362.0710027421991,{}
117,117,3,0,3.899999999999989,27.73825131608806,166.57391530582018,25.426730373080936,32.443742490385446,46.288170811284,50.853460746161865,32.443742490385354,117.887568093375,85.55750595855034,71.34467987329708,83.64548674800346,79.49396442779005,49.43386762772627,36.056740151483154,2.9983216757096898,25.601054307982626,23.115209430073456,20.931712393802144,22.064572331504564,73.34356099043691,68.11571806868665,83.50319416824652,399.9999999999998,395.15516438553294,383.419943705232,364.3487913294017,{}
118,118,3,0,3.9333333333333225,25.58975943320509,164.75278497494222,25.4846675746718,30.118243497339307,46.39364277107649,51.021962251797824,30.11824349733932,111.22995273390023,81.12066886583078,68.30427345901217,80.83422014246219,80.96273241613858,50.82660423902041,30.26464045079468,3.1485507050721253,26.66629678785523,23.167879613338,20.85109165200407,20.883244472416663,76.97885193216996,75.9507537427587,85.8462950076099,399.99999999999983,395.1872567474844,385.7643277209336,364.79663870130383,{}
119,119,3,0,3.966666666666656,25.64518891014816,165.67573518943624,25.750942715141147,32.72248900704084,46.68586433815808,49.0144746450902,30.3974867681662,114.26144681422645,81.59832835047132,68.68729679743478,80.85516603136045,79.44868090378668,50.0011372453838,34.05703273196377,2.133366096866098,25.57084515551071,23.313808100134622,21.11155113833464,21.07363850810043,80.4769515432734,75.76108964493801,83.96208320572353,400.0000000000001,397.4918818980861,385.693821776644,364.5984425681641,{}
120,120,3,0,3.999999999999989,25.738267747873746,165.59418731976098,25.632565996354177,35.03108741467231,46.66288491527318,48.99034904826704,32.7063825490498,118.8647401210181,83.8883978062503,70.94488859469368,82.76115918008566,82.19397819198684,49.99464084679357,36.346848320665686,0.0590813529269098,25.45224684093444,20.972099451562634,21.101159743246544,21.0565941831685,83.2456262740867,79.70074509846904,88.57952000865136,400.00000000000017,401.943287416005,388.00308304486174,369.23720858240176,{}
121,121,3,0,4.033333333333323,2.331380810013536,167.9241664114474,27.976569720161542,34.970712150201926,42.02956526568172,44.296235390255966,44.357545087958336,109.59969718786128,74.64060485641531,73.25688411099065,80.56140001223105,77.59724863201745,34.93464126680192,30.27668909789486,6.034165309720379,7.939691197000457,20.98242729012117,21.111551138334644,21.066647309374275,78.76173667424428,72.83343391381726,84.05913053136321,400.00000000000006,399.8165153104672,385.6938217766439,369.0952093529247,{}
122,122,3,0,4.066666666666656,5.207821250436075,165.42519395811811,28.04497571969501,35.01267453905032,44.251160856442525,46.81249081025916,41.986797228081336,109.46339790804234,74.56465279327047,72.04983229260245,80.73461902092879,77.08770992370444,37.1587308335794,30.414286765955808,5.750895114853961,10.297842675175616,23.40624540512958,21.09006865077676,22.214585702805152,78.01112600921954,71.20823788555066,86.29911377102815,399.99999999999983,397.6811793026711,385.6672060421008,369.2268140051005,{}
123,123,3,0,4.099999999999989,7.02379193089404,166.3780661615405,28.09516772357616,37.53331682021918,44.484015562329,46.88377460212456,39.87028884835691,112.38067089430464,74.95702058565479,71.2259939400493,80.83177801137447,80.22321280934023,40.87529606996805,31.73488538843378,7.058163078495454,13.776245602912924,14.04758386178808,11.93815070501474,12.97079165904404,67.56267007682357,61.50088335852144,84.4154731834291,400.00000000000006,399.7738234785708,385.363800622712,370.98507932647885,{}
124,124,3,0,4.133333333333322,30.55986877260992,171.2443727342099,25.888503090651696,35.2355653335899,49.22053376596001,51.617610196554224,35.46865871544841,126.58878714184333,91.52968045084324,75.84647821805572,81.93526834475153,79.1175183867233,45.69655366715358,45.696553667153694,7.264894457003265,21.304639900048187,7.411856873793265,7.4118568737932815,7.154634676036949,68.54483050073054,65.2370370717407,87.00648685796271,400.00000000000006,395.1291417076317,385.4165574372503,368.7277744811473,{}
125,125,3,0,4.166666666666655,33.16397430340361,168.4554286400154,23.688553073859755,33.24846864239228,49.80233083461203,52.16862660311629,33.1639743034036,123.2032513334348,90.01650168066696,73.29150657527282,80.82752842071409,79.79317248114376,47.210960384676696,42.77800635794654,4.063541191169406,25.04619025102568,5.296921496176296,6.700134606009351,6.206135637422221,61.91359123999865,56.88957667637101,80.85399754767998,400.0000000000001,397.1914164336072,387.3494947014748,370.4589795166352,{}
126,126,3,0,4.199999999999989,25.75390374661149,164.15583334239574,28.192551612539624,30.43643170054092,49.22225633131775,49.22225633131797,30.52634749968482,114.72193487126935,84.28550317072845,71.2437219749072,80.15300898181135,78.36748269079146,49.05305447452645,35.19688127092661,1.7488373946290494,22.61258980887544,5.235225405764473,6.622094538638058,4.989689909151593,60.4266123556805,59.49716031377977,82.077916671198,400.0000000000001,395.11214160036747,380.69844987860216,366.3161699962191,{}
127,127,3,0,4.233333333333322,23.27706760007037,165.67648065163235,27.93248112008455,32.67092125782107,46.612291544115024,48.93723216710829,30.34958301688868,114.05763124034492,81.50298277041222,69.51443822484225,79.66279626741095,80.11034006666603,49.85275050351265,33.9105146273439,1.6752653026170492,23.55652835268484,4.655413520014076,8.392666077449467,7.203036012335701,62.43840788526802,59.26931395540748,83.92666077449525,400.00000000000006,395.1415063286879,378.4939947077104,361.874189773901,{}
128,128,3,0,4.266666666666655,21.194813138740702,167.46866542574512,26.01159586769054,33.05370872250126,49.510603174368285,52.02319173538085,30.705172620422072,110.70907430490456,77.71431484204928,66.96976294518174,78.14337896109816,76.47692764541966,46.9183972943016,33.28706530921886,2.9072981586479045,22.62897020390801,9.41991695055141,10.53178732191776,9.710975292802914,58.46966234938259,57.29475422753728,82.72650226364233,400.00000000000017,395.08242344751017,382.7330340981138,365.9398289412425,{}
129,129,3,0,4.299999999999988,26.05740838124573,166.24234321196172,28.524795227362308,35.611703913415006,49.80233083461199,52.16862660311639,26.05740838124561,116.17055779727627,80.57590902808113,67.52183904071978,78.73448383566472,79.63437507121421,53.18357202096684,36.94953413165649,1.8297788456170565,26.378811751403305,14.213131844315829,12.078839437238994,13.156409863731596,72.87919152969027,69.41161063537334,85.57438568208681,400.00000000000006,397.4103383507056,382.8249009407246,368.2713002256835,{}
130,130,3,0,4.3333333333333215,32.96970932693,160.4154052858793,23.549792376378576,35.40310084432455,47.1584224830713,49.510603174368285,30.61473008929212,122.48156229511872,87.13423179260069,70.49448731071766,80.33734004576843,79.13845420715074,49.19028595848192,42.608402704471246,6.569894395624829,27.25067511177906,14.129875425827164,14.894196466685017,15.585515902029329,72.4127046525058,66.53816404327932,89.76765695784796,400.00000000000017,397.2103764869547,382.5518621176811,365.7806636963498,{}
131,131,3,0,4.366666666666655,39.846406454146646,159.38562581658658,23.39861554487617,39.846406454146646,44.51890225611194,49.35943356548248,28.078338653851283,131.11578690490026,91.2845939210198,71.3200080678406,81.53060450056591,82.00496438129653,53.73311548975482,49.32156859896065,8.443605877004188,29.20870965598453,18.718892435900845,16.545319722158865,16.48400585538718,77.8424564278859,72.06712487999124,89.03780451222389,400.00000000000017,397.4322180155763,380.67900780127593,361.8246183937367,{}
132,132,3,0,4.399999999999988,42.47929383793108,160.3861114860273,25.919599890150504,40.1268073617815,47.18541666472429,49.48287251756018,28.37393759288192,136.8496776192646,96.72429226928784,75.48205612957145,86.96310672795505,85.04259643444607,57.6393151839394,50.84551002065109,9.554538710207224,33.08078980569292,18.85061810192762,16.661749861788756,17.776723404292852,78.6208901405252,74.82788231084498,84.95858767586216,400.00000000000017,399.78479132748015,385.4954282438801,366.32364252100143,{}
133,133,3,0,4.433333333333321,46.87669882472375,154.97694692196396,25.78218435359805,37.57453251289008,42.25408530925614,46.93525812154065,30.559868772610063,140.708202615419,103.15536846387808,79.6846812432558,91.42969717245944,91.33420923807569,60.82581420246117,49.27177414202515,8.45068219296354,36.38090300021622,21.0945144711256,18.89660141571435,20.02859423699568,79.82791314483154,72.66631806604869,84.67053036592105,400.0,397.6652894123822,383.25822489907466,359.8988889958251,{}
134,134,3,0,4.466666666666654,44.532863883487614,154.9769469219638,25.782184353598023,37.5745325128901,42.254085309256375,46.9352581215404,30.55986877261001,138.36569075346102,100.81215268386724,78.52584687915078,88.73234688231696,89.38037862854969,58.50286597934746,49.274413889477046,10.680523224947478,33.94966314986141,21.09451447112561,18.896601415714247,20.022980899803315,80.37993770865017,76.9357689833019,86.84849419653742,400.0,397.665289412382,383.2582248990748,361.8702017553461,{}
135,135,3,0,4.499999999999988,45.10326185450251,156.9619649147357,23.738558870790875,38.05580488655236,42.795295607128296,47.71391281522085,28.5850101806856,135.3930531317353,97.35703652816709,74.79250622105394,87.45543758076747,88.2013774803421,59.25409686136743,47.53562166482493,8.433933380673807,34.37339182394442,21.49617931993593,19.138638018947383,19.15982725923413,81.34354291973716,77.58978084445857,85.49177579795719,400.00000000000006,399.8238614761313,385.618257472201,363.9748938903944,{}
136,136,3,0,4.533333333333321,37.74054655396533,155.9654057010664,25.94662575585105,35.46030136422132,40.16864680804424,44.81689903283383,30.66419407509684,129.75457049971934,94.35136638491322,75.31391440188588,87.55242549219236,86.61100156216867,56.48543580141427,42.52098083939825,3.922599708431676,31.85150963246417,21.35969902312256,21.35969902312257,21.3389424138677,79.55032208699197,78.29509018029393,87.3068835488472,400.0,399.8121755359439,385.5223270023548,364.178246822208,{}
137,137,3,0,4.566666666666654,30.46985423607062,154.852830589663,25.78218435359803,35.23556533358979,42.25408530925624,46.9352581215403,30.559868772609992,121.96953112808605,86.75356048895486,71.49721571754594,84.38820943258565,82.00120829327375,52.638719154226806,38.74423491047139,2.594824621590192,28.18680201072925,21.22432809311725,21.224328093117244,20.028245877857444,75.04209054383739,72.48883061870288,86.84849419653752,400.00000000000017,397.2782940439296,385.252606500528,363.9063219549756,{}
138,138,3,0,4.599999999999987,28.111062879615584,159.450971868122,23.54272379313723,32.87979746107143,42.426083502886414,46.91029962309452,32.796240026218186,117.2230947565352,84.36571831744871,70.26398788001791,85.3429239146052,80.88668882451145,50.40363203254629,34.04804486404021,1.987239972609359,26.05090945911525,21.08329715971163,21.597599496697644,20.11327729853099,76.02096186127397,74.02167801004276,84.62550559381708,399.9999999999998,397.4538251762184,383.2477769720073,364.1877733492706,{}
139,139,3,0,4.63333333333332,27.94810159354272,151.54670357039706,25.72473932047552,32.68919157387965,41.98679722808107,46.638358188884375,30.366555188245272,116.65984575750112,83.9735944561626,70.02483724758906,81.81734112192237,79.29819942740528,50.194202507417685,36.10161273809047,0.0791034831611341,25.79382039385905,16.303059262899897,14.729942885562732,15.327821083305253,74.49114160453468,74.56416020437575,86.2991137710282,400.00000000000006,395.1497647860904,381.0260697783873,359.58110731267647,{}
140,140,3,0,4.666666666666654,28.25975085165432,158.22236069724786,23.667248428582564,35.40310084432451,44.8065357946066,47.15842248307163,32.96970932692997,120.1962577673802,84.8119542929408,70.63967392527161,80.98092385830421,81.60650564437663,48.40598656925124,38.84352212500244,2.751283161195716,26.40848825491128,7.447098233342573,8.490998393956309,7.379311680608453,69.88642238693956,69.3757433779009,82.96080801947622,400.0,397.2103764869548,382.73303409811393,366.1140733861091,{}
141,141,3,0,4.699999999999987,37.70616747096118,162.71671861416635,23.520461043187883,35.35900618182166,44.93577772829828,47.27554160709132,33.01254023454888,129.55483294858618,94.19937306825992,75.30440956369125,86.74104896314111,85.34710953495335,53.03305915423596,43.46556580621984,5.322314180353487,28.9559235764466,4.70409220863758,8.480422831376721,7.318181997986016,71.15427172067757,70.26721935728528,84.96715685650382,400.00000000000017,394.82160790365856,382.8853656596067,361.1597237153679,{}
142,142,3,0,4.73333333333332,37.70616747096118,162.71671861416635,23.520461043187883,35.35900618182166,47.27554160709155,47.27554160709132,33.01254023454888,129.55483294858618,94.19937306825992,75.30440956369125,86.74104896314111,85.34710953495335,53.03305915423596,43.46556580621984,5.322314180353487,28.9559235764466,7.056138312956371,10.518669950940753,8.490358335325709,73.49862439535707,72.80165468126313,85.1947333490493,400.00000000000017,394.82160790365856,382.8853656596067,363.5033798238349,{}
143,143,3,0,4.766666666666653,44.65877596286896,157.91885697387607,23.62184967464912,40.02692371058101,44.720587447070976,49.58304794678575,32.90646649895597,141.10604054526,101.09718864752168,78.60073762359036,90.03425826686828,86.56269424316679,55.54502437922474,52.52627305426688,12.67875556482295,34.1873587551479,4.700923785565052,8.474710875451793,7.471409529270772,76.60081487080595,69.80862438965062,85.13735076664649,400.0,397.13764721039513,384.9666251901229,365.8046732087152,{}
144,144,3,0,4.7999999999999865,49.00313085559911,159.29329361150056,23.334824216952004,42.26116408304705,46.9024162042171,51.54831154976748,30.42488843202681,144.84517678619775,102.69973997699432,77.96539568911703,90.27951700007054,87.03421416555864,58.2471760594251,55.92738551475543,11.803286605521066,35.253604494901765,9.333929686780706,10.43565063842253,8.624091791712203,70.0865215853297,68.54800764896845,84.5223281660941,400.0,397.39143981580486,382.4206791265052,358.7345031899319,{}
145,145,3,0,4.83333333333332,43.82264714942517,155.4150769836895,25.44041772674745,39.22322702763686,41.71394311735429,48.85967564883437,29.942473580817104,138.36866912044962,99.14756036731538,76.9998767659664,87.89886467851716,87.23903405894657,57.85300610878278,50.42991163861302,9.26119405325926,32.68518104801694,13.819603191146276,14.567140814584624,15.423540732463607,75.85695587135297,73.57111408212609,85.71744341789928,400.0,395.1227858718341,378.2480905928479,357.11784679384726,{}
146,146,3,0,4.866666666666653,34.965882362700505,152.05738990322612,25.58485486543283,39.60857987450978,39.81292472105593,44.73950086352004,35.1971917142728,135.2223946829929,95.61667224862792,78.0419332030126,88.76243660534749,86.35894971603375,52.36507821717612,47.46291683897209,5.889732723813381,26.94998913017571,16.446567610019187,16.932777720149428,16.729220625619064,76.60222075941385,74.57948426840733,86.55958373502547,400.0000000000001,397.02027836572125,379.9477492086946,360.6263898016461,{}
147,147,3,0,4.899999999999986,18.48445315235677,155.64990703571533,25.520932284133384,37.25660641266259,39.55035900676808,41.84596059061232,44.14312270273383,125.30376836991388,88.07434600243757,78.82865930050639,85.78308565740019,83.61869786265277,40.56157345402653,40.561573454026416,1.164984687336755,17.49842482147028,18.62830320633136,16.821106274051836,17.61669737856016,74.40526566533919,73.5300487428729,88.55794247746807,400.0,394.73343049178703,380.6812992319405,359.11878206655564,{}
148,148,3,0,4.933333333333319,3.280176445436748,156.79792383082065,27.92969601887571,37.18337182728112,37.399765730758986,40.039656210641695,46.44664984039278,114.03036987881296,76.85699105966425,75.50703776564,81.9369339503703,82.88077192244077,36.10180243169657,31.50059231785292,7.845653142835999,10.559187312538713,18.699882865379493,19.81726139585645,19.142213871054764,78.45653142836028,74.85814915984156,86.31913795844514,399.9999999999999,396.9555639876761,382.4888279504949,361.1547257807016,{}
149,149,3,0,4.966666666666653,4.647629396773612,156.8015384741247,27.982434474212152,35.1656974665428,37.47038611535817,42.40563892411028,44.39641747528793,112.14663284481276,77.00211684218465,74.65540460780505,84.3558520855072,83.6901351017433,39.633936140513015,28.102766957460403,11.412291150237706,11.65004721586763,19.16266691162324,19.16266691162301,19.020485250396177,78.83991136289228,74.79805824718312,89.0660910298198,400.00000000000006,399.6420822662709,385.1648380615633,363.48205943782176,{}
150,150,3,0,4.999999999999986,7.299926430799637,155.76407788714738,27.797291693234623,37.00709925816589,39.51411809374028,42.125066555512994,46.22646350731375,118.09196376868483,81.09163616214558,77.43878565810564,86.1278988327831,84.77756367725885,39.3652052947383,32.49610906881071,6.663610441391256,11.947530615181565,18.61123365921954,16.805692703484773,17.75984280635089,75.50134826104909,74.79682557121038,88.20534666721018,400.0,399.2799514129568,384.9006922323376,363.3647914840652,{}
151,151,3,0,5.033333333333319,18.50583025494008,152.6029856617381,27.63986369959042,34.735186667622266,36.797512171369895,41.886494223245805,43.67231172471167,124.47995086153848,89.78372327558345,80.43712928718173,87.552047476854,87.27165661223637,43.84612145458152,37.01159412952677,0.0350488580771752,18.47074820668616,18.50583025494019,18.92807082407456,18.78618792938101,75.67048458868209,71.53471933557216,85.70048561696841,400.0,399.28809145643874,382.3971861931388,361.30690071126605,{}
152,152,3,0,5.066666666666652,20.80426886503368,152.74136458358095,25.37613329610312,34.76668420130561,39.32596077959289,41.60853773006736,43.71191335756735,124.5928280855098,89.86513829359255,79.34883534780658,87.99657292621248,86.94482105856855,43.88142514447918,37.04503800479336,0.350583955881234,18.58094966171029,18.522611164090545,18.945234616917933,18.66859565068057,74.8496745806629,72.16186425223941,85.50084724775802,400.0000000000002,399.3132361956743,383.0678819873483,361.33519719501896,{}
153,153,3,0,5.099999999999985,13.78468295782251,152.74136458358075,25.376133296103127,34.76668420130572,37.04522232818132,39.66008709640854,43.71191335756733,117.52963648423442,82.83563536740618,75.78456512967978,85.42562391641616,84.37387204877223,41.31047613468286,32.487446578336176,4.499160767143735,16.01000065191397,20.80426886503368,18.94523461691796,18.81467229896441,75.14182787723064,72.16186425223947,88.05548824460438,400.0,397.378670380376,380.4686257138358,361.33519719501896,{}
154,154,3,0,5.133333333333319,5.18641434740745,156.5060148326369,27.929696018875728,35.09942072543486,39.702332118949705,39.70233211894993,46.4466498403926,114.2424757413296,79.16717913022671,76.63919263698688,86.8569695827722,84.81576041105393,39.54549493024388,28.35403774737449,8.903895180081577,14.394043986772203,18.69988286537944,16.885741739696574,17.702210575419258,73.34275713553382,73.64776540257219,86.59914310602899,400.00000000000006,399.24612055630666,387.0747193647137,365.4122449217844,{}
155,155,3,0,5.166666666666652,5.161827481381441,153.47216440002614,27.797291693234623,37.22246731843908,37.22246731843931,39.51411809374051,41.61598360714709,111.40462665870682,74.19397579967351,71.71453880316608,83.83820009080728,82.78141605604912,41.80167959709729,28.063487145242107,9.10008474375013,14.09045379677434,18.61123365921954,19.03587917818861,17.75984280635089,73.50520063983947,72.50712682923461,88.2053466672104,400.00000000000006,397.3534428371731,385.2397417424874,364.0094974559522,{}
156,156,3,0,5.199999999999985,9.52666909736857,153.35204655796693,27.82278635892009,34.73528282894115,37.25660641266271,42.16370213557841,41.59001959280282,113.42927105851548,78.69472362358772,73.81090811371689,82.93781178028303,80.45716616834454,40.415801620922366,31.52292112529381,5.499544517033314,14.86047135453714,18.628303206331243,19.05333819473717,18.909072211757348,74.23214982140456,74.51297762652968,85.98872442008937,399.99999999999983,399.6461564730943,383.3087427373992,364.01351509594497,{}
157,157,3,0,5.233333333333318,18.48445315235681,157.94813794707304,27.822786358920126,34.96506669838565,39.3473618117939,44.44444444444471,36.96890630471359,118.04208543538158,83.21212406208753,73.64483850489717,83.19632282600082,79.56097000560499,44.70094662276506,36.39983843096945,0.5441451673840447,19.508183128557107,20.922980295306147,19.0533381947372,20.06390585269412,73.79534674268433,72.35972970533055,85.98872442008967,400.00000000000006,399.30536949989136,384.9279190136375,365.9880880765757,{}
158,158,3,0,5.266666666666652,20.94150533557288,160.38860452770896,27.84742043257267,37.07383666743764,41.88301067114576,46.48273281170134,32.37643349516593,118.1465989585502,81.07312474532807,70.43307321853035,83.29232070671571,79.96624940740367,49.49287785525587,36.28228480728433,2.787341440972682,21.900539893357404,20.94150533557288,19.07020786876488,18.785275929917248,72.00241671891007,69.98803550946758,81.76284169666833,399.9999999999998,399.3309241937252,384.95626939240753,363.7187641190144,{}
159,159,3,0,5.299999999999985,18.44941638234448,156.43136852158983,27.46042157171856,36.685337244069714,39.17055854765471,41.44411556458815,29.83667439303792,112.34001446750688,75.65472119896856,66.34667377408687,79.14692024769113,78.32601575556816,48.91418052350264,33.48117607158952,3.471253280977521,21.30833517410804,20.72205778229408,18.870369777364225,18.693168006344592,75.12448823628824,72.20441368573637,82.66681588233958,400.00000000000017,395.1463064760114,380.6266042990719,361.8951809757687,{}
160,160,3,0,5.333333333333318,9.16082249270395,156.33903789952447,27.482467478111484,36.71478914118515,36.714789141185385,39.202005641970025,32.14456771985095,105.44898581031887,68.74432819208113,64.02478032855811,78.57055615137836,76.35071887721301,45.33141380927111,27.806382697439403,11.566520533808898,19.861701926742622,20.738693963386464,18.885519377476,19.83249354155606,71.2684598547819,71.38529339552736,82.73318284906628,400.0,397.4216194620024,385.4763729371384,364.4594401226411,{}
161,161,3,0,5.366666666666651,2.3067881965964,154.98458256477983,30.076838319088285,34.678630641565725,39.48585357693594,39.48585357693571,29.98824655575288,96.9948891129571,62.32598496845546,61.08313765150092,78.20479237649499,75.48370380306972,46.98295140738821,20.05477617427061,15.21335884233224,16.520894910082006,23.18293446006325,18.59792101169272,19.736726860493604,72.93930929285386,70.96033578490824,83.33222472767082,400.0,397.14961531927815,385.1714648526074,366.57615356191707,{}
162,162,3,0,5.399999999999984,5.161827481381383,155.09552265956128,27.797291693234527,32.646263460030816,37.00709925816596,39.311306909813325,34.703454082108074,99.50418298396924,66.98453224712678,64.6937500558497,78.07603389346582,76.21037573460478,42.44665653886568,22.34682995943865,10.953408121363168,16.444779305935185,18.61123365921962,19.03587917818864,19.94728849096657,73.41775534586941,70.36699357666282,87.84211102659539,400.00000000000017,397.43390047356144,383.4094821130382,367.0926801279168,{}
163,163,3,0,5.433333333333318,4.570533207725108,151.10434396995157,27.423199246350634,32.075245280336,36.63561063825042,38.91668794632373,34.27899905793846,98.29303324167796,66.27273151201419,63.82318790125544,78.1775605647614,76.49431165307976,43.14494259039077,20.841894510611496,12.203554609690627,17.10134137354146,20.56739943476304,21.069117051077583,20.841894510611382,72.08747248846936,70.38084511968111,80.11481137059833,399.99999999999983,397.72831445925095,383.6117979867879,360.645191483844,{}
164,164,3,0,5.466666666666651,9.187364291956923,158.74811109081557,25.26525180288126,34.529092584266664,39.046298240816576,41.4068913012717,34.452616094838056,103.38336559098484,68.90523218967624,64.16911011235425,78.53076808988112,77.1557157303306,43.46693292134478,25.43846865168313,10.007325505617132,19.632692022470337,20.671569656902854,20.79878051701009,21.924445955054296,72.87777505617373,67.83591640448873,85.2620076251887,399.99999999999983,397.45970373964326,381.2271876683178,362.4717952715372,{}
165,165,3,0,5.499999999999984,37.06860738134072,164.7527849749422,23.16787961333798,32.51766861542966,44.01897126534198,46.56686170382972,37.06860738134072,129.76080979270918,97.3050943760194,78.66635056797361,85.15429700656932,85.94143756713424,48.52840819604069,44.13950325228484,8.19341765315312,26.464619755963213,20.97940727327776,19.10472295347727,19.84548322394,75.3746718601567,70.86650319510295,81.21985863453038,400.0000000000001,395.1872567474844,381.1450672379855,360.0052929188472,{}
166,166,3,0,5.533333333333317,51.03872608929488,178.77107093133816,23.199420949679524,37.11907351948737,48.71878399432691,51.09142483961568,34.79913142451941,146.1563519829812,109.0372784634938,83.4291032901317,87.4935980658048,86.21007339980281,52.08970936191554,59.14909502492662,18.50414726819577,30.09152272515871,23.315129502630544,23.315129502630544,22.12297375706271,68.91814387171985,65.81629259554825,88.27981738290019,399.9999999999998,397.5300490974417,383.24010972333446,362.275133477092,{}
167,167,3,0,5.56666666666665,56.3731410734114,188.0425483766908,21.13992790252941,32.884332292823366,51.675379317293945,56.42205487096392,37.65542503388803,147.99813605536406,115.11912870198178,86.79524244510628,84.9892656984332,86.25344942110439,48.12928029883653,62.215898922886026,27.79398213129798,27.79398213129809,23.488808780588137,23.605960673320272,23.513817241682887,62.34231729515329,62.30619776021979,86.9403283272797,400.0,397.4053780244529,390.2607439595511,371.30896141567376,{}
168,168,3,0,5.599999999999984,51.774281122058014,188.13468466429345,21.15854101347556,32.913286020961806,54.12291049130443,58.82072522490092,35.34251310994828,141.13528330059157,108.24582098260868,82.21923287208551,78.9825399571738,80.79074828952673,44.662745809116245,61.08127746688024,23.90451415370501,23.94067832035205,23.50949001497274,21.158541013475443,21.15603748852868,61.768396633174405,58.1519799684686,84.63416405390176,400.0000000000002,400.00000000000006,392.784413069169,376.1812259542479,{}
169,169,3,0,5.633333333333317,46.813260595972864,187.0778484808376,23.37742675536304,35.143978497707565,51.48344196201777,53.81887803570893,32.81178204477234,137.94662781262966,102.96688392403546,79.4191500768278,76.2157394484907,77.98397367055952,44.41174583785414,60.7739679886422,23.774272451515458,21.436812144260102,21.16916028084093,21.039684079826635,21.037142765299336,63.74121034759355,62.48164624420207,86.52806434517238,400.0000000000001,400.0000000000001,390.51499843033366,378.82973992948297,{}
170,170,3,0,5.66666666666665,34.939902102705766,181.28508182222183,20.91750944102557,39.5108511663816,48.80752202905978,51.1844844823294,34.93990210270564,130.23637161545824,90.76165074030251,73.21128304358956,74.37336690142433,74.37336690142433,39.51085116638171,55.78002517606819,13.945006294017048,18.59334172535614,23.24167715669512,20.91750944102569,20.91750944102569,69.72503147008536,67.4008637544157,83.67003776410252,399.9999999999999,402.1884764142703,390.4878439155051,371.8740974603065,{}
171,171,3,0,5.699999999999983,30.8579689578858,179.86906181404456,26.03367999940125,33.21819194149599,49.70066181703838,52.06735999880228,30.8579689578858,120.9102532463708,87.69566904547283,72.16524280358101,73.81345758525731,72.8957702342874,42.60001281871223,47.30919790921621,11.94201039617542,19.06616219975797,21.300283635873782,21.43136354160024,21.306043826138875,75.14168927745072,71.57961337565928,85.23399901320053,400.0,399.9789947224096,392.87902671708974,376.3347795114218,{}
172,172,3,0,5.7333333333333165,23.39021309714158,170.76457555152618,23.506873237778603,32.82972853067025,44.50291550900358,46.78042619428339,32.829728530670366,112.49209238750028,79.66419520251547,67.85471571151993,72.08888835535345,70.62551990620989,38.59934155200108,40.95032692931397,5.733525563038143,17.428478332833265,21.180738805772425,21.1807388057723,21.04491757395465,77.79842427168433,74.27194620571515,84.20476714970997,399.9999999999999,399.9794831462462,388.2775374125519,369.57276882688336,{}
173,173,3,0,5.76666666666665,26.188620486630725,171.41642500340097,23.807836806027808,33.415891338754456,45.234889931452926,49.99645729265853,31.0416213937059,114.37677297103257,80.98164909678627,67.8523348971795,73.80429409868657,73.80429409868657,42.85410625085024,40.47332257024743,4.761567361205493,19.04626944482243,23.80783680602792,21.42705312542512,21.42705312542512,78.56586145989218,73.80429409868657,88.12116306165986,399.99999999999983,402.3524420218717,395.2100909800631,376.171355585364,{}
174,174,3,0,5.799999999999983,23.38821384818744,173.072782476587,23.38821384818744,32.826922451043814,46.77642769637509,49.11524908119373,35.16019505405672,114.69767022723508,81.89215338678535,70.1646415445623,74.84228431419979,74.84228431419979,39.75996354191864,39.75996354191875,4.677642769637487,18.710571078549947,21.049392463368804,18.71057107855006,18.710571078549947,77.18110569901853,70.1646415445623,84.19756985347499,400.0,397.6271500128612,388.2443498799116,369.54118006073935,{}
175,175,3,0,5.833333333333316,37.64640750723437,176.48322049619534,23.5290046920216,32.94060656883008,47.05800938404274,51.76381032244749,35.37185010232852,129.43091404290686,96.49760887933128,77.61798921582226,80.87385710393232,81.44422812082757,45.89110140102662,48.22011638668198,13.189829765701576,24.95373198916513,21.176104222819333,21.176104222819333,21.18690673175297,78.78249670864989,76.42971626395718,84.70441689127757,400.00000000000006,397.64017929516336,390.5814778875568,369.4128669023351,{}
176,176,3,0,5.866666666666649,51.131689744729314,181.2999797210696,20.917509441025675,34.862515735042564,51.184484482329104,55.82842433933967,37.25924290205087,144.11714044070146,109.26060502733168,83.64196734227528,82.26651111719673,82.74080636722374,45.34262590258868,61.56352345351468,22.31559151377394,24.68706776390934,20.91750944102556,20.91750944102556,20.928277907444794,77.78442100444079,73.23118660418083,88.34894905690624,399.9999999999998,397.60253838226623,388.2473299283446,369.5719004491824,{}
177,177,3,0,5.899999999999983,55.79886659703326,188.3785722593908,23.2495277487638,34.87429162314575,51.20177361792872,55.84728210861222,34.951704130437285,148.81514017715384,113.94640750714254,85.99471439494869,80.02685378058356,82.73516000316692,46.53253567385525,67.384096856577,28.149607596674286,23.54788374945292,20.92457497388752,20.92457497388752,20.923463117834444,77.82186110378996,73.2201372565687,86.02325267042612,400.00000000000017,397.6756793493233,388.32975677895166,372.0215047547654,{}
178,178,3,0,5.933333333333316,55.12782119234066,188.40940495286023,22.969925496808568,32.15789569553198,52.83082864265978,57.470735231760735,34.53136977826676,144.7287595813589,112.57607119384238,84.9228812723818,77.73590911481995,78.4260488253143,43.68108409008176,66.55088622060134,30.37804622227702,23.536143919962345,20.8001521967924,18.37594039744692,19.520244742516866,75.65359102281127,68.93067832575429,87.40652762650487,399.99999999999983,397.5456441204075,385.9562700284561,367.5259859805577,{}
179,179,3,0,5.966666666666649,56.47173290070764,195.2561866121221,23.50949001497286,32.91328602096182,56.42277603593445,58.82072522490067,35.264235022459,148.12844424463137,115.2204878515698,86.90841732434535,78.21637668975438,79.29538863060009,43.50815925921506,69.21262149447455,32.5501935488478,23.222734771314208,21.15854101347545,21.288748648677345,21.18460110527212,78.64798146609269,71.67037091528994,91.80749338508578,399.9999999999998,399.9101767951156,392.7844130691691,376.2179548698852,{}
180,180,3,0,5.999999999999982,53.7561480679572,196.5492683416209,23.488808780588062,35.058357435624174,53.75614806795697,58.47732151977408,37.39558126466593,149.60058350548863,114.54781436304218,87.55718673214369,77.34268085610506,81.6561378829366,42.11611513698051,69.97385843526763,30.97301781766544,21.806921635648564,21.03501446137443,18.84330092519888,19.88982962372336,78.7804998650488,72.90940557852804,86.50886001471008,400.0,399.83608795924255,392.8274653695329,376.3583569380992,{}
181,181,3,0,6.033333333333316,53.14723636768365,189.6082184116436,20.796744665615392,34.66124110935895,55.5061055113809,57.81493169918937,34.73818069594906,143.28509711608118,108.6298018017127,81.92096687563378,74.52772164532303,75.59920646131013,40.49022065746704,68.06309658886767,29.65631862915336,20.560603080107512,20.92472584073913,20.796744665615503,20.786805430149343,74.95631557171794,75.09918021384942,83.21906621569428,400.0,397.6167949608108,388.3159205206739,372.1454567071487,{}
182,182,3,0,6.066666666666649,53.46578619539645,190.84380621535936,20.921394598198635,34.868990996997645,53.51629710528709,58.16145840105962,37.266163325117006,146.46821022704106,111.60498314059409,84.73702224808426,77.33972204064094,80.80127918899575,41.96545309991859,67.23956214201655,28.593410417232803,24.159772151873995,18.596795198398794,18.7415195227265,19.82097106866217,77.69536147369104,73.19059532172247,86.01017779259415,400.0,397.7511167719202,390.70562214717626,372.0521157827056,{}
183,183,3,0,6.099999999999982,51.76087284295397,188.262100335861,21.15306146615585,32.98859620580851,51.76087284295389,56.45710809588522,32.98859620580849,138.68998631815592,105.86971535949122,79.66740625070054,77.07519129677314,77.88563091455273,44.71719773395591,60.93790831922104,24.55155312685224,24.76608126097028,21.15306146615585,21.28323538074824,21.184653244164902,76.81299024396219,75.69267665467862,86.99434158309883,399.99999999999983,402.2447715450464,395.03198516046825,378.5872020763848,{}
184,184,3,0,6.133333333333315,39.684059812835,179.98781452597072,23.343564595785352,35.0153468936778,53.690198570306165,58.40557995872823,30.43628449176933,128.41082494563204,93.40343328102016,73.42565264151267,72.72567697467844,76.53067290721333,44.36768842087986,53.62890493591772,14.825125661669404,24.22992692887852,16.340495217049654,16.506392822746047,16.40455793555202,78.14600136913862,73.51539311161963,88.73625536466672,400.00000000000017,402.0585948395508,390.1798439252654,373.8543109843243,{}
185,185,3,0,6.166666666666648,37.78985784720338,179.75027032533353,21.256795039052044,33.06612561630315,54.37424132873336,56.73397097682286,33.15037065886952,125.2011838919522,92.14305386196342,73.05367454043369,74.56889866384972,76.45671888318782,42.57531389401686,49.455921798709255,12.891824918900056,22.529643933414945,5.281293187900111,5.281293187900107,5.998797144343598,75.56248825297519,73.20271297880265,87.51662158961152,400.0000000000001,399.60234051091726,392.41820901118376,378.1641950619966,{}
186,186,3,0,6.1999999999999815,35.00164074036554,175.25692751353316,21.00098444421925,32.6681980243411,51.38874517682893,58.38271810230694,30.69164705993019,119.09705092007728,86.4634205315284,68.61235233383059,70.86892522257335,73.61442223721053,42.10388914912653,46.50420628217523,10.248601869707043,22.08307301955824,3.29998633602239,5.217736534632131,4.751339582408491,77.40045008387904,71.83423695831334,88.79355105065054,400.0000000000002,397.2407811602144,390.1318041000492,373.61325464480274,{}
187,187,3,0,6.233333333333315,39.68405981283504,172.9945567970996,23.34356459578521,32.76425423894267,51.40886829120418,53.89280381312907,28.1093740886296,123.720892357662,91.06982465302256,71.06269123056995,75.51220928330474,78.44975518219758,49.07429619326888,46.655140747122005,7.94865360876895,24.36435127905247,5.219779727333494,7.381883282994881,7.084669520859279,77.5857710942879,74.12983474264922,88.82832136421615,400.00000000000006,397.2797634010704,385.51527657432064,369.0129544995888,{}
188,188,3,0,6.266666666666648,42.04706649821103,170.6681501879454,21.0235332491054,32.70327394305295,51.44392138970679,56.11139981327165,30.457037449650272,126.162826790033,93.46712034234125,72.2812050265029,77.84971501845223,78.64000573783358,47.98280498521342,47.72748029125944,11.31331560591434,27.90942071292477,9.631360912194165,9.631360912194104,9.38014292311982,79.86799593256478,74.20221939053783,91.221690969577,400.0,397.44769236623614,387.9432508704261,369.1980628385129,{}
189,189,3,0,6.299999999999981,39.72263501416866,166.16348999895666,21.02963030161877,35.12718500576061,51.45884068450281,53.79316077393256,32.79610298903979,128.5144073987811,93.49422682031704,73.44378384702907,80.52627342002336,82.99395552572935,49.17219490046489,46.64403039020726,10.354587659236929,29.22509787934144,14.019753534412558,11.914499474621886,11.769875925744827,79.30452884808074,74.68367314033713,88.91466763012053,400.00000000000017,399.8976152877729,388.133134126939,367.0362074053372,{}
190,190,3,0,6.333333333333314,39.46823462312799,169.735480690401,20.89494774165579,34.824912902759834,48.810124402340335,51.12927671705796,30.270754127552824,125.3911814670589,90.574533539285,70.65486887545569,77.76938012624203,80.06515518531921,48.8569629759877,46.25030171099377,7.867812442045988,26.71229938530508,16.251626021287958,14.122111688387148,15.125809634024565,76.59757827317134,76.50192097904312,88.22311268699187,400.00000000000006,397.4382324742547,385.57048701652366,366.9399495282068,{}
191,191,3,0,6.366666666666648,37.43597057984711,168.27968753264926,23.35191685326613,35.02787527989918,49.09459371041389,53.76014983076061,28.02230022391944,123.7871874722266,88.76800493100451,69.92845333653418,78.50363002430083,77.7895278712599,50.15377454857549,45.381191825751785,9.235721179329405,28.004706101755687,18.68153348261303,14.204416484568704,15.269884372525553,78.72976237276384,72.79081279997325,86.52822686563692,399.99999999999983,397.3189863054245,387.89495067295553,369.07850489607193,{}
192,192,3,0,6.399999999999981,35.311422397350945,169.26616461289206,23.605960673320265,35.233213170882166,49.38239250639024,54.075298714241626,30.625659739551065,124.51284381886894,89.28837434461131,71.55330353722206,78.05052793573952,79.0565497780907,48.12137812579431,45.773993826975016,6.790647435869914,25.4858866728946,18.791047024470515,16.609095970748015,17.689217394673506,80.39791223455882,72.09823203516214,84.85281374238559,399.99999999999983,401.99502484483526,392.4388816899632,373.5902236039024,{}
193,193,3,0,6.433333333333314,32.59649678875074,165.03782976027196,23.22404236138872,34.913391192264314,48.7704889589161,53.46576064266692,27.965450259653945,118.46538252403104,83.73547555753449,67.21072675834967,74.38891808588858,76.2816750031003,47.55105349561245,42.97986697857277,6.553224420912329,25.123669646386247,18.57923388911084,18.72382154749197,17.481217188210394,75.42457753115536,70.81767861945127,83.73547555753427,399.9999999999999,395.24563683023615,385.7708479694881,367.123557845444,{}
194,194,3,0,6.466666666666647,32.72113360658246,170.6813610380585,23.372238290416124,32.72113360658268,49.13731708540534,53.80693329238503,30.47367041557012,119.2213270382356,86.5088600147101,69.986837367411,77.77653008661184,76.29564569022602,46.75621588101501,42.00053021782446,5.556326414082264,24.241957171732565,21.03501446137446,18.69779063233301,18.68563075765041,77.70429182337364,76.4521619272424,81.83621611701612,400.0000000000001,399.83608795924255,388.1551114915127,374.0215412904261,{}
195,195,3,0,6.4999999999999805,35.02787527989921,170.61288247413398,23.351916853266182,32.69268359457279,51.42726223027064,56.09322917754971,28.119431538469843,119.11766778770787,86.43364324086676,68.78304360067636,74.95510960857348,76.68761936517615,47.88464466165692,43.14430546650794,6.593162129293432,25.337955190314005,18.826917258786988,18.826917258786786,18.74479306102046,78.08325222466158,73.41510093603767,84.09932763561476,400.00000000000017,397.4219089102645,387.89495067295576,369.07850489607193,{}
196,196,3,0,6.533333333333314,37.21905495140288,174.2638084900811,23.3324028792736,34.82491290275988,48.81012440234053,53.44864684298783,30.27075412755271,125.39118146705884,90.57453353928491,71.90120504787421,74.6643357026835,76.24326750543185,45.35840451531169,49.78419820483328,11.124292246635036,22.870587930716283,18.57328688147203,18.71782825893987,18.636179914255308,77.7743528899149,75.38203197665996,83.61203003859083,400.00000000000006,399.871964416306,390.3774532292545,371.72683271721576,{}
197,197,3,0,6.566666666666647,42.35893070399821,185.7561993160616,21.146856456058806,35.244760760098,54.09302174544065,58.78824216566025,32.895110042757985,131.60141752312603,96.36432942774952,75.11820897575444,73.31804240610859,74.71287345676137,41.13559436134608,57.43246655145174,18.36527550026176,20.856896778778378,21.14685645605869,18.79720573871889,19.99853920914586,78.62316905175385,76.23884246944135,84.62005356925734,400.0,399.88266454750266,390.3886508505978,376.1276364425091,{}
198,198,3,0,6.59999999999998,48.77048895891606,188.3439767149642,20.90163812524974,32.513659305944,53.46576064266656,58.10653542380905,32.59649678875081,134.71946493458253,102.21217394029544,77.66620170566307,72.9765604443229,75.47690489233344,41.81796180870992,60.30136933108349,24.17199022586135,21.934839930273142,20.90163812524974,18.57923388911084,18.567151116326045,74.72321254676086,71.40935890035473,83.63880189564127,400.00000000000017,397.68078709869775,390.50244875165447,371.8458564704093,{}
199,199,3,0,6.633333333333313,53.41529743119381,190.56455375758784,23.22404236138863,30.191255069805177,55.73770166733257,60.42715525487043,32.596496788750834,139.36360619316895,109.1777027310933,82.3325836037319,74.93353203758147,75.94908813489633,43.01605469340348,63.762414967119184,29.813825428311706,22.995091632055505,18.57923388911097,18.72382154749181,19.80334389763766,75.29623064376528,73.04749928542549,83.63880189564159,400.0000000000001,397.463727227387,388.0917457268294,374.0873494511453,{}
200,200,3,0,6.666666666666647,55.828424339339655,190.7092558230552,23.24167715669507,30.21418030370365,53.45585746039871,58.28982976371192,32.62124840346257,141.85041240806328,111.65684867867932,83.55168683726595,74.49288064966527,76.52735007917295,43.04287245683224,66.09617989770311,31.96765426069578,22.854675810179288,20.91750944102562,18.593341725356165,19.77889510462193,73.60204788171518,72.53064090404541,83.70231164679308,399.9999999999999,399.86493330697147,390.52242576276296,374.2198727576866,{}
201,201,3,0,6.69999999999998,53.79289185083124,194.2489371210293,23.38821384818741,35.08232077228112,53.843711788335,58.51729235254755,32.82692245104365,145.02578609502044,109.94948334980432,82.96273081855463,74.50277467307649,77.53660728088084,43.33104398537944,68.90877107014876,32.07108818012932,20.523337977300912,21.04939246336888,21.049392463368765,21.0449653229116,74.76658620418999,74.74260333772509,86.53639123829348,399.9999999999998,399.945295404558,390.5901736611968,376.550242955818,{}
202,202,3,0,6.733333333333313,56.829155615816745,196.4920083724257,18.926629630558093,33.12160185347672,54.41406018785455,59.33468203090988,35.56620408498451,144.39309825237598,111.29457710833984,82.71435811830622,72.93924430508355,76.02866299173172,39.05218308591168,69.70500911749866,32.438896209805534,20.70875963393837,18.926629630558207,18.92662963055798,18.92268945571982,70.96008545894972,68.49820494302685,87.53566204133172,399.99999999999983,402.2534996519347,395.1004767938797,380.9057685382332,{}
203,203,3,0,6.766666666666646,54.16034118874261,195.3203959540608,23.52574887096699,32.936048419354016,54.109222403224194,61.21217217018639,33.01996205451232,143.58418099762238,110.67108398523992,83.42647149793004,74.89264245364689,75.59223550604042,42.361565517347,68.1379509132953,31.08364303479584,21.77181826845436,21.17317398387041,18.967065111947992,18.84076461790869,72.85417304236216,75.18212923394753,84.69269593548162,400.0000000000001,399.9446500844896,392.8800061451507,378.79378022797033,{}
204,204,3,0,6.799999999999979,54.15378521046701,195.46667469355475,21.17061102238204,30.57977147677403,56.5039475188445,58.85427983894091,35.36267444563522,141.2157947179614,110.6576875182602,83.41581860622614,72.54181929075082,77.92426711245764,40.004679755928805,65.77739162293028,31.13091442825009,19.420453626969103,18.81832090878398,21.17061102238204,19.990217247735245,75.18455268068806,77.58483346604373,84.68244408952815,400.00000000000006,402.30350703421584,392.8958289209184,376.3958206536114,{}
205,205,3,0,6.833333333333313,51.48344196201776,194.15934578543656,21.03968407982665,30.390654781971868,53.76808153733492,58.49030305492318,35.14397849770757,138.00604061897891,107.63775607141778,81.73132116087254,72.09319366548652,75.10510850779474,38.58865295965131,64.2019767786395,27.38432974626528,20.46897326832584,21.03968407982665,18.70194140429033,18.72206265978707,74.67139277050251,72.43052812782514,84.15873631930657,400.00000000000006,399.9248486291051,392.9146701767442,376.4419057244049,{}
206,206,3,0,6.866666666666646,51.756647516127664,195.3912232385277,21.30347166897076,30.5834735322573,54.1092224032246,58.86140486960187,35.36695553004218,138.8816437435215,108.32068237748504,82.19156064791605,73.0389606052646,75.06344299880482,38.834906273687125,64.5834128837422,30.03386305386607,20.74791387152049,21.17317398387048,18.82059909677365,19.990248305075625,76.93033095452449,75.81504724071783,87.07705657161017,400.00000000000017,400.0,392.9081796845306,376.4193336602027,{}
207,207,3,0,6.899999999999979,49.10937309748476,194.32422168708868,21.176394632867023,32.73958206498996,53.8372701072032,58.51029153990831,35.15598860621816,138.05320282410764,105.3382548289547,80.531496232559,70.27806890897318,74.60231410037318,37.43439709810093,65.36635623358723,28.6890048622721,17.121346156986192,21.04687418463636,18.70833260856564,18.702057634514745,74.05724117708735,75.31696526645885,86.52603831461595,399.99999999999983,400.00000000000006,390.599452714168,376.5705510380248,{}
208,208,3,0,6.933333333333312,48.85210878129467,192.98954216592887,20.91292068097854,32.53120994818886,55.8161770283575,58.137900918714365,34.93223719272841,137.17455880090344,104.66782613822652,80.02013566155267,72.69333688464201,73.69897593245332,38.42977789850136,63.6904730280462,27.463523519988485,18.388828302834213,20.91292068097865,18.589262827536658,19.74165226000912,75.30320965158091,73.12432504798977,85.9753405773566,400.00000000000006,397.5900132650829,390.5473723190435,374.1738557262483,{}
209,209,3,0,6.9666666666666455,48.515214786513845,191.97315621718005,20.79223490850597,30.03322820117534,53.18591051011216,57.80239457843067,37.03609806495879,136.32422803660594,106.29653129436772,81.90163893637612,72.23219433948236,75.47939588321526,36.98201758140328,62.31018962252051,26.23017246993186,19.30280917663481,18.481986585338632,18.62581744394952,18.54512881643052,74.82995557446878,72.80947461392378,83.20102022909674,400.0,397.69165150456615,390.6779510778702,372.0647572685537,{}
210,210,3,0,6.999999999999979,51.37421707718556,196.5032930698991,18.681533482612984,28.022300223919423,56.09322917754979,58.56630951614138,35.02787527989921,133.10592606361718,105.08362583969776,79.32839683507814,67.15471569930799,70.696809614681,33.927940523871825,64.0659614488718,32.56187700019564,16.42298492844452,21.14606008200871,21.01672516793961,20.99869327987369,60.49364488916967,56.16576222123945,84.19653359482281,399.9999999999997,399.87046742171736,390.3194491045408,376.2268480834032,{}
211,211,3,0,7.033333333333312,48.43852488100655,194.24774134197807,20.759367806145725,32.37462355699624,53.10183745242737,57.71102406306108,34.67574765082666,136.08918895139922,103.82246471659724,79.34988907396189,67.35262734521041,71.0957730045809,34.79205901337923,66.68078068840032,31.264864065126176,15.380489536259349,20.75936780614561,20.75936780614561,20.79125457592613,76.92644220475404,74.98288580469637,87.77197992647466,400.0000000000001,397.5450887164846,388.0638551594,371.6198149569255,{}
212,212,3,0,7.066666666666645,52.24783665780052,202.3689370660115,21.37411499637285,30.87372166142745,57.19520605929044,59.56223077136501,35.6235249939548,140.1191983095556,109.24547664812818,82.96777572229234,72.87205943063123,74.82141108647033,38.28911709185411,66.01322953045621,29.81786051339236,18.687303219248747,21.505649253221744,18.99921333010928,20.14931696112808,64.18420822374293,63.6788207574142,80.88623611177233,400.00000000000006,404.29867277505485,399.4355860036086,384.9172749002549,{}
213,213,3,0,7.099999999999978,46.6490146501947,198.75162925774453,20.99205659258755,35.06442314977169,56.1728521917785,60.82287370157651,39.65166245266543,142.2986118473966,107.29273369544768,83.77838872949508,74.54202635661181,75.18109581583212,35.29954418618263,67.25301714720183,29.572034881848936,16.235981638495332,14.187743919476867,11.893211799560868,12.877852499007076,73.92707272604116,72.68510755057508,86.58388883729101,399.9999999999999,399.6734471188448,392.4136074429102,375.9878748216765,{}
214,214,3,0,7.133333333333312,58.747713918338185,200.4646406592609,18.784247062373574,30.614577157236543,58.88831495051125,61.4538492138481,37.56849412474682,145.65363797114608,115.07747026161913,85.60090550117809,72.41118540408718,78.30687690880404,37.86848004952799,70.21919753694874,34.5427053545593,20.93726342059722,4.696061765593309,7.425125606053298,7.180649909591011,58.503400316037016,58.65457189308097,82.48241811915811,400.0000000000003,397.65689806665466,392.6901772047248,376.27881717054765,{}
215,215,3,0,7.166666666666645,54.3032893772967,203.73123429947933,18.87027327698277,35.460301364221216,59.016760818570994,61.735289401654384,40.168646808044095,148.7717912344044,113.31987971479214,86.13715337082738,77.96823151632032,83.0199026480667,40.32712101025868,68.24684487498394,30.162173001256747,23.42250444256069,5.2744017251663164,5.274401725166411,4.9469413643810185,58.36528329532388,57.26870102526186,82.86016284211902,400.0000000000003,399.81217553594416,392.579924491493,375.9431347987193,{}
216,216,3,0,7.199999999999978,63.283543413377245,200.106409460807,21.224328093117304,32.89729106866776,56.44702024394756,61.34403091381719,37.50135905977911,154.7641151251546,121.90195173544144,90.1113666952017,81.34122265235465,83.13003390188726,44.86934884244113,72.29778800194015,34.98119776863632,26.03714152097359,3.314683161860206,6.629366323720473,6.136616369924241,58.38481161668716,61.11771769236179,84.670530365921,400.00000000000017,397.4649281367005,392.6045963800125,375.89880840871297,{}
217,217,3,0,7.233333333333311,55.97412401173805,194.3056878544392,20.9720994515625,37.3564811735744,56.11944868040655,60.76504941634487,37.35648117357452,151.626400726942,114.27650232918587,86.21108409352087,83.01808097894593,85.5337804025504,46.92747001723626,67.24658074634908,27.76945132978733,26.02781326729189,6.990699817187468,7.368844620278376,7.160067590258677,60.37678616650612,58.4416327637336,86.50157356377827,400.0,397.480697357244,390.3262457968676,373.56481173574457,{}
218,218,3,0,7.266666666666644,55.831885076289446,194.21708821568856,23.379312529559368,34.97238648812978,58.344023083738335,62.982955610596,34.89492817268087,148.9577068973143,114.01383427263151,85.92095637469538,83.58069686254407,86.5896019495957,50.33945971035507,63.59297021284442,26.7935833942214,29.75472808306563,11.63164272422695,12.527662609533705,11.904279253136565,73.07340925696724,69.08541600666871,86.57568498434797,400.00000000000017,397.4483130025092,387.7439113313896,373.4391384462222,{}
219,219,3,0,7.299999999999978,52.791673743075584,191.8868067169589,23.06738064994345,34.734042915282735,57.79392956331508,57.793929563315295,32.13406227839378,142.47448633297333,107.903052866508,81.28859776682157,80.90022021849313,84.19554487097764,50.58323341563619,59.71599030966468,21.207767942060627,28.292715944902056,13.77174097645449,14.51668961048907,14.052205839523026,72.94436498606649,67.03631864482645,85.42057333972427,400.00000000000017,395.1700492157375,385.5335965897659,369.0780903990972,{}
220,220,3,0,7.333333333333311,48.87768170028148,191.78451074293773,23.248742331546616,34.950523389456514,55.99038592465833,58.538837422615664,37.270569238965614,144.31084467408522,109.36797503186251,84.71391535141402,87.70535142249037,87.124835115628,50.19096600045657,56.60033991907994,17.883456432831167,30.216466135764108,16.274119632082698,18.743735300070817,18.7423836215562,64.24775371662372,64.11743372936905,84.21052631578947,400.0,397.1998469252041,389.8170085853362,375.5229670974167,{}
221,221,3,0,7.366666666666644,41.28600544039202,189.4741072362952,23.05106775382556,34.70947953539865,55.238815476779365,57.75305858695589,36.77027873456867,135.637000300282,101.02555042506528,80.32358779317985,83.17244499084825,86.60053041542835,48.14686873901712,50.66473837845013,14.24428598834163,28.169405402670805,16.218674675003378,16.698147583082616,16.442989053762176,73.3019231649019,69.33007246607798,85.36016522662398,400.00000000000006,397.44026926352416,385.5134960551706,371.33327750898576,{}
222,222,3,0,7.399999999999977,43.32839633187256,187.85916807462485,20.62173758914079,34.235174792173744,57.1141414392285,57.65637646142418,31.882059331973995,129.98518899561745,95.7545589689319,73.91361509881824,78.86658930647093,77.74740763454952,46.63653839273036,51.422825968395045,15.84713622688912,27.15801482609595,18.360098562922893,18.77901402684818,18.49030996270369,58.340321195910064,56.3400816120502,82.48695035656316,399.9999999999998,397.14395911022825,389.549733927395,370.9466971060229,{}
223,223,3,0,7.4333333333333105,41.25414917612047,186.2596984413643,20.59531617878894,34.4017213468925,52.83108849685754,57.39198910731179,32.11878196638623,128.33238900787643,93.9346684400114,73.16688369565952,78.44513593214504,76.49022769640976,45.3716429621129,50.6676670916504,14.484092837493904,25.609297888133483,18.306947714479094,18.44941638234444,18.57162823948613,54.77297438669484,55.91037554203183,80.38657662759874,400.0,399.3711099942871,389.7085447939893,370.983983029012,{}
224,224,3,0,7.466666666666644,39.123773692982994,189.610652853666,23.01398452528401,34.82647811280562,53.13190913453989,57.71877954930962,32.30166656610974,129.0631146505808,94.38539821571374,74.53822965294592,80.04856021806074,75.88308354896753,45.70122974090884,50.8188153629377,14.710083322854985,26.13539075808228,18.411187620227214,21.21784534703076,20.97615036936236,63.08911949389528,62.2203200743416,83.36019737583261,400.0000000000002,397.0829448697403,389.36506107107147,373.0963687761145,{}
225,225,3,0,7.499999999999977,41.72949020421969,188.6963568336644,20.99314474540791,34.851766331024734,53.52222735425622,58.1427938873009,32.45627015883743,129.90785085774334,95.0787732741087,73.9745232115215,79.81649197878767,77.08549031929329,46.201423726489566,51.06973103254495,14.521804476354871,26.300733372956643,23.298677015843825,20.99314474540791,21.12370414017608,59.65457537956411,59.39334913387336,81.43819771475313,400.00000000000006,399.40836326364587,391.7043711914387,375.0857028928347,{}
226,226,3,0,7.53333333333331,41.85574644591951,188.76181332122627,20.89565169003459,34.90339165283759,55.77008642865893,58.22891980749187,32.504347073387095,130.10028112204776,95.2196118250514,74.02637624262127,79.00094872612533,75.98067257542641,45.1560895079989,52.32184272828465,15.663981212938666,27.212095906787454,20.89565169003459,21.02424152951495,21.023490852904388,56.319267045386255,55.4901716314688,79.24582182211049,399.9999999999999,399.46058906078446,389.5058972765453,375.2105623611964,{}
227,227,3,0,7.566666666666643,46.88377460212464,187.8271638376137,23.4126397696468,37.533316820219135,54.05227623551762,56.3851032250792,35.11895965447011,142.89384472966617,105.38288979678144,81.74146953216496,85.22852143007515,83.12089753252678,49.18578466525878,58.51616461620336,18.54235406494832,25.741428950956333,21.20104702146248,18.8758736390957,18.862049824688825,78.97669323959451,75.57844571939006,87.13151587467071,400.0,402.1048460775227,392.5651146172187,375.6543276752275,{}
228,228,3,0,7.599999999999976,58.1582136211349,189.13494583365105,23.37931252955932,35.20373886635926,53.55610501369688,58.34402308373837,34.894928172680864,151.37232325267914,116.33968820185471,87.08710715781399,87.6574568569772,86.72843363565971,52.44277285399653,64.02616365143729,24.44271855074157,31.604429206214945,23.379312529559435,21.06580093141781,20.955941523897764,78.29666591813191,77.76747547560922,88.67554305676025,400.0000000000003,400.00000000000006,390.2758481023921,373.8446885745154,{}
229,229,3,0,7.63333333333331,64.7638504099305,187.58957341698672,23.23049797283998,37.05649971300752,53.215208419019,57.8342355166554,36.98433508811764,161.9549956143418,124.90771346993697,92.41054827310109,95.977354484143,91.14643891710784,56.71874701984632,68.23223129508972,28.801515045235305,35.91138832448371,20.80368848706603,20.80368848706616,20.8251630524893,75.71599607399799,74.96821307467809,85.6511308334999,400.0,397.453910476944,385.4907336029905,369.1637171478807,{}
230,230,3,0,7.666666666666643,69.29164612814002,189.7980872007912,18.611233659219568,37.00709925816592,55.59458338646908,60.19673546685023,36.93503083678472,161.73909150820157,124.74119753058942,89.9352666195,92.20284233136738,87.44152850067451,53.064842643071984,71.66967643650446,32.80545229347388,35.1027862167831,23.199529123247085,23.19952912324697,23.19950164005104,61.26620571644048,62.30179147461615,83.39187507970351,400.00000000000017,397.4339004735614,383.1522699246037,364.5434451436054,{}
