,video_id,frame_seq,gap,time_seconds,m1,m3,m4,m5,m6,m7,m8,m9,m10,m11,m12,m13,m14,m15,m16,m17,e1,e2,e3,b1,b2,b3,m_0_16,m_1_15,m_2_14,m_3_13
0,3,0,0,0.0,0.0,74.00675644831355,11.0,12.0,18.0,19.0,17.029386365926403,40.01249804748511,28.0178514522438,28.0,31.0,32.0,14.5,8.5,4.5,3.5,8.0,8.06225774829855,8.0,29.0,30.0,34.0147027033899,162.01234520862909,163.02760502442524,159.0125781188394,152.0131573252789
1,3,1,0,0.0333333333333333,1.0,75.0066663703967,12.0,13.0,19.0,19.0,16.0312195418814,40.01249804748511,27.018512172212592,27.5,30.0,31.0,14.5,9.5,3.5,3.5,9.055385138137417,8.0,8.5,29.0,30.0,34.0147027033899,163.01226947687098,164.01219466856725,160.0124995117569,153.0130713370593
2,3,2,0,0.0666666666666666,1.0,74.00675644831355,12.0,13.0,19.0,19.026297590440446,16.0312195418814,40.01249804748511,27.018512172212592,27.5,30.0,31.0,14.5,9.5,3.5,3.5,9.0,8.0,8.0,29.0,30.0,35.014282800023196,162.04937519163718,163.07666908543356,159.07859692617356,153.11760186209813
3,3,3,0,0.0999999999999999,0.0,74.00675644831355,12.0,12.041594578792296,18.0,19.0,15.033296378372908,39.0,27.018512172212592,27.0,29.0,30.0,14.5,9.5,3.5,3.5,9.055385138137417,9.055385138137417,9.0,29.0,30.0,35.0,163.02760502442524,163.02760502442524,159.0125781188394,154.02921800749363
4,3,4,0,0.1333333333333332,1.0,74.02702209328699,11.0,12.0,19.0,19.026297590440446,16.0312195418814,39.0,27.0,27.0,29.0,31.0,14.0,9.0,4.0,3.0,7.0710678118654755,7.0,7.0,29.0,29.0,35.014282800023196,164.00304875214974,164.00304875214974,161.00310556011024,154.00324671902212
5,3,5,0,0.1666666666666665,0.0,76.00657866263946,11.0,12.0,20.0,20.0,15.033296378372908,38.01315561749642,26.019223662515376,26.0,29.0,30.0,14.5,8.5,3.5,3.5,8.0,8.0,8.0,29.0,30.0,33.0,161.01242188104618,162.01234520862909,159.0125781188394,153.0294089382822
6,3,6,0,0.1999999999999998,0.0,74.02702209328699,11.0,12.0,19.026297590440446,20.0,16.0312195418814,39.01281840626232,27.018512172212592,27.0,30.0,32.0,15.0,8.0,5.0,4.0,8.0,7.0,7.0,27.0,28.0,35.014282800023196,163.01226947687098,163.00306745579974,159.00314462299164,153.0130713370593
7,3,7,0,0.2333333333333331,1.0,76.00657866263946,13.0,13.0,19.0,20.0,14.035668847618199,39.01281840626232,26.019223662515376,26.5,30.0,31.0,16.5,8.5,4.5,4.5,8.0,8.06225774829855,8.0,27.0,28.0,35.014282800023196,163.00306745579974,163.00306745579974,159.00314462299164,154.01298646542764
8,3,8,0,0.2666666666666664,0.0,76.00657866263946,12.0,12.0,19.0,20.0,15.0,39.0,27.0,27.0,31.0,32.0,16.5,7.5,5.5,4.5,8.0,8.0,8.0,28.0,29.0,35.014282800023196,164.0,165.0,161.0,155.00322577288512
9,3,9,0,0.2999999999999997,1.0,76.00657866263946,12.041594578792296,12.0,20.0,20.024984394500787,16.0312195418814,39.0,27.0,27.5,32.0,33.0,16.5,6.5,6.5,5.5,7.0710678118654755,8.0,8.0,27.0,28.0,35.014282800023196,163.0,164.0,161.0,156.00320509528
10,3,10,0,0.333333333333333,0.0,76.02631123499285,13.0,12.0,21.0,20.0,14.035668847618199,39.01281840626232,27.018512172212592,27.0,30.0,32.0,17.0,8.0,5.0,5.0,8.06225774829855,8.06225774829855,8.5,27.0,27.0,36.013886210738214,164.02743672934722,165.0272704737008,161.01242188104618,155.0129026887762
11,3,11,0,0.3666666666666663,1.0,77.02596964660685,12.0,12.0,20.0,20.024984394500787,16.0312195418814,39.01281840626232,27.018512172212592,27.5,31.0,33.0,16.0,7.0,5.0,5.0,8.06225774829855,8.0,8.0,27.0,29.0,35.014282800023196,166.00301202086666,166.01204775557707,162.01234520862909,156.00320509528
12,3,12,0,0.3999999999999997,1.0,77.02596964660685,12.0,13.0,20.024984394500787,21.02379604162864,15.033296378372908,40.0,27.0,27.0,31.0,33.0,17.0,8.0,6.0,5.0,8.06225774829855,8.0,8.0,29.0,30.0,36.013886210738214,166.0,166.0,164.00304875214974,157.01273833673497
13,3,13,0,0.433333333333333,0.0,78.02563681252464,12.0,13.0,20.024984394500787,21.02379604162864,16.0312195418814,41.012193308819754,28.0178514522438,28.0,32.0,34.0,17.0,8.0,7.0,5.0,7.0710678118654755,7.0710678118654755,7.0,29.0,30.0,36.05551275463989,167.0,168.00297616411441,165.0,158.00316452527144
14,3,14,0,0.4666666666666663,0.0,79.02531240052139,13.0,12.0,21.02379604162864,22.02271554554524,15.033296378372908,40.01249804748511,28.0178514522438,28.0,32.0,34.0,18.0,7.0,6.0,5.0,7.0710678118654755,8.0,8.0,28.0,29.0,36.0,167.0,167.0,165.00303027520434,158.01265772082945
15,3,15,0,0.4999999999999996,3.0,78.00640999302557,12.0,13.0,20.0,20.024984394500787,15.033296378372908,43.01162633521314,30.01666203960727,28.5,33.0,34.0,18.5,9.5,4.5,6.5,8.06225774829855,8.0,7.5,29.0,30.0,36.013886210738214,167.0,169.0,166.00301202086666,160.0124995117569
16,3,16,0,0.533333333333333,5.0,80.02499609497022,11.0,13.0,21.02379604162864,22.02271554554524,15.033296378372908,44.01136216933077,31.016124838541646,28.5,33.0,35.0,19.0,10.0,4.0,7.0,8.06225774829855,8.0,8.0,28.0,31.0,36.013886210738214,169.00295855398508,169.0,167.0,161.01242188104618
17,3,17,0,0.5666666666666663,10.04987562112089,81.02468759581859,11.0,12.0,22.0,23.021728866442675,15.033296378372908,48.0,36.0,31.0,34.0,36.0,20.0,13.0,0.0,9.0,8.246211251235321,7.0,7.0,29.0,30.0,35.014282800023196,169.0,169.0,167.0,160.0124995117569
18,3,18,0,0.5999999999999996,11.045361017187261,83.02409288875127,11.0,12.0,23.021728866442675,23.021728866442675,16.0312195418814,50.0,38.0,32.5,34.0,36.0,19.0,15.0,2.0,8.0,8.06225774829855,8.06225774829855,8.0,29.0,30.0,36.013886210738214,170.0,171.0,168.00297616411441,162.00308639035245
19,3,19,0,0.633333333333333,13.0,84.0535543567314,11.0,13.0,23.021728866442675,23.021728866442675,16.0312195418814,53.009433122794285,40.01249804748511,33.5,34.0,37.0,19.5,17.5,3.5,8.5,8.06225774829855,7.0,7.5,30.0,29.0,36.0,170.00294115102832,171.00292395160966,168.00297616411441,162.00308639035245
20,3,20,0,0.6666666666666663,13.0,85.0235261559999,11.045361017187261,13.0,23.021728866442675,23.021728866442675,16.0312195418814,53.03772242470448,40.049968789001575,33.5,34.0,36.0,19.0,18.0,4.0,8.0,7.0710678118654755,8.06225774829855,8.0,29.0,29.0,37.0,172.0,172.0,170.0,163.0
21,3,21,0,0.6999999999999996,14.035668847618199,86.02325267042627,12.041594578792296,13.0,23.0,24.020824298928627,15.033296378372908,54.00925846556311,41.012193308819754,34.0,33.0,35.0,19.0,20.0,5.0,8.0,8.0,8.0,8.0,30.0,30.0,37.013511046643494,171.0,173.0,169.0,164.00304875214974
22,3,22,0,0.733333333333333,14.035668847618199,87.00574693662483,12.0,14.0,23.0,24.020824298928627,16.0312195418814,56.0357029044876,42.04759208325728,35.0,34.0,35.0,18.5,21.5,6.5,7.5,8.06225774829855,8.0,8.0,30.0,31.0,37.0,173.0028901492689,173.0028901492689,171.00292395160966,165.00303027520434
23,3,23,0,0.7666666666666663,15.033296378372908,88.02272433866155,10.0,13.0,22.0,24.020824298928627,16.0312195418814,54.037024344425184,41.048751503547585,33.5,32.0,34.0,17.0,21.0,7.0,7.0,7.0,7.0,7.5,30.0,31.0,37.0,172.01162751395617,173.0028901492689,170.00294115102832,164.00304875214974
24,3,24,0,0.7999999999999996,15.0,87.00574693662483,11.0,13.0,23.021728866442675,24.020824298928627,16.0312195418814,55.00909015790027,42.01190307520001,34.5,33.0,34.0,17.5,21.5,7.5,6.5,8.0,7.0,7.5,31.0,31.0,38.0,172.00290695217916,174.0028735394907,172.00290695217916,165.00303027520434
25,3,25,0,0.8333333333333329,15.0,87.0,10.04987562112089,13.0,23.0,24.020824298928627,17.0,55.00909015790027,42.01190307520001,34.5,33.0,33.0,16.0,22.0,8.0,6.0,8.06225774829855,8.0,7.5,30.0,31.0,37.013511046643494,174.0028735394907,174.0028735394907,171.00292395160966,165.01212076693034
26,3,26,0,0.8666666666666663,14.035668847618199,88.02272433866155,11.0,14.0,23.0,24.0,16.0,55.00909015790027,41.012193308819754,34.0,31.0,33.0,16.0,23.0,8.0,6.0,8.0,7.0710678118654755,7.5,30.0,31.0,38.01315561749642,173.0028901492689,173.0,171.00292395160966,164.00304875214974
27,3,27,0,0.8999999999999996,15.033296378372908,88.02272433866155,11.0,13.0,23.0,24.020824298928627,16.0312195418814,55.036351623268054,42.04759208325728,34.5,31.0,33.0,16.0,23.0,8.0,6.0,8.0,7.0,7.5,31.0,32.0,38.01315561749642,173.0028901492689,173.0115603073968,170.00294115102832,164.01219466856725
28,3,28,0,0.9333333333333328,14.035668847618199,89.00561780022652,11.0,13.0,23.0,24.020824298928627,16.0312195418814,54.037024344425184,41.048751503547585,34.0,32.0,33.0,16.5,21.5,7.5,6.5,8.0,7.0710678118654755,7.5,30.0,31.0,36.0,173.0,173.0028901492689,171.00292395160966,164.0
29,3,29,0,0.9666666666666662,15.0,88.0056816347672,11.0,12.041594578792296,23.0,24.020824298928627,16.0312195418814,54.037024344425184,42.01190307520001,34.5,32.0,33.0,16.5,21.5,7.5,6.5,7.0710678118654755,8.0,7.5,31.0,32.0,37.013511046643494,172.00290695217916,174.0,170.00294115102832,165.0
30,3,30,0,0.9999999999999996,15.0,88.02272433866155,10.0,13.038404810405298,23.0,23.021728866442675,16.0312195418814,54.037024344425184,41.012193308819754,33.5,31.0,33.0,16.0,22.0,7.0,6.0,8.06225774829855,7.0,7.5,30.0,31.0,37.013511046643494,173.0115603073968,174.0028735394907,170.00294115102832,165.0
31,3,31,0,1.0333333333333328,14.035668847618199,89.00561780022652,10.0,13.0,24.0,24.0,17.029386365926403,54.037024344425184,41.048751503547585,34.0,32.0,33.0,15.5,21.5,7.5,6.5,7.0710678118654755,8.0,7.5,31.0,31.0,37.013511046643494,172.00290695217916,173.0028901492689,170.00294115102832,164.00304875214974
32,3,32,0,1.066666666666666,14.0,88.02272433866155,11.0,13.038404810405298,24.0,25.019992006393608,16.0312195418814,54.037024344425184,41.012193308819754,34.0,31.0,33.0,16.0,22.0,8.0,6.0,8.06225774829855,8.0,8.0,30.0,31.0,36.013886210738214,173.0028901492689,173.0028901492689,171.0,164.00304875214974
33,3,33,0,1.0999999999999992,15.0,88.02272433866155,10.0,13.0,24.0,25.0,16.0312195418814,54.00925846556311,41.012193308819754,33.5,31.0,33.0,16.0,22.0,7.0,6.0,7.0,7.0710678118654755,7.0,30.0,30.0,38.01315561749642,172.0,173.0,169.0,164.0
34,3,34,0,1.1333333333333324,15.0,89.02246907382428,10.0,13.0,23.0,25.019992006393608,16.1245154965971,54.037024344425184,41.048751503547585,33.5,30.0,32.0,15.0,23.0,8.0,6.0,8.0,8.0,8.0,31.0,31.0,36.013886210738214,172.0,172.0,169.0,163.0
35,3,35,0,1.1666666666666656,15.033296378372908,87.02298546935747,10.0,13.0,23.0,24.020824298928627,16.0,54.00925846556311,41.012193308819754,33.5,30.0,32.0,15.0,23.0,9.0,5.0,8.0,8.0,8.0,31.0,31.0,36.013886210738214,172.01162751395617,172.00290695217916,168.00297616411441,163.00306745579974
36,3,36,0,1.1999999999999988,15.0,87.02298546935747,10.0,12.0,24.0,24.0,16.0312195418814,53.009433122794285,41.012193308819754,33.5,30.0,32.0,15.0,22.0,8.0,6.0,8.06225774829855,8.06225774829855,8.0,31.0,30.0,37.0,173.0028901492689,173.0028901492689,169.00295855398508,164.00304875214974
37,3,37,0,1.233333333333332,14.035668847618199,87.00574693662483,11.0,13.0,23.0,24.020824298928627,15.0,53.009433122794285,40.01249804748511,33.0,30.0,31.0,15.5,22.5,8.5,5.5,8.06225774829855,7.0710678118654755,7.5,31.0,30.0,36.0,172.02616080119907,171.011695506477,168.01190434013895,163.01226947687098
38,3,38,0,1.2666666666666653,15.033296378372908,87.00574693662483,10.0,13.0,23.021728866442675,24.020824298928627,15.0,53.009433122794285,40.01249804748511,32.5,30.0,31.0,15.5,22.5,7.5,5.5,8.0,7.0,7.0,31.0,30.0,37.013511046643494,172.0,172.0,169.00295855398508,163.0
39,3,39,0,1.2999999999999985,15.0,86.00581375697809,10.0,13.0,23.021728866442675,24.020824298928627,15.033296378372908,53.009433122794285,40.01249804748511,32.5,30.0,31.0,15.5,22.5,7.5,5.5,8.06225774829855,7.0,7.5,30.0,30.0,37.0,171.00292395160966,171.0,168.0,162.0
40,3,40,0,1.3333333333333317,17.0,86.00581375697809,10.0,13.0,23.0,24.0,15.033296378372908,55.00909015790027,42.01190307520001,33.5,31.0,32.0,16.5,23.5,8.5,7.5,5.0,5.0,4.5,29.0,29.0,36.0,172.0,172.0,167.0029939851379,161.00310556011024
41,3,41,0,1.366666666666665,23.0,83.02409288875127,10.0,15.0,24.020824298928627,25.019992006393608,17.029386365926403,65.00769185258002,50.00999900019995,38.5,36.0,38.0,20.0,28.0,12.0,10.0,2.8284271247461903,2.0,2.0,30.0,31.0,37.013511046643494,170.01176429882727,170.01176429882727,166.01204775557707,158.01265772082945
42,3,42,0,1.399999999999998,31.016124838541646,83.02409288875127,10.04987562112089,15.0,23.0,25.0,17.0,73.0,58.0,42.5,39.0,41.0,23.0,33.0,17.0,14.0,3.1622776601683795,3.0,3.0,28.0,28.0,37.0,169.00295855398508,168.0,164.00304875214974,156.00320509528
43,3,43,0,1.4333333333333311,37.0,83.00602387778854,9.0,16.0,24.0,26.0,17.029386365926403,79.00632886041473,63.00793600809346,44.5,43.0,44.0,26.5,35.5,18.5,17.5,4.123105625617661,4.123105625617661,4.0,28.0,28.0,38.0,169.01183390520322,168.00297616411441,164.00304875214974,155.0
44,3,44,0,1.4666666666666646,37.0,82.0,10.0,16.0,24.0,26.019223662515376,17.029386365926403,80.00624975587844,64.00781202322104,45.5,45.0,45.0,28.0,35.0,18.0,19.0,6.0,6.082762530298219,6.0,29.0,27.0,38.01315561749642,172.01162751395617,170.01176429882727,164.01219466856725,155.00322577288512
45,3,45,0,1.4999999999999978,39.0,82.0,10.0,15.0,23.0,26.0,17.029386365926403,81.00617260431454,66.007575322837,46.5,45.0,45.0,28.0,36.0,20.0,19.0,7.0,7.0,7.0,30.0,28.0,39.01281840626232,170.00294115102832,170.0,165.00303027520434,156.0
46,3,46,0,1.533333333333331,38.0,83.0,9.0,15.033296378372908,23.0,25.0,17.029386365926403,79.02531240052139,64.00781202322104,45.0,44.0,44.0,27.0,35.0,19.0,18.0,8.06225774829855,7.0,7.0,29.0,27.0,38.01315561749642,172.0,171.0,165.0,157.00318468107582
47,3,47,0,1.5666666666666642,33.0,83.0,9.0,14.035668847618199,23.0,25.0,17.029386365926403,73.02739212103907,59.00847396772772,42.5,43.0,43.0,26.0,30.0,15.0,18.0,9.055385138137417,9.0,8.5,27.0,27.0,37.0,171.00292395160966,170.00294115102832,165.0,157.00318468107582
48,3,48,0,1.5999999999999974,28.0,84.0,9.0,14.035668847618199,23.0,25.0,16.0312195418814,67.02984409947557,53.009433122794285,39.0,40.0,40.0,24.0,27.0,12.0,15.0,8.06225774829855,7.0,7.0,30.0,30.0,38.0,172.02616080119907,172.02616080119907,167.0478973228936,159.07859692617356
49,3,49,0,1.6333333333333306,23.0,82.0,9.055385138137417,14.0,23.0,25.0,16.0312195418814,62.03224967708329,48.041648597857254,36.5,38.0,38.0,22.0,24.0,9.0,13.0,8.06225774829855,8.0,8.0,27.0,28.0,37.0,171.04677722775136,171.0730837975396,167.0748335327616,160.0781059358212
50,3,50,0,1.666666666666664,20.024984394500787,81.02468759581859,9.0,14.035668847618199,22.02271554554524,23.0,15.132745950421556,58.137767414994535,44.10215414239989,34.0,37.0,35.0,21.0,22.0,7.0,13.0,9.055385138137417,9.0,9.0,25.0,28.0,37.013511046643494,172.02616080119907,171.04677722775136,165.07574019219177,159.15401345866212
51,3,51,0,1.699999999999997,17.029386365926403,80.05623023850174,8.06225774829855,14.0,21.02379604162864,23.021728866442675,16.1245154965971,55.14526271584895,41.19465984809196,32.5,37.0,34.0,19.5,19.5,5.5,11.5,8.06225774829855,8.0,8.5,24.0,28.0,37.013511046643494,171.10523077919038,169.10647533432893,165.14841809717706,158.15498727514097
52,3,52,0,1.7333333333333305,16.0312195418814,76.10519036176179,9.055385138137417,13.038404810405298,20.09975124224178,22.090722034374522,16.1245154965971,54.230987451824994,41.19465984809196,33.0,37.0,33.0,19.0,19.0,5.0,12.0,8.06225774829855,8.0,8.0,26.0,31.0,38.01315561749642,172.23530416264836,171.29214809792072,165.36626016210198,157.3848785620779
53,3,53,0,1.7666666666666635,15.0,74.10802925459562,9.055385138137417,13.152946437965905,18.027756377319946,20.09975124224178,17.26267650163207,54.3323108288245,41.19465984809196,33.5,38.0,34.0,19.0,18.0,4.0,11.0,9.219544457292887,8.0,8.0,24.0,30.0,37.05401462729781,171.29214809792072,170.29386365926402,164.30459518832697,157.31814898478814
54,3,54,0,1.7999999999999967,13.038404810405298,73.10950690573696,9.055385138137417,13.038404810405298,18.027756377319946,20.024984394500787,18.24828759089466,53.33854141237835,40.311288741492746,33.5,38.0,34.0,18.0,17.0,4.0,10.0,8.06225774829855,8.06225774829855,8.5,24.0,30.0,37.05401462729781,171.18703221914913,171.29214809792072,165.24527224704494,158.25612152457168
55,3,55,0,1.83333333333333,11.045361017187261,72.11102550927978,9.055385138137417,12.041594578792296,18.027756377319946,19.026297590440446,20.09975124224178,52.23983154643591,40.19950248448356,34.5,38.0,34.0,16.0,16.0,3.0,8.0,9.055385138137417,8.0,8.0,27.0,33.0,37.05401462729781,171.29214809792072,170.35551062410633,164.3684884641822,156.32018423735306
56,3,56,0,1.8666666666666631,6.082762530298219,71.11258679024411,8.06225774829855,10.04987562112089,18.110770276274835,19.026297590440446,21.095023109728988,45.27692569068709,35.22782990761707,32.0,37.0,33.0,14.0,10.0,0.0,7.0,8.246211251235321,8.06225774829855,8.5,24.0,30.0,36.05551275463989,170.18813119603846,170.18813119603846,164.14932226482082,157.15597347857954
57,3,57,0,1.8999999999999964,2.23606797749979,72.11102550927978,9.0,10.04987562112089,19.026297590440446,19.1049731745428,22.090722034374522,43.18564576337837,33.13608305156178,32.0,38.0,34.0,14.0,7.0,3.0,6.0,9.055385138137417,7.0,7.5,25.0,31.0,39.05124837953327,173.1415605797753,172.10461934532728,166.0752841334315,158.07909412695912
58,3,58,0,1.9333333333333296,2.23606797749979,73.10950690573696,9.055385138137417,11.045361017187261,17.11724276862369,19.1049731745428,21.02379604162864,43.18564576337837,32.14031735997639,31.0,37.0,33.0,14.0,8.0,3.0,6.0,8.246211251235321,8.06225774829855,8.0,25.0,31.0,38.05259518088089,173.1040149736568,172.14238292762187,167.10774967068403,158.11388300841898
59,3,59,0,1.9666666666666628,7.0710678118654755,74.10802925459562,10.0,10.04987562112089,19.026297590440446,20.024984394500787,21.213203435596427,48.25971404805462,38.2099463490856,34.5,39.0,35.0,16.0,11.0,0.0,7.0,8.246211251235321,8.0,8.5,27.0,34.0,37.21558813185679,171.29214809792072,171.29214809792072,165.24527224704494,157.25775020646836
60,3,60,0,1.999999999999996,20.0,77.05841939723393,9.055385138137417,12.041594578792296,21.0,23.0,19.1049731745428,60.13318551349163,48.093658625644196,38.0,40.0,37.0,19.5,21.5,8.5,10.5,9.055385138137417,8.0,8.0,24.0,30.0,39.05124837953327,170.23806859806652,170.23806859806652,165.24527224704494,156.1569723067145
61,3,61,0,2.033333333333329,24.0,80.05623023850174,11.045361017187261,14.035668847618199,23.021728866442675,24.020824298928627,17.26267650163207,66.18912297349165,52.15361924162119,40.0,42.0,39.0,23.5,25.5,10.5,13.5,8.06225774829855,8.06225774829855,8.0,24.0,30.0,37.05401462729781,171.18703221914913,170.23806859806652,165.19382555047267,158.2024020045208
62,3,62,0,2.0666666666666624,26.0,82.05485969764375,11.045361017187261,15.132745950421556,23.021728866442675,25.019992006393608,15.297058540778355,67.26812023536856,52.15361924162119,39.0,40.0,37.0,23.5,28.5,12.5,13.5,8.06225774829855,8.06225774829855,8.0,26.0,32.0,39.01281840626232,172.18594600024707,170.18813119603846,166.14752480852673,159.15401345866212
63,3,63,0,2.099999999999996,28.0178514522438,83.05419917138447,10.0,15.033296378372908,23.08679276123039,25.0,16.278820596099706,69.18092222571191,54.147945482723536,40.0,41.0,38.0,23.5,29.5,13.5,14.5,8.246211251235321,8.0,8.0,27.0,32.0,39.05124837953327,172.23530416264836,170.29386365926402,166.30093204789924,159.31415505221122
64,3,64,0,2.133333333333329,28.0178514522438,82.05485969764375,10.0,15.033296378372908,22.090722034374522,24.020824298928627,16.278820596099706,69.18092222571191,54.147945482723536,40.0,41.0,38.0,23.5,29.5,13.5,14.5,8.06225774829855,8.0,8.0,26.0,31.0,39.01281840626232,173.18487231857176,172.18594600024707,167.14664220378464,159.20113064925135
65,3,65,0,2.166666666666662,19.0,80.05623023850174,10.04987562112089,13.038404810405298,21.095023109728988,23.021728866442675,17.26267650163207,59.21148537234985,46.17358552246078,36.5,40.0,37.0,21.5,20.5,6.5,12.5,7.280109889280518,7.0,7.5,28.0,33.0,38.118237105091836,173.1415605797753,172.14238292762187,167.10774967068403,160.0781059358212
66,3,66,0,2.199999999999996,11.0,78.05767098754612,10.04987562112089,11.045361017187261,21.02379604162864,22.02271554554524,17.26267650163207,49.25444142409901,38.2099463490856,32.5,37.0,34.0,18.5,13.5,2.5,9.5,8.246211251235321,8.0,8.0,27.0,33.0,36.124783736376884,172.23530416264836,172.18594600024707,168.07438829280326,162.077142126828
67,3,67,0,2.2333333333333285,3.1622776601683795,74.10802925459562,11.045361017187261,12.041594578792296,20.09975124224178,20.024984394500787,15.297058540778355,41.43669871020132,29.427877939124322,27.5,36.0,32.0,19.0,7.0,5.0,9.0,8.246211251235321,8.0,8.0,27.0,33.0,39.11521443121589,173.18487231857176,173.1415605797753,168.1071087134628,161.07762104029226
68,3,68,0,2.2666666666666617,6.082762530298219,77.10382610480494,12.041594578792296,13.038404810405298,20.024984394500787,22.02271554554524,14.317821063276353,45.39823785126467,32.38826948140329,29.0,36.0,32.0,20.0,11.0,2.0,9.0,7.0710678118654755,7.0710678118654755,7.5,27.0,34.0,38.05259518088089,174.18381095842403,174.18381095842403,170.10584939971935,163.11039206623224
69,3,69,0,2.299999999999995,14.035668847618199,79.1012010022604,11.0,13.152946437965905,22.090722034374522,23.08679276123039,14.317821063276353,52.3450093132096,39.20459156782532,32.0,38.0,34.0,22.0,16.0,3.0,12.0,8.06225774829855,8.06225774829855,8.0,28.0,33.0,38.05259518088089,172.29045243425418,172.35138525698017,167.29913329123974,161.31026005806325
70,3,70,0,2.333333333333328,19.026297590440446,82.05485969764375,11.045361017187261,14.035668847618199,23.021728866442675,25.019992006393608,14.560219778561036,58.42088667591412,44.40720662234904,34.5,37.0,34.0,21.5,22.5,6.5,11.5,8.246211251235321,7.0,7.0,27.0,30.0,41.0,174.23260314877925,173.2887763243771,169.23947530053383,162.24980739587951
71,3,71,0,2.3666666666666614,21.095023109728988,82.09750300709517,10.04987562112089,13.038404810405298,23.021728866442675,25.019992006393608,14.142135623730951,58.309518948453004,45.27692569068709,34.5,37.0,33.0,21.0,23.0,9.0,12.0,8.06225774829855,7.0,7.0,20.0,27.0,37.12142238654117,174.14074767268,174.18381095842403,170.18813119603846,164.19500601419034
72,3,72,0,2.3999999999999946,21.02379604162864,82.05485969764375,10.04987562112089,14.035668847618199,24.020824298928627,25.0,14.317821063276353,59.30430001273095,45.27692569068709,34.5,37.0,34.0,21.5,23.5,8.5,12.5,8.06225774829855,7.0,7.5,23.0,27.0,38.01315561749642,175.13994404475525,174.18381095842403,170.18813119603846,164.24676556937126
73,3,73,0,2.433333333333328,23.08679276123039,82.05485969764375,11.0,13.038404810405298,24.020824298928627,26.0,13.601470508735444,60.40695324215582,47.38143096192854,35.5,37.0,34.0,22.5,24.5,10.5,12.5,7.0710678118654755,8.0,7.5,26.0,29.0,37.013511046643494,176.07100840286,175.10282693320517,171.10523077919038,164.14932226482082
74,3,74,0,2.466666666666661,23.021728866442675,82.02438661763951,10.04987562112089,14.035668847618199,24.020824298928627,26.019223662515376,14.317821063276353,61.29437168288782,47.265209192385896,35.5,37.0,35.0,22.0,25.0,10.0,13.0,7.0710678118654755,7.0,7.0,26.0,29.0,37.013511046643494,176.0113632695344,175.0114281982751,170.02646852769718,164.02743672934722
75,3,75,0,2.4999999999999942,23.08679276123039,81.00617260431454,10.0,14.0,23.021728866442675,25.0,15.297058540778355,62.20128616033595,48.25971404805462,36.5,38.0,37.0,22.5,24.5,9.5,13.5,8.06225774829855,7.0,7.0,29.0,32.0,38.05259518088089,176.02556632489498,174.04597093871493,169.04733065032408,162.02777539668932
76,3,76,0,2.5333333333333274,19.026297590440446,80.00624975587844,10.04987562112089,15.033296378372908,23.0,24.0,15.132745950421556,59.21148537234985,44.181444068749045,34.5,38.0,37.0,22.5,21.5,5.5,12.5,8.06225774829855,7.0,7.5,29.0,31.0,40.01249804748511,178.0028089666003,175.0028571195339,170.00294115102832,162.01234520862909
77,3,77,0,2.5666666666666607,16.1245154965971,78.00640999302557,11.0,15.0,21.02379604162864,23.0,14.142135623730951,56.142675390472796,41.19465984809196,33.0,36.0,35.0,21.5,20.5,4.5,11.5,8.06225774829855,7.0,7.5,32.0,34.0,39.05124837953327,178.0028089666003,176.0113632695344,171.011695506477,163.01226947687098
78,3,78,0,2.599999999999994,14.035668847618199,77.00649323271382,11.0,14.035668847618199,22.0,23.0,14.317821063276353,53.23532661682466,39.20459156782532,32.0,35.0,34.0,20.5,18.5,3.5,10.5,7.0710678118654755,7.0,7.0,32.0,34.0,38.05259518088089,175.025712396779,175.025712396779,170.0470523119998,163.04907236779974
79,3,79,0,2.633333333333327,14.035668847618199,77.00649323271382,11.0,13.038404810405298,22.02271554554524,23.0,14.317821063276353,52.23983154643591,39.20459156782532,32.0,35.0,34.0,20.5,17.5,3.5,10.5,8.06225774829855,7.0,7.5,32.0,34.0,38.01315561749642,177.02542190318317,176.02556632489498,171.04677722775136,164.04877323527901
80,3,80,0,2.6666666666666603,13.038404810405298,77.02596964660685,11.0,14.035668847618199,22.02271554554524,23.0,14.142135623730951,52.15361924162119,38.118237105091836,31.5,36.0,34.0,21.0,17.0,3.0,11.0,8.06225774829855,7.0710678118654755,7.5,31.0,31.0,38.0,176.00284088616297,175.0114281982751,171.011695506477,164.04877323527901
81,3,81,0,2.699999999999993,13.038404810405298,79.05694150420949,11.045361017187261,13.038404810405298,22.02271554554524,23.0,14.142135623730951,51.24451190127583,38.2099463490856,31.5,35.0,32.0,19.5,17.5,3.5,9.5,8.06225774829855,7.0,7.5,31.0,32.0,37.013511046643494,177.04519197086375,176.07100840286,171.10523077919038,164.14932226482082
82,3,82,0,2.7333333333333267,13.038404810405298,77.02596964660685,11.045361017187261,13.038404810405298,21.02379604162864,22.02271554554524,14.142135623730951,51.24451190127583,38.2099463490856,31.5,35.0,33.0,20.0,17.0,3.0,10.0,8.06225774829855,8.0,8.0,28.0,29.0,37.013511046643494,176.0,176.02556632489498,172.07265907168403,166.0752841334315
83,3,83,0,2.76666666666666,10.04987562112089,76.02631123499285,10.0,13.038404810405298,21.02379604162864,22.0,15.132745950421556,48.16637831516918,35.12833614050059,30.0,35.0,33.0,19.0,14.0,0.0,10.0,8.06225774829855,8.0,8.0,27.0,28.0,35.014282800023196,175.0114281982751,175.07141400011596,171.10523077919038,164.14932226482082
84,3,84,0,2.799999999999993,8.0,74.02702209328699,11.045361017187261,13.038404810405298,20.024984394500787,21.02379604162864,15.132745950421556,47.16990566028302,34.132096331752024,30.0,35.0,33.0,19.0,13.0,1.0,9.0,8.06225774829855,8.06225774829855,8.0,32.0,32.0,37.013511046643494,178.0028089666003,177.01129907438113,172.02616080119907,164.0762018087937
85,3,85,0,2.8333333333333264,7.0710678118654755,74.00675644831355,11.045361017187261,14.0,21.02379604162864,21.0,15.033296378372908,47.095647357266465,33.13608305156178,29.5,34.0,33.0,18.5,13.5,1.5,8.5,8.06225774829855,8.06225774829855,8.0,32.0,32.0,38.01315561749642,177.0,177.01129907438113,172.02616080119907,164.04877323527901
86,3,86,0,2.86666666666666,10.04987562112089,75.0066663703967,10.0,13.0,21.0,23.0,15.132745950421556,48.093658625644196,35.12833614050059,30.0,34.0,33.0,18.5,14.5,0.5,9.5,9.055385138137417,7.0,7.5,32.0,31.0,37.013511046643494,177.00282483621552,177.0,172.01162751395617,164.02743672934722
87,3,87,0,2.899999999999993,10.04987562112089,75.0066663703967,10.0,14.0,22.0,23.0,15.132745950421556,49.09175083453431,35.12833614050059,30.0,34.0,33.0,18.5,15.5,0.5,9.5,9.0,8.0,8.0,32.0,30.0,38.01315561749642,176.0454486773231,175.0114281982751,170.0,163.0
88,3,88,0,2.933333333333326,13.0,76.00657866263946,9.0,15.0,22.0,23.021728866442675,15.132745950421556,52.03844732503075,37.05401462729781,30.5,33.0,34.0,18.5,18.5,2.5,9.5,6.082762530298219,6.0,6.0,25.0,26.0,34.0,174.01149387324966,175.0028571195339,171.0,163.0
89,3,89,0,2.9666666666666592,15.033296378372908,76.0,9.0,16.0,22.02271554554524,24.0,15.132745950421556,55.08175741568164,39.11521443121589,31.5,34.0,34.0,19.0,21.0,4.0,11.0,2.8284271247461903,3.1622776601683795,3.0,26.0,27.0,38.0,176.0454486773231,175.0028571195339,171.00292395160966,163.01226947687098
90,3,90,0,2.9999999999999925,17.0,78.00640999302557,9.0,17.029386365926403,21.0,23.0,15.132745950421556,58.077534382926416,41.048751503547585,32.5,35.0,34.0,19.5,23.5,5.5,10.5,2.23606797749979,2.23606797749979,2.0,27.0,27.0,40.0,176.0,175.0028571195339,170.02646852769718,162.02777539668932
91,3,91,0,3.0333333333333257,15.0,79.0,8.06225774829855,17.0,22.0,23.021728866442675,16.0312195418814,56.0357029044876,39.05124837953327,31.5,34.0,34.0,18.0,22.0,5.0,10.0,2.23606797749979,2.0,2.0,27.0,28.0,38.0,175.0,175.0028571195339,171.011695506477,164.02743672934722
92,3,92,0,3.066666666666659,10.0,77.00649323271382,10.0,13.0,21.0,23.0,17.11724276862369,50.039984012787215,37.05401462729781,32.0,33.0,32.0,15.5,17.5,2.5,6.5,4.123105625617661,4.123105625617661,4.0,26.0,26.0,36.013886210738214,175.025712396779,175.0114281982751,170.0,162.0
93,3,93,0,3.099999999999992,2.0,75.0,10.04987562112089,15.0,21.0,22.0,17.029386365926403,44.04543109109048,29.068883707497267,28.0,33.0,33.0,16.0,11.0,5.0,6.0,6.324555320336759,5.0,5.5,31.0,30.0,40.0,174.14074767268,175.07141400011596,169.0266251216062,161.01242188104618
94,3,94,0,3.1333333333333253,1.4142135623730951,73.0,11.0,14.0,20.0,21.02379604162864,17.029386365926403,43.04648650006177,29.068883707497267,28.5,34.0,34.0,17.0,9.0,6.0,7.0,7.0710678118654755,7.0710678118654755,7.0,28.0,28.0,35.014282800023196,170.01176429882727,171.0,167.01197561851666,159.0125781188394
95,3,95,0,3.1666666666666585,11.0,76.0,9.055385138137417,13.0,22.0,23.0,18.027756377319946,51.03920062069938,38.05259518088089,32.5,35.0,35.0,17.0,16.0,2.0,8.0,7.0710678118654755,7.0,7.0,26.0,26.0,35.0,172.01162751395617,172.0,167.0,160.0
96,3,96,0,3.199999999999992,20.024984394500787,76.0,9.0,16.0,22.0,25.0,16.0312195418814,61.032778078668514,45.044422518220834,35.0,36.0,36.0,20.0,25.0,8.0,11.0,7.0,7.0,7.0,25.0,27.0,34.0147027033899,172.00290695217916,172.02616080119907,168.01190434013895,159.02829936838285
97,3,97,0,3.233333333333325,36.013886210738214,78.0,11.0,16.0,23.0,25.0,14.142135623730951,77.05841939723393,61.07372593840988,43.0,41.0,41.0,27.0,36.0,18.0,16.0,9.0,7.0,7.5,32.0,33.0,37.013511046643494,172.00290695217916,171.011695506477,166.02710622064097,156.01281998605114
98,3,98,0,3.266666666666658,40.0,79.0,10.0,17.029386365926403,24.0,26.019223662515376,15.132745950421556,82.05485969764375,65.03076195155643,45.0,42.0,42.0,27.0,40.0,22.0,17.0,8.06225774829855,8.0,8.0,32.0,32.0,37.013511046643494,174.01149387324966,172.0,165.00303027520434,155.0129026887762
99,3,99,0,3.2999999999999914,42.0,78.0,9.0,16.0312195418814,23.0,27.0,15.132745950421556,82.05485969764375,66.03029607687671,45.0,42.0,42.0,27.0,40.0,22.0,18.0,8.0,8.0,8.0,33.0,32.0,38.0,174.0258601472781,173.0,166.01204775557707,155.0129026887762
100,3,100,0,3.3333333333333246,45.0,77.02596964660685,9.0,15.033296378372908,23.0,25.019992006393608,17.11724276862369,86.05230967266364,71.02816342831905,48.5,45.0,47.0,29.0,40.0,23.0,20.0,8.0,8.0,8.5,34.0,34.0,37.0,171.00292395160966,171.00292395160966,164.00304875214974,154.00324671902212
101,3,101,0,3.366666666666658,39.0,76.0,10.0,16.0,22.0,24.0,18.110770276274835,83.02409288875127,67.02984409947557,47.5,44.0,44.0,26.0,39.0,21.0,16.0,9.0,9.0,9.0,34.0,33.0,39.01281840626232,174.01149387324966,172.00290695217916,164.0,154.00324671902212
102,3,102,0,3.399999999999991,20.024984394500787,73.00684899377592,11.0,15.0,18.0,21.0,20.0,66.007575322837,51.0098029794274,41.0,39.0,40.0,19.5,26.5,10.5,8.5,8.0,8.06225774829855,8.0,35.0,33.0,38.0,177.1383639983163,175.07141400011596,167.0748335327616,156.02884348735012
103,3,103,0,3.433333333333324,4.0,73.00684899377592,11.0,13.0,17.0,18.0,22.02271554554524,50.00999900019995,37.013511046643494,35.0,36.0,37.0,14.5,13.5,0.5,4.5,9.0,9.055385138137417,9.0,34.0,29.0,37.013511046643494,173.34935823359717,172.29045243425418,165.24527224704494,156.20499351813308
104,3,104,0,3.466666666666657,1.4142135623730951,72.00694410957877,12.041594578792296,13.0,19.0,20.0,20.09975124224178,46.04345773288535,33.06055050963308,32.5,34.0,35.0,14.5,11.5,3.5,3.5,9.0,8.06225774829855,8.5,32.0,27.0,38.01315561749642,171.42053552593984,171.35343591536179,166.30093204789924,157.25775020646836
105,3,105,0,3.4999999999999907,4.0,72.00694410957877,11.0,15.0,18.0,19.0,20.024984394500787,50.00999900019995,35.014282800023196,33.0,34.0,35.0,14.5,15.5,0.5,4.5,10.0,8.06225774829855,8.5,33.0,27.0,37.05401462729781,173.5655495770978,172.41809649801846,165.36626016210198,156.32018423735306
106,3,106,0,3.533333333333324,10.0,70.00714249274856,10.0,15.0,18.0,19.026297590440446,18.027756377319946,53.009433122794285,38.01315561749642,33.0,35.0,36.0,17.5,17.5,1.5,7.5,9.055385138137417,10.04987562112089,9.5,31.0,26.0,38.01315561749642,172.5688268488837,170.35551062410633,164.30459518832697,155.2063143045411
107,3,107,0,3.566666666666657,10.0,69.02897942168927,10.0,16.0,18.0,19.0,17.11724276862369,53.03772242470448,37.05401462729781,32.0,35.0,37.0,19.0,17.0,0.0,9.0,9.0,9.055385138137417,9.0,34.0,26.0,37.12142238654117,173.83325343558406,172.6528308484978,165.43578814754684,155.32224567009067
108,3,108,0,3.5999999999999903,10.0,70.06425622241343,9.0,16.0,17.0,19.026297590440446,17.029386365926403,52.009614495783374,36.013886210738214,31.0,33.0,36.0,17.5,17.5,0.5,8.5,10.0,9.055385138137417,9.5,33.0,26.0,37.05401462729781,171.9447585708852,170.75128110793196,164.51443705644803,155.46382215808282
109,3,109,0,3.633333333333324,15.0,72.06247289678588,10.0,16.0,20.0,22.02271554554524,14.035668847618199,55.00909015790027,39.01281840626232,31.5,34.0,37.0,21.5,19.5,2.5,11.5,9.055385138137417,9.0,9.5,33.0,26.0,38.05259518088089,172.9392957080605,171.74690681348528,165.51132891738862,156.46085772486356
110,3,110,0,3.6666666666666567,16.0,72.06247289678588,10.0,16.0312195418814,20.024984394500787,22.02271554554524,14.035668847618199,56.0,40.01249804748511,32.0,35.0,38.0,22.5,19.5,1.5,11.5,9.0,9.055385138137417,8.5,35.0,28.0,38.05259518088089,172.8380745090618,171.6566340110396,165.51132891738862,157.31814898478814
111,3,111,0,3.69999999999999,15.0,73.06161783043132,10.0,16.0,21.02379604162864,23.08679276123039,13.038404810405298,54.00925846556311,38.01315561749642,30.5,33.0,36.0,21.5,19.5,1.5,11.5,10.0,8.06225774829855,8.5,30.0,23.0,38.01315561749642,172.9392957080605,171.74690681348528,165.59287424282482,157.45793088949188
112,3,112,0,3.733333333333323,13.0,70.06425622241343,11.0,16.0,21.02379604162864,23.021728866442675,14.035668847618199,54.00925846556311,38.01315561749642,31.5,34.0,37.0,21.5,18.5,1.5,10.5,9.0,9.055385138137417,9.0,33.0,26.0,38.05259518088089,171.9447585708852,170.66048165876012,164.51443705644803,157.3848785620779
113,3,113,0,3.766666666666656,13.0,71.06335201775947,11.0,16.0,21.02379604162864,23.021728866442675,13.038404810405298,53.009433122794285,37.013511046643494,30.5,33.0,36.0,21.5,18.5,1.5,10.5,9.0,8.06225774829855,8.5,33.0,27.0,36.013886210738214,171.8429515575195,170.66048165876012,164.43843832875572,157.31814898478814
114,3,114,0,3.7999999999999896,13.0,73.06161783043132,11.0,15.033296378372908,21.02379604162864,22.02271554554524,14.035668847618199,53.0,38.01315561749642,31.5,34.0,37.0,21.5,17.5,1.5,10.5,9.055385138137417,9.055385138137417,9.0,34.0,27.0,37.013511046643494,172.6528308484978,171.572142260916,165.43578814754684,157.31814898478814
115,3,115,0,3.833333333333323,13.0,70.06425622241343,10.0,16.0,20.024984394500787,22.02271554554524,14.035668847618199,53.009433122794285,37.013511046643494,30.5,33.0,36.0,20.5,18.5,1.5,10.5,9.0,8.0,8.5,35.0,28.0,37.12142238654117,171.9447585708852,171.74690681348528,165.59287424282482,157.3848785620779
116,3,116,0,3.866666666666656,14.0,71.06335201775947,10.0,15.033296378372908,20.024984394500787,21.0,14.0,53.009433122794285,38.0,31.0,34.0,37.0,21.5,17.5,1.5,10.5,10.0,9.055385138137417,9.0,36.0,26.0,36.124783736376884,174.04022523543227,171.8429515575195,166.76930173146374,157.53729717117784
117,3,117,0,3.899999999999989,12.0,72.06247289678588,11.0,14.035668847618199,20.024984394500787,22.0,14.035668847618199,51.0,37.013511046643494,31.0,34.0,37.0,21.5,15.5,0.5,10.5,10.0,9.055385138137417,9.5,35.0,26.0,36.124783736376884,173.04623659588788,170.95028517086482,165.873445734994,157.62296786953354
118,3,118,0,3.9333333333333225,11.045361017187261,71.11258679024411,11.0,13.0,20.024984394500787,22.02271554554524,13.0,48.010415536631214,35.014282800023196,29.5,33.0,37.0,22.0,13.0,2.0,11.0,10.0,9.0,9.0,36.0,30.0,37.05401462729781,172.6528308484978,170.57549648176317,166.50825805346713,157.45793088949188
119,3,119,0,3.966666666666656,11.0,71.06335201775947,11.045361017187261,14.035668847618199,20.024984394500787,21.02379604162864,13.038404810405298,49.01020301937138,35.0,29.5,33.0,36.0,21.5,14.5,1.5,10.5,10.0,9.055385138137417,9.0,37.0,30.0,36.013886210738214,171.572142260916,170.49633427144408,165.43578814754684,156.3873396410336
120,3,120,0,3.999999999999989,11.045361017187261,71.06335201775947,11.0,15.033296378372908,20.024984394500787,21.02379604162864,14.035668847618199,51.0098029794274,36.0,30.5,34.0,37.0,21.5,15.5,0.5,10.5,9.0,9.055385138137417,9.0,38.0,32.0,38.01315561749642,171.6566340110396,172.4905794529081,166.50825805346713,158.45504094221806
121,3,121,0,4.033333333333323,1.0,72.02777242147643,12.0,15.0,18.027756377319946,19.0,19.026297590440446,47.01063709417264,32.01562118716424,31.5,33.0,35.0,15.0,13.0,3.0,3.0,9.0,9.055385138137417,9.0,36.0,29.0,36.05551275463989,171.572142260916,171.49344010777787,165.43578814754684,158.3161394173064
122,3,122,0,4.066666666666656,2.23606797749979,71.02816342831905,12.041594578792296,15.033296378372908,19.0,20.09975124224178,18.027756377319946,47.0,32.01562118716424,31.0,33.0,35.0,16.0,13.0,3.0,4.0,10.04987562112089,9.055385138137417,9.5,36.0,28.0,37.05401462729781,171.74690681348528,170.75128110793196,165.59287424282482,158.5339080449353
123,3,123,0,4.099999999999989,3.0,71.06335201775947,12.0,16.0312195418814,19.0,20.024984394500787,17.029386365926403,48.0,32.01562118716424,30.5,33.0,36.0,17.5,13.5,3.5,5.5,6.0,5.0990195135927845,5.5,31.0,24.0,36.05551275463989,170.84788555905513,170.75128110793196,164.59647626847908,158.45504094221806
124,3,124,0,4.133333333333322,13.038404810405298,73.06161783043132,11.045361017187261,15.033296378372908,21.0,22.02271554554524,15.132745950421556,54.00925846556311,39.05124837953327,32.5,33.0,36.0,19.5,19.5,2.5,8.5,3.1622776601683795,3.1622776601683795,3.0,32.0,25.0,37.12142238654117,170.66048165876012,168.58232410309213,164.43843832875572,157.31814898478814
125,3,125,0,4.166666666666655,14.0,71.11258679024411,10.0,14.035668847618199,21.02379604162864,22.02271554554524,14.0,52.009614495783374,38.0,31.0,32.0,36.0,20.0,18.0,1.0,10.0,2.23606797749979,2.8284271247461903,2.5,29.0,21.0,34.132096331752024,168.8579284487406,167.6722994414999,163.51758315239374,156.3873396410336
126,3,126,0,4.199999999999989,11.0,70.11419257183242,12.041594578792296,13.0,21.02379604162864,21.02379604162864,13.038404810405298,49.0,36.0,30.5,32.0,36.0,21.0,15.0,0.0,9.0,2.23606797749979,2.8284271247461903,2.0,29.0,22.0,35.05709628591621,170.84788555905513,168.7601848778319,162.60381299342276,156.46085772486356
127,3,127,0,4.233333333333322,10.0,71.17583859709698,12.0,14.035668847618199,20.024984394500787,21.02379604162864,13.038404810405298,49.0,35.014282800023196,30.0,32.0,37.0,21.5,14.5,1.5,9.5,2.0,3.605551275463989,3.0,30.0,22.0,36.05551275463989,171.8429515575195,169.75570682601514,162.60381299342276,155.46382215808282
128,3,128,0,4.266666666666655,9.0,71.11258679024411,11.045361017187261,14.035668847618199,21.02379604162864,22.090722034374522,13.038404810405298,47.01063709417264,33.0,28.5,31.0,35.0,20.0,14.0,2.0,9.0,4.0,4.47213595499958,4.0,28.0,21.0,35.12833614050059,169.85287751463028,167.7647161950331,162.5207679036744,155.3898323572041
129,3,129,0,4.299999999999988,11.0,70.178344238091,12.041594578792296,15.033296378372908,21.02379604162864,22.02271554554524,11.0,49.040799340956916,34.0147027033899,28.5,31.0,36.0,22.5,15.5,1.5,10.5,6.0,5.0990195135927845,5.5,34.0,26.0,36.124783736376884,168.8579284487406,167.7647161950331,161.60754932861275,155.46382215808282
130,3,130,0,4.3333333333333215,14.0,68.11754546370561,10.0,15.033296378372908,20.024984394500787,21.02379604162864,13.0,52.009614495783374,37.0,30.0,32.0,36.0,21.0,18.0,2.0,11.0,6.0,6.324555320336759,6.5,34.0,25.0,38.118237105091836,169.85287751463028,168.66831356244717,162.4438364481706,155.32224567009067
131,3,131,0,4.366666666666655,17.029386365926403,68.11754546370561,10.0,17.029386365926403,19.026297590440446,21.095023109728988,12.0,56.0357029044876,39.01281840626232,30.5,33.0,37.0,23.0,21.0,3.0,12.0,8.0,7.0710678118654755,7.0,36.0,28.0,38.05259518088089,170.95028517086482,169.85287751463028,162.69296235547498,154.63505424062166
132,3,132,0,4.399999999999988,18.027756377319946,68.06614430096654,11.0,17.029386365926403,20.024984394500787,21.0,12.041594578792296,58.077534382926416,41.048751503547585,32.0,35.0,38.0,24.5,21.5,3.5,13.5,8.0,7.0710678118654755,7.5,36.0,29.0,36.05551275463989,169.75570682601514,169.66437457521835,163.6001222493431,155.46382215808282
133,3,133,0,4.433333333333321,20.0,66.12110101926616,11.0,16.0312195418814,18.027756377319946,20.024984394500787,13.038404810405298,60.03332407921454,44.01136216933077,34.0,37.0,41.0,26.0,21.0,3.0,15.0,9.0,8.06225774829855,8.5,37.0,28.0,36.124783736376884,170.66048165876012,169.66437457521835,163.51758315239374,153.55129436120035
134,3,134,0,4.466666666666654,19.0,66.12110101926616,11.0,16.0312195418814,18.027756377319946,20.024984394500787,13.038404810405298,59.033888572581766,43.01162633521314,33.5,36.0,40.0,25.0,21.0,4.0,14.0,9.0,8.06225774829855,8.5,37.0,30.0,37.05401462729781,170.66048165876012,169.66437457521835,163.51758315239374,154.39235732380018
135,3,135,0,4.499999999999988,19.0,66.12110101926616,10.0,16.0312195418814,18.027756377319946,20.09975124224178,12.041594578792296,57.0350769263968,41.012193308819754,31.5,35.0,39.0,25.0,20.0,3.0,14.0,9.055385138137417,8.06225774829855,8.0,37.0,30.0,36.013886210738214,168.50222550459088,168.4280261714184,162.4438364481706,153.32644912082193
136,3,136,0,4.533333333333321,16.0,66.12110101926616,11.0,15.033296378372908,17.029386365926403,19.0,13.0,55.00909015790027,40.0,32.0,35.0,39.0,24.0,18.0,1.0,13.0,9.055385138137417,9.055385138137417,9.0,37.0,30.0,37.013511046643494,169.57889019568444,169.49926253526885,163.44112089679268,154.39235732380018
137,3,137,0,4.566666666666654,13.0,66.06814663663572,11.0,15.033296378372908,18.027756377319946,20.024984394500787,13.038404810405298,52.03844732503075,37.013511046643494,30.5,34.0,37.0,22.5,16.5,0.5,11.5,9.055385138137417,9.055385138137417,8.5,35.0,28.0,37.05401462729781,170.66048165876012,169.49926253526885,164.3684884641822,155.2610704587599
138,3,138,0,4.599999999999987,12.0,68.06614430096654,10.04987562112089,14.035668847618199,18.110770276274835,20.024984394500787,14.0,50.039984012787215,36.013886210738214,30.0,34.0,37.0,21.5,14.5,1.5,10.5,9.0,9.219544457292887,8.5,36.0,28.0,36.124783736376884,170.75128110793196,169.66437457521835,163.6001222493431,155.46382215808282
139,3,139,0,4.63333333333332,12.0,65.06919393998976,11.045361017187261,14.035668847618199,18.027756377319946,20.024984394500787,13.038404810405298,50.08991914547278,36.05551275463989,30.0,33.0,36.0,21.5,15.5,0.5,10.5,7.0,6.324555320336759,6.5,35.0,29.0,37.05401462729781,171.74690681348528,169.66437457521835,163.6001222493431,154.39235732380018
140,3,140,0,4.666666666666654,12.0,67.1863081289633,10.04987562112089,15.033296378372908,19.026297590440446,20.024984394500787,14.0,51.03920062069938,36.013886210738214,30.0,32.0,37.0,20.5,16.5,0.5,10.5,3.1622776601683795,3.605551275463989,3.0,33.0,26.0,35.22782990761707,169.85287751463028,168.66831356244717,162.5207679036744,155.46382215808282
141,3,141,0,4.699999999999987,16.0312195418814,69.18092222571191,10.0,15.033296378372908,19.1049731745428,20.09975124224178,14.035668847618199,55.08175741568164,40.049968789001575,32.0,34.0,39.0,22.5,18.5,1.5,11.5,2.0,3.605551275463989,3.0,34.0,26.0,36.124783736376884,170.06469357276953,167.86303941010956,162.78820596099706,153.55129436120035
142,3,142,0,4.73333333333332,16.0312195418814,69.18092222571191,10.0,15.033296378372908,20.09975124224178,20.09975124224178,14.035668847618199,55.08175741568164,40.049968789001575,32.0,34.0,39.0,22.5,18.5,1.5,11.5,3.0,4.47213595499958,3.5,35.0,27.0,36.22154055254967,170.06469357276953,167.86303941010956,162.78820596099706,154.5477272560163
143,3,143,0,4.766666666666653,19.0,67.1863081289633,10.04987562112089,17.029386365926403,19.026297590440446,21.095023109728988,14.0,60.03332407921454,43.01162633521314,33.5,35.0,40.0,23.5,22.5,4.5,13.5,2.0,3.605551275463989,3.0,37.0,25.0,36.22154055254967,170.17931719218996,168.96153408394468,163.783393541592,155.63097378092831
144,3,144,0,4.7999999999999865,21.0,68.26419266350405,10.0,18.110770276274835,20.09975124224178,22.090722034374522,13.038404810405298,62.07253821135398,44.01136216933077,33.5,35.0,41.0,25.0,24.0,4.0,14.0,4.0,4.47213595499958,3.5,35.0,24.0,36.22154055254967,171.41761869772895,170.29973576021777,163.88410539158457,153.73353570382747
145,3,145,0,4.83333333333332,19.026297590440446,67.47592163134935,11.045361017187261,17.029386365926403,18.110770276274835,21.213203435596427,13.0,60.07495318350236,43.04648650006177,33.5,34.0,42.0,25.0,22.0,3.0,13.0,6.0,6.324555320336759,6.5,39.0,26.0,37.21558813185679,173.6663467687393,171.5488268686207,164.2224101637776,155.04837954651444
146,3,146,0,4.866666666666653,15.033296378372908,65.37583651472461,11.0,17.029386365926403,17.11724276862369,19.235384061671343,15.132745950421556,58.137767414994535,41.10960958218893,33.5,34.0,41.0,22.5,20.5,1.5,10.5,7.0710678118654755,7.280109889280518,7.0,39.0,26.0,37.21558813185679,171.97674261364529,170.69563556224864,163.35544068074378,155.04837954651444
147,3,147,0,4.899999999999986,8.0,67.36467917239716,11.045361017187261,16.1245154965971,17.11724276862369,18.110770276274835,19.1049731745428,54.230987451824994,38.118237105091836,34.0,33.0,40.0,17.5,17.5,0.5,6.5,8.06225774829855,7.280109889280518,7.5,38.0,26.0,38.3275357934736,173.11845655504212,170.8391055935379,164.7573974060042,155.42522317822161
148,3,148,0,4.933333333333319,1.4142135623730951,67.60177512462228,12.041594578792296,16.0312195418814,16.1245154965971,17.26267650163207,20.024984394500787,49.16299421312742,33.13608305156178,32.5,31.0,40.0,15.5,13.5,4.5,3.5,8.06225774829855,8.54400374531753,8.0,40.0,26.0,37.21558813185679,172.45579143653018,171.14321488157222,164.90603384958357,155.7080601638849
149,3,149,0,4.966666666666653,2.0,67.47592163134935,12.041594578792296,15.132745950421556,16.1245154965971,18.24828759089466,19.1049731745428,48.25971404805462,33.13608305156178,32.0,32.0,40.0,17.0,12.0,6.0,4.0,8.246211251235321,8.246211251235321,8.0,40.0,26.0,38.3275357934736,172.13076424625552,171.97674261364529,165.74679484080528,156.41611170208776
150,3,150,0,4.999999999999986,3.1622776601683795,67.47592163134935,12.041594578792296,16.0312195418814,17.11724276862369,18.24828759089466,20.024984394500787,51.15662224971465,35.12833614050059,33.5,33.0,41.0,17.0,14.0,4.0,4.0,8.06225774829855,7.280109889280518,7.5,39.0,26.0,38.2099463490856,173.27723451163456,172.96531444194238,166.73631877908304,157.40711546813887
151,3,151,0,5.033333333333319,8.06225774829855,66.48308055437865,12.041594578792296,15.132745950421556,16.0312195418814,18.24828759089466,19.026297590440446,54.230987451824994,39.11521443121589,35.0,34.0,42.0,19.0,16.0,1.0,7.0,8.06225774829855,8.246211251235321,8.0,39.0,25.0,37.33630940518894,174.26416728633572,173.95401691251627,166.59531806146293,157.40711546813887
152,3,152,0,5.066666666666652,9.055385138137417,66.48308055437865,11.045361017187261,15.132745950421556,17.11724276862369,18.110770276274835,19.026297590440446,54.230987451824994,39.11521443121589,34.5,34.0,42.0,19.0,16.0,1.0,7.0,8.06225774829855,8.246211251235321,8.0,39.0,25.0,37.21558813185679,174.10628937519746,173.80736463107655,166.73631877908304,157.2768260107
153,3,153,0,5.099999999999985,6.0,66.48308055437865,11.045361017187261,15.132745950421556,16.1245154965971,17.26267650163207,19.026297590440446,51.15662224971465,36.05551275463989,33.0,33.0,41.0,18.0,14.0,3.0,6.0,9.055385138137417,8.246211251235321,8.0,39.0,25.0,38.3275357934736,174.10628937519746,172.96531444194238,165.60495161679194,157.2768260107
154,3,154,0,5.133333333333319,2.23606797749979,67.47592163134935,12.041594578792296,15.132745950421556,17.11724276862369,17.11724276862369,20.024984394500787,49.25444142409901,34.132096331752024,33.0,33.0,41.0,17.0,12.0,5.0,5.0,8.06225774829855,7.280109889280518,7.5,38.0,25.0,37.33630940518894,172.45579143653018,172.13076424625552,166.88319268278636,157.54364474646383
155,3,155,0,5.166666666666652,2.23606797749979,66.48308055437865,12.041594578792296,16.1245154965971,16.1245154965971,17.11724276862369,18.027756377319946,48.25971404805462,32.14031735997639,31.0,32.0,40.0,18.0,12.0,5.0,5.0,8.06225774829855,8.246211251235321,7.5,38.0,25.0,38.2099463490856,173.27723451163456,172.13076424625552,166.88319268278636,157.68639763784319
156,3,156,0,5.199999999999985,4.123105625617661,66.37017402418047,12.041594578792296,15.033296378372908,16.1245154965971,18.24828759089466,18.0,49.09175083453431,34.058772731852805,32.0,32.0,39.0,17.5,13.5,3.5,5.5,8.06225774829855,8.246211251235321,8.0,38.0,26.0,37.21558813185679,173.11845655504212,172.96531444194238,165.89454481688057,157.54364474646383
157,3,157,0,5.233333333333318,8.0,68.3593446428504,12.041594578792296,15.132745950421556,17.029386365926403,19.235384061671343,16.0,51.088159097779204,36.013886210738214,32.0,32.0,39.0,19.5,15.5,1.5,7.5,9.055385138137417,8.246211251235321,8.5,38.0,25.0,37.21558813185679,173.11845655504212,172.81782315490494,166.59531806146293,158.39823231336896
158,3,158,0,5.266666666666652,9.055385138137417,69.35416353759881,12.041594578792296,16.0312195418814,18.110770276274835,20.09975124224178,14.0,51.088159097779204,35.05709628591621,30.5,32.0,39.0,21.5,15.5,2.5,8.5,9.055385138137417,8.246211251235321,8.0,37.0,24.0,35.35533905932738,172.96531444194238,172.6759971738979,166.4602054546371,157.2768260107
159,3,159,0,5.299999999999985,8.06225774829855,68.3593446428504,12.0,16.0312195418814,17.11724276862369,18.110770276274835,13.038404810405298,49.09175083453431,33.06055050963308,29.0,31.0,38.0,21.5,14.5,2.5,8.5,9.055385138137417,8.246211251235321,8.0,38.0,26.0,36.124783736376884,174.79702514631077,172.6759971738979,166.33099530754933,158.14550262337528
160,3,160,0,5.333333333333318,4.0,68.26419266350405,12.0,16.0312195418814,16.0312195418814,17.11724276862369,14.035668847618199,46.04345773288535,30.01666203960727,28.0,31.0,37.0,20.0,12.0,6.0,8.0,9.055385138137417,8.246211251235321,8.5,36.0,26.0,36.124783736376884,174.6568063374571,173.53097706173386,168.31518053936787,159.13830462839547
161,3,161,0,5.366666666666651,1.0,67.1863081289633,13.038404810405298,15.033296378372908,17.11724276862369,17.11724276862369,13.0,42.04759208325728,27.018512172212592,26.5,31.0,36.0,20.5,8.5,7.5,6.5,10.04987562112089,8.06225774829855,8.5,36.0,26.0,36.124783736376884,173.40126873814967,172.16561793807728,166.97305171793442,158.91192529196795
162,3,162,0,5.399999999999984,2.23606797749979,67.1863081289633,12.041594578792296,14.142135623730951,16.0312195418814,17.029386365926403,15.033296378372908,43.104524124504614,29.017236257093817,28.0,31.0,36.0,18.5,9.5,5.5,6.5,8.06225774829855,8.246211251235321,8.5,36.0,26.0,38.05259518088089,173.27723451163456,172.16561793807728,166.0903368652132,159.02201105507376
163,3,163,0,5.433333333333318,2.0,66.12110101926616,12.0,14.035668847618199,16.0312195418814,17.029386365926403,15.0,43.01162633521314,29.0,28.0,32.0,36.0,19.0,9.0,6.0,7.0,9.0,9.219544457292887,9.0,35.0,27.0,35.05709628591621,175.03428235634297,174.04022523543227,167.86303941010956,157.8131806916013
164,3,164,0,5.466666666666651,4.0,69.1158447825099,11.0,15.033296378372908,17.0,18.027756377319946,15.0,45.0111097397076,30.0,28.0,32.0,36.0,19.0,11.0,5.0,8.0,9.0,9.055385138137417,9.5,35.0,26.0,37.12142238654117,174.15223225672418,173.04623659588788,165.97891432347663,157.8131806916013
165,3,165,0,5.499999999999984,16.0,71.11258679024411,10.0,14.035668847618199,19.0,20.09975124224178,16.0,56.00892785976178,42.0,34.0,35.0,39.0,21.0,19.0,3.0,11.0,9.055385138137417,8.246211251235321,8.5,35.0,28.0,35.05709628591621,172.6528308484978,170.57549648176317,164.51443705644803,155.3898323572041
166,3,166,0,5.533333333333317,22.0,77.05841939723393,10.0,16.0,21.0,22.02271554554524,15.0,63.0,47.0,36.0,36.0,39.0,22.5,25.5,7.5,12.5,10.04987562112089,10.04987562112089,9.5,32.0,26.0,38.05259518088089,172.41809649801846,171.35343591536179,165.19382555047267,156.1569723067145
167,3,167,0,5.56666666666665,24.0,80.05623023850174,9.0,14.0,22.0,24.020824298928627,16.0312195418814,63.00793600809346,49.01020301937138,37.0,35.0,38.0,20.5,26.5,11.5,11.5,10.0,10.04987562112089,10.0,28.0,25.0,37.013511046643494,170.29386365926402,169.1892431568863,166.14752480852673,158.07909412695912
168,3,168,0,5.599999999999984,22.02271554554524,80.02499609497022,9.0,14.0,23.021728866442675,25.019992006393608,15.033296378372908,60.03332407921454,46.04345773288535,35.0,33.0,35.0,19.0,26.0,10.0,10.0,10.0,9.0,9.0,27.0,24.0,36.0,170.14405661086138,170.14405661086138,167.0748335327616,160.0124995117569
169,3,169,0,5.633333333333317,20.024984394500787,80.02499609497022,10.0,15.033296378372908,22.02271554554524,23.021728866442675,14.035668847618199,59.00847396772772,44.04543109109048,34.0,32.0,34.0,19.0,26.0,10.0,9.0,9.055385138137417,9.0,9.0,28.0,26.0,37.013511046643494,171.10523077919038,171.10523077919038,167.0478973228936,162.04937519163718
170,3,170,0,5.66666666666665,15.033296378372908,78.0,9.0,17.0,21.0,22.02271554554524,15.033296378372908,56.0357029044876,39.05124837953327,31.5,32.0,32.0,17.0,24.0,6.0,8.0,10.0,9.0,9.0,30.0,29.0,36.0,172.10461934532728,173.04623659588788,168.01190434013895,160.00312496948303
171,3,171,0,5.699999999999983,13.038404810405298,76.0,11.0,14.035668847618199,21.0,22.0,13.038404810405298,51.088159097779204,37.05401462729781,30.5,31.0,31.0,18.0,20.0,5.0,8.0,9.0,9.055385138137417,9.0,32.0,30.0,36.013886210738214,169.01183390520322,169.00295855398508,166.00301202086666,159.0125781188394
172,3,172,0,5.7333333333333165,10.0,73.00684899377592,10.04987562112089,14.035668847618199,19.026297590440446,20.0,14.035668847618199,48.093658625644196,34.058772731852805,29.0,31.0,30.0,16.5,17.5,2.5,7.5,9.055385138137417,9.055385138137417,9.0,33.0,32.0,36.0,171.011695506477,171.00292395160966,166.0,158.00316452527144
173,3,173,0,5.76666666666665,11.0,72.0,10.0,14.035668847618199,19.0,21.0,13.038404810405298,48.041648597857254,34.0147027033899,28.5,31.0,31.0,18.0,17.0,2.0,8.0,10.0,9.0,9.0,33.0,31.0,37.013511046643494,168.01190434013895,169.0,166.0,158.00316452527144
174,3,174,0,5.799999999999983,10.0,74.0,10.0,14.035668847618199,20.0,21.0,15.033296378372908,49.040799340956916,35.014282800023196,30.0,32.0,32.0,17.0,17.0,2.0,8.0,9.0,8.0,8.0,33.0,30.0,36.0,171.0263137648707,170.01176429882727,166.0,158.00316452527144
175,3,175,0,5.833333333333316,16.0,75.0066663703967,10.0,14.0,20.0,22.0,15.033296378372908,55.00909015790027,41.012193308819754,33.0,34.0,35.0,19.5,20.5,5.5,10.5,9.0,9.0,9.0,34.0,32.0,36.0,170.00294115102832,169.0,166.0,157.00318468107582
176,3,176,0,5.866666666666649,22.0,78.00640999302557,9.0,15.0,22.02271554554524,24.020824298928627,16.0312195418814,62.00806399170998,47.01063709417264,36.0,35.0,36.0,19.5,26.5,9.5,10.5,9.0,9.0,9.0,34.0,31.0,38.01315561749642,172.10461934532728,171.0730837975396,167.0478973228936,159.0125781188394
177,3,177,0,5.899999999999983,24.0,81.02468759581859,10.0,15.0,22.02271554554524,24.020824298928627,15.033296378372908,64.00781202322104,49.01020301937138,37.0,34.0,36.0,20.0,29.0,12.0,10.0,9.0,9.0,9.0,34.0,31.0,37.0,172.04650534085255,171.04677722775136,167.0269439342048,160.0124995117569
178,3,178,0,5.933333333333316,24.0,82.02438661763951,10.0,14.0,23.0,25.019992006393608,15.033296378372908,63.00793600809346,49.01020301937138,37.0,33.0,35.0,19.0,29.0,13.0,10.0,9.055385138137417,8.0,8.5,34.0,29.0,38.05259518088089,174.14074767268,173.07223925286226,168.02678357928536,160.00312496948303
179,3,179,0,5.966666666666649,24.020824298928627,83.05419917138447,10.0,14.0,24.0,25.019992006393608,15.0,63.00793600809346,49.01020301937138,37.0,32.0,35.0,18.5,29.5,13.5,9.5,9.0,9.055385138137417,9.0,35.0,29.0,39.05124837953327,170.14405661086138,170.10584939971935,167.0748335327616,160.0281225285106
180,3,180,0,5.999999999999982,23.0,84.09518416651456,10.04987562112089,15.0,23.0,25.019992006393608,16.0,64.00781202322104,49.01020301937138,37.5,32.0,36.0,18.0,30.0,13.0,9.0,9.0,8.06225774829855,8.5,35.0,30.0,37.013511046643494,171.14321488157222,171.0730837975396,168.07438829280326,161.02794788483146
181,3,181,0,6.033333333333316,23.0,82.05485969764375,9.0,15.0,24.020824298928627,25.019992006393608,15.033296378372908,62.00806399170998,47.01063709417264,35.5,31.0,34.0,17.5,29.5,12.5,8.5,9.055385138137417,9.0,9.0,34.0,31.0,36.013886210738214,173.1040149736568,172.07265907168403,168.04761230080004,161.0496817755316
182,3,182,0,6.066666666666649,23.0,82.09750300709517,9.0,15.0,23.021728866442675,25.019992006393608,16.0312195418814,63.00793600809346,48.010415536631214,36.5,32.0,36.0,18.0,29.0,12.0,10.0,8.0,8.06225774829855,8.5,35.0,30.0,37.0,172.07265907168403,171.10523077919038,168.07438829280326,160.04999218994044
183,3,183,0,6.099999999999982,22.02271554554524,80.09993757800315,9.0,14.035668847618199,22.02271554554524,24.020824298928627,14.035668847618199,59.00847396772772,45.044422518220834,34.0,31.0,35.0,19.0,26.0,10.0,10.0,9.0,9.055385138137417,9.0,35.0,30.0,37.013511046643494,170.18813119603846,171.14321488157222,168.07438829280326,161.07762104029226
184,3,184,0,6.133333333333315,17.0,77.10382610480494,10.0,15.0,23.0,25.019992006393608,13.038404810405298,55.00909015790027,40.01249804748511,31.5,30.0,34.0,19.0,23.0,6.0,10.0,7.0,7.0710678118654755,7.0,35.0,30.0,38.01315561749642,171.35343591536179,172.23530416264836,167.14664220378464,160.15305179733542
185,3,185,0,6.166666666666648,16.0,76.10519036176179,9.0,14.0,23.021728866442675,24.020824298928627,14.035668847618199,53.009433122794285,39.01281840626232,31.0,30.0,34.0,18.0,21.0,5.0,9.0,2.23606797749979,2.23606797749979,2.5,34.0,29.0,37.05401462729781,169.3576098083579,169.1892431568863,166.14752480852673,160.11246047700348
186,3,186,0,6.1999999999999815,15.0,75.1065909225016,9.0,14.0,22.02271554554524,25.019992006393608,13.152946437965905,51.03920062069938,37.05401462729781,29.5,29.0,33.0,18.0,20.0,4.0,9.0,1.4142135623730951,2.23606797749979,2.0,35.0,29.0,38.05259518088089,171.42053552593984,170.23806859806652,167.19150696132863,160.11246047700348
187,3,187,0,6.233333333333315,17.0,74.10802925459562,10.0,14.035668847618199,22.02271554554524,23.08679276123039,12.041594578792296,53.0,39.01281840626232,30.5,31.0,35.0,21.0,20.0,3.0,10.0,2.23606797749979,3.1622776601683795,3.0,35.0,30.0,38.05259518088089,171.35343591536179,170.18813119603846,165.14841809717706,158.07909412695912
188,3,188,0,6.266666666666648,18.0,73.06161783043132,9.0,14.0,22.02271554554524,24.020824298928627,13.038404810405298,54.00925846556311,40.01249804748511,31.0,32.0,35.0,20.5,20.5,4.5,11.5,4.123105625617661,4.123105625617661,4.0,36.0,30.0,39.05124837953327,171.23667831396403,170.14405661086138,166.0752841334315,158.05062480104277
189,3,189,0,6.299999999999981,17.0,71.11258679024411,9.0,15.033296378372908,22.02271554554524,23.021728866442675,14.035668847618199,55.0,40.01249804748511,31.5,33.0,37.0,21.0,20.0,4.0,12.0,6.0,5.0990195135927845,5.0,36.0,30.0,38.05259518088089,171.18703221914913,171.14321488157222,166.10839834276894,157.07959765672945
190,3,190,0,6.333333333333314,17.0,73.10950690573696,9.0,15.0,21.02379604162864,22.02271554554524,13.038404810405298,54.00925846556311,39.01281840626232,30.5,32.0,36.0,21.0,20.0,3.0,11.0,7.0,6.082762530298219,6.5,35.0,31.0,38.0,172.29045243425418,171.18703221914913,166.0752841334315,158.05062480104277
191,3,191,0,6.366666666666648,16.0312195418814,72.06247289678588,10.0,15.0,21.02379604162864,23.021728866442675,12.0,53.009433122794285,38.01315561749642,30.0,32.0,35.0,21.5,19.5,3.5,11.5,8.0,6.082762530298219,6.5,36.0,29.0,37.05401462729781,171.29214809792072,170.14405661086138,166.10839834276894,158.05062480104277
192,3,192,0,6.399999999999981,15.033296378372908,72.06247289678588,10.04987562112089,15.0,21.02379604162864,23.021728866442675,13.038404810405298,53.009433122794285,38.01315561749642,30.5,32.0,35.0,20.5,19.5,2.5,10.5,8.0,7.0710678118654755,7.5,36.0,29.0,36.124783736376884,170.29386365926402,171.14321488157222,167.0748335327616,159.05030650709227
193,3,193,0,6.433333333333314,14.035668847618199,71.06335201775947,10.0,15.033296378372908,21.0,23.021728866442675,12.041594578792296,51.0098029794274,36.05551275463989,29.0,31.0,34.0,20.5,18.5,2.5,10.5,8.0,8.06225774829855,7.5,34.0,29.0,36.05551275463989,172.23530416264836,170.18813119603846,166.10839834276894,158.07909412695912
194,3,194,0,6.466666666666647,14.0,73.02739212103907,10.0,14.0,21.02379604162864,23.021728866442675,13.038404810405298,51.0098029794274,37.013511046643494,30.0,32.0,34.0,20.0,18.0,2.0,10.0,9.0,8.0,8.0,35.0,31.0,35.014282800023196,171.14321488157222,171.0730837975396,166.0752841334315,160.0281225285106
195,3,195,0,6.4999999999999805,15.0,73.06161783043132,10.0,14.0,22.02271554554524,24.020824298928627,12.041594578792296,51.0098029794274,37.013511046643494,29.5,31.0,34.0,20.5,18.5,2.5,10.5,8.06225774829855,8.06225774829855,8.0,35.0,30.0,36.013886210738214,171.29214809792072,170.18813119603846,166.10839834276894,158.05062480104277
196,3,196,0,6.533333333333314,16.0312195418814,75.05997601918082,10.04987562112089,15.0,21.02379604162864,23.021728866442675,13.038404810405298,54.00925846556311,39.01281840626232,31.0,31.0,34.0,19.5,21.5,4.5,9.5,8.0,8.06225774829855,8.0,35.0,31.0,36.013886210738214,172.29045243425418,172.23530416264836,168.14577009250038,160.11246047700348
197,3,197,0,6.566666666666647,18.027756377319946,79.05694150420949,9.0,15.0,23.021728866442675,25.019992006393608,14.0,56.00892785976178,41.012193308819754,32.0,30.0,33.0,17.5,24.5,7.5,8.5,9.0,8.0,8.5,35.0,31.0,36.013886210738214,170.23806859806652,170.18813119603846,166.14752480852673,160.0781059358212
198,3,198,0,6.59999999999998,21.0,81.09870529176159,9.0,14.0,23.021728866442675,25.019992006393608,14.035668847618199,58.008620049092706,44.01136216933077,33.5,30.0,34.0,18.0,26.0,10.0,9.0,9.0,8.0,8.0,34.0,29.0,36.013886210738214,172.23530416264836,171.23667831396403,168.14577009250038,160.11246047700348
199,3,199,0,6.633333333333313,23.0,82.05485969764375,10.0,13.0,24.0,26.019223662515376,14.035668847618199,60.00833275470999,47.01063709417264,35.5,31.0,34.0,18.5,27.5,12.5,9.5,8.0,8.06225774829855,8.5,34.0,30.0,36.013886210738214,172.23530416264836,171.14321488157222,167.10774967068403,161.07762104029226
200,3,200,0,6.666666666666647,24.020824298928627,82.05485969764375,10.0,13.0,23.0,25.079872407968907,14.035668847618199,61.032778078668514,48.041648597857254,36.0,31.0,34.0,18.5,28.5,13.5,9.5,9.0,8.0,8.5,33.0,30.0,36.013886210738214,172.10461934532728,172.04650534085255,168.02678357928536,161.01242188104618
201,3,201,0,6.69999999999998,23.0,83.05419917138447,10.0,15.0,23.021728866442675,25.019992006393608,14.035668847618199,62.00806399170998,47.01063709417264,35.5,31.0,34.0,18.5,29.5,13.5,8.5,9.0,9.0,9.0,33.0,31.0,37.0,171.0263137648707,171.00292395160966,167.0029939851379,161.0
202,3,202,0,6.733333333333313,24.020824298928627,83.05419917138447,8.0,14.0,23.0,25.079872407968907,15.033296378372908,61.032778078668514,47.042533945356304,35.0,30.0,33.0,16.5,29.5,13.5,8.5,8.0,8.0,8.0,31.0,28.0,37.0,169.07394831847986,170.02646852769718,167.0029939851379,161.00310556011024
203,3,203,0,6.766666666666646,23.021728866442675,83.02409288875127,10.0,14.0,23.0,26.019223662515376,14.035668847618199,61.032778078668514,47.042533945356304,35.5,31.0,33.0,18.0,29.0,13.0,9.0,9.0,8.06225774829855,8.0,32.0,31.0,36.0,170.02646852769718,170.00294115102832,167.0,161.01242188104618
204,3,204,0,6.799999999999979,23.021728866442675,83.09632964216891,9.0,13.0,24.020824298928627,25.019992006393608,15.033296378372908,60.03332407921454,47.042533945356304,35.5,30.0,34.0,17.0,28.0,13.0,8.0,8.0,9.0,8.5,33.0,32.0,36.0,170.0470523119998,171.0263137648707,167.0269439342048,160.0124995117569
205,3,205,0,6.833333333333313,22.02271554554524,83.05419917138447,9.0,13.0,23.0,25.019992006393608,15.033296378372908,59.033888572581766,46.04345773288535,35.0,30.0,33.0,16.5,27.5,11.5,8.5,9.0,8.0,8.0,33.0,30.0,36.0,171.10523077919038,171.0730837975396,168.07438829280326,161.02794788483146
206,3,206,0,6.866666666666646,22.0,83.05419917138447,9.055385138137417,13.0,23.0,25.019992006393608,15.033296378372908,59.033888572581766,46.04345773288535,35.0,30.0,33.0,16.5,27.5,12.5,8.5,9.0,8.0,8.5,34.0,31.0,37.013511046643494,170.02646852769718,170.02646852769718,167.01197561851666,160.00312496948303
207,3,207,0,6.899999999999979,21.0,83.09632964216891,9.055385138137417,14.0,23.021728866442675,25.019992006393608,15.033296378372908,59.033888572581766,45.044422518220834,34.5,29.0,33.0,16.0,28.0,12.0,7.0,9.0,8.0,8.0,33.0,31.0,37.0,171.04677722775136,171.04677722775136,167.0269439342048,161.02794788483146
208,3,208,0,6.933333333333312,21.02379604162864,83.05419917138447,9.0,14.0,24.020824298928627,25.019992006393608,15.033296378372908,59.033888572581766,45.044422518220834,34.5,30.0,33.0,16.5,27.5,11.5,7.5,9.0,8.0,8.5,34.0,30.0,37.0,172.14238292762187,171.10523077919038,168.07438829280326,161.02794788483146
209,3,209,0,6.9666666666666455,21.0,83.09632964216891,9.0,13.0,23.021728866442675,25.019992006393608,16.0312195418814,59.00847396772772,46.010868281309364,35.5,30.0,34.0,16.0,27.0,11.0,8.0,8.0,8.06225774829855,8.0,34.0,30.0,36.013886210738214,173.1415605797753,172.14238292762187,169.10647533432893,161.0496817755316
210,3,210,0,6.999999999999979,22.0,84.1486779456457,8.0,12.0,24.020824298928627,25.079872407968907,15.0,57.0,45.0,34.0,27.0,32.0,14.5,27.5,13.5,6.5,9.055385138137417,9.0,9.0,28.0,22.0,36.05551275463989,171.29214809792072,171.23667831396403,167.14664220378464,161.11176245079065
211,3,211,0,7.033333333333312,21.0,84.2140130857092,9.0,14.035668847618199,23.021728866442675,25.019992006393608,15.033296378372908,59.0,45.0111097397076,34.5,27.0,33.0,15.0,29.0,13.0,6.0,9.0,9.0,9.0,36.0,30.0,38.05259518088089,173.4156855650607,172.35138525698017,168.24089871371942,161.11176245079065
212,3,212,0,7.066666666666645,22.0,85.21150157109074,9.0,13.0,24.08318915758459,25.079872407968907,15.0,59.0,46.0,35.0,28.0,34.0,16.0,28.0,12.0,7.0,9.055385138137417,8.0,8.5,30.0,24.0,34.058772731852805,168.4280261714184,170.23806859806652,168.1903683330291,162.077142126828
213,3,213,0,7.099999999999978,20.0,85.21150157109074,9.0,15.033296378372908,24.08318915758459,26.076809620810597,17.0,61.00819617067857,46.0,36.0,29.0,35.0,15.0,29.0,12.0,6.0,6.082762530298219,5.0990195135927845,5.5,35.0,28.0,37.12142238654117,171.49344010777787,171.35343591536179,168.24089871371942,161.19863522995473
214,3,214,0,7.133333333333312,25.019992006393608,85.37564055396598,8.0,13.038404810405298,25.079872407968907,26.1725046566048,16.0,62.03224967708329,49.01020301937138,36.5,28.0,36.0,16.0,30.0,14.0,8.0,2.0,3.1622776601683795,3.0,28.0,22.0,35.12833614050059,170.35551062410633,169.3576098083579,167.2423391369542,160.25292509030842
215,3,215,0,7.166666666666645,23.021728866442675,86.37129152675674,8.0,15.033296378372908,25.019992006393608,26.1725046566048,17.029386365926403,63.071388124885914,48.041648597857254,36.5,30.0,38.0,17.0,29.0,12.0,9.0,2.23606797749979,2.23606797749979,2.0,28.0,21.0,35.12833614050059,169.57889019568444,169.49926253526885,166.43316977093238,159.38004893963358
216,3,216,0,7.199999999999978,27.0,85.37564055396598,9.055385138137417,14.035668847618199,24.08318915758459,26.1725046566048,16.0,66.03029607687671,52.009614495783374,38.5,31.0,39.0,19.0,31.0,14.0,10.0,1.4142135623730951,2.8284271247461903,2.5,29.0,22.0,36.124783736376884,170.66048165876012,169.57889019568444,167.50522379914005,160.37767924496225
217,3,217,0,7.233333333333311,24.020824298928627,83.38465086573187,9.0,16.0312195418814,24.08318915758459,26.076809620810597,16.0312195418814,65.06919393998976,49.040799340956916,37.0,32.0,40.0,20.0,29.0,11.0,10.0,3.0,3.1622776601683795,3.0,30.0,21.0,37.12142238654117,171.6566340110396,170.57549648176317,167.50522379914005,160.31219541881399
218,3,218,0,7.266666666666644,24.0,83.48652585896721,10.04987562112089,15.033296378372908,25.079872407968907,27.073972741361768,15.0,64.03124237432849,49.01020301937138,37.0,32.0,41.0,21.5,27.5,10.5,11.5,5.0,5.385164807134504,5.0,36.0,25.0,37.21558813185679,171.9447585708852,170.84788555905513,166.67633305301626,160.52725625263767
219,3,219,0,7.299999999999978,23.0,83.60023923410746,10.04987562112089,15.132745950421556,25.179356624028344,25.179356624028344,14.0,62.07253821135398,47.01063709417264,35.5,31.0,41.0,22.0,26.0,8.0,11.0,6.0,6.324555320336759,6.0,37.0,24.0,37.21558813185679,174.26990560621763,172.16561793807728,167.96725871431016,160.79800993793424
220,3,220,0,7.333333333333311,21.02379604162864,82.49242389456137,10.0,15.033296378372908,24.08318915758459,25.179356624028344,16.0312195418814,62.07253821135398,47.042533945356304,36.5,33.0,42.0,21.5,24.5,6.5,11.5,7.0,8.06225774829855,8.0,33.0,22.0,36.22154055254967,172.0523176246109,170.84788555905513,167.6722994414999,161.5239920259526
221,3,221,0,7.366666666666644,18.0,82.60750571225353,10.04987562112089,15.132745950421556,24.08318915758459,25.179356624028344,16.0312195418814,59.135437767890075,44.04543109109048,35.0,32.0,42.0,21.0,22.0,5.0,11.0,7.0710678118654755,7.280109889280518,7.0,37.0,25.0,37.21558813185679,174.39323381370048,173.27723451163456,168.0773631397161,161.89502771858065
222,3,222,0,7.399999999999977,19.026297590440446,82.49242389456137,9.055385138137417,15.033296378372908,25.079872407968907,25.317977802344327,14.0,57.07889277132134,42.04759208325728,32.5,30.0,39.0,20.5,22.5,5.5,10.5,8.06225774829855,8.246211251235321,8.0,31.0,19.0,36.22154055254967,175.64737401965337,174.39323381370048,171.05846953600397,162.88953311984167
223,3,223,0,7.4333333333333105,18.027756377319946,81.39410298049853,9.0,15.033296378372908,23.08679276123039,25.079872407968907,14.035668847618199,56.08029957123981,41.048751503547585,32.0,30.0,38.0,20.0,22.0,5.0,10.0,8.0,8.06225774829855,8.0,29.0,19.0,35.12833614050059,174.79702514631077,174.52220489095365,170.29973576021777,162.1172415260018
224,3,224,0,7.466666666666644,17.0,82.38931969618392,10.0,15.132745950421556,23.08679276123039,25.079872407968907,14.035668847618199,56.08029957123981,41.012193308819754,32.5,30.0,38.0,20.0,22.0,5.0,10.0,8.0,9.219544457292887,9.0,33.0,21.0,36.22154055254967,173.80736463107655,172.53985046939155,169.1862878604528,162.1172415260018
225,3,225,0,7.499999999999977,18.0,81.39410298049853,9.055385138137417,15.033296378372908,23.08679276123039,25.079872407968907,14.0,56.0357029044876,41.012193308819754,32.0,30.0,38.0,20.0,22.0,5.0,10.0,10.04987562112089,9.055385138137417,9.0,31.0,20.0,35.12833614050059,172.53985046939155,172.28464818433474,168.96153408394468,161.7930777258409
226,3,226,0,7.53333333333331,18.027756377319946,81.30190649671138,9.0,15.033296378372908,24.020824298928627,25.079872407968907,14.0,56.0357029044876,41.012193308819754,32.0,30.0,37.0,19.5,22.5,5.5,10.5,9.0,9.055385138137417,9.0,29.0,19.0,34.132096331752024,172.28464818433474,172.0523176246109,167.7647161950331,161.60754932861275
227,3,227,0,7.566666666666643,20.024984394500787,80.22468448052632,10.0,16.0312195418814,23.08679276123039,24.08318915758459,15.0,61.032778078668514,45.0111097397076,35.0,33.0,39.0,21.0,25.0,7.0,10.0,9.055385138137417,8.06225774829855,8.0,38.0,28.0,37.21558813185679,170.84788555905513,171.74690681348528,167.6722994414999,160.44936896105264
228,3,228,0,7.599999999999976,25.0,81.30190649671138,10.04987562112089,15.132745950421556,23.021728866442675,25.079872407968907,15.0,65.06919393998976,50.00999900019995,37.5,34.0,41.0,22.5,27.5,9.5,12.5,10.04987562112089,9.055385138137417,9.0,38.0,29.0,38.118237105091836,171.9447585708852,171.9447585708852,167.7647161950331,160.70158679988197
229,3,229,0,7.63333333333331,28.0178514522438,81.15417426109393,10.04987562112089,16.0312195418814,23.021728866442675,25.019992006393608,16.0,70.06425622241343,54.037024344425184,40.0,38.0,43.0,24.5,29.5,11.5,14.5,9.0,9.0,9.0,37.0,28.0,37.05401462729781,173.04623659588788,171.9447585708852,166.76930173146374,159.70597985047397
230,3,230,0,7.666666666666643,30.01666203960727,82.21921916437786,8.06225774829855,16.0312195418814,24.08318915758459,26.076809620810597,16.0,70.06425622241343,54.037024344425184,39.0,36.0,42.0,23.0,31.0,13.0,14.0,10.04987562112089,10.04987562112089,10.0,31.0,22.0,36.124783736376884,173.27723451163456,172.16561793807728,165.97891432347663,157.91770008456936
231,3,231,0,7.699999999999976,29.017236257093817,80.39900496896712,10.04987562112089,15.132745950421556,24.08318915758459,25.179356624028344,15.033296378372908,69.06518659932803,54.00925846556311,39.5,35.0,43.0,24.0,30.0,12.0,14.0,9.055385138137417,9.219544457292887,9.0,40.0,29.0,39.11521443121589,173.6663467687393,171.68575945604806,166.4602054546371,157.40711546813887
232,3,232,0,7.733333333333309,28.0178514522438,78.5175139698144,9.055385138137417,16.1245154965971,23.08679276123039,25.079872407968907,15.0,68.11754546370561,52.03844732503075,38.0,35.0,44.0,24.5,28.5,10.5,14.5,9.055385138137417,9.219544457292887,9.0,39.0,27.0,39.20459156782532,172.29045243425418,172.29045243425418,166.20770138594662,156.01602481796542
233,3,233,0,7.766666666666643,27.073972741361768,75.8023746329889,8.06225774829855,15.132745950421556,22.20360331117452,24.186773244895647,14.035668847618199,64.28063471995279,49.16299421312742,35.5,31.0,42.0,22.5,27.5,9.5,13.5,10.04987562112089,10.198039027185569,9.5,33.0,20.0,36.345563690772494,172.45579143653018,171.47011401407536,165.38742394752995,155.0290295396317
234,3,234,0,7.799999999999976,22.02271554554524,72.69112738154499,9.055385138137417,15.132745950421556,20.223748416156685,22.20360331117452,15.033296378372908,61.204574992397426,46.09772228646444,35.0,32.0,42.0,22.0,24.0,6.0,12.0,9.055385138137417,9.219544457292887,8.5,40.0,25.0,36.49657518178932,171.81967291320282,171.81967291320282,164.75436261295178,156.348968656656
235,3,235,0,7.833333333333309,14.035668847618199,70.71067811865476,9.055385138137417,13.152946437965905,20.223748416156685,20.223748416156685,16.0312195418814,52.23983154643591,39.11521443121589,32.0,30.0,40.0,19.0,17.0,1.0,9.0,9.055385138137417,8.246211251235321,8.5,40.0,24.0,37.33630940518894,170.83617883809038,169.85287751463028,164.40194646049662,156.348968656656
236,3,236,0,7.866666666666642,1.4142135623730951,68.73136110975832,11.045361017187261,14.142135623730951,18.24828759089466,18.24828759089466,18.110770276274835,44.40720662234904,30.265491900843113,29.5,29.0,39.0,16.0,10.0,6.0,4.0,8.246211251235321,8.54400374531753,8.5,40.0,24.0,38.3275357934736,169.44615663980107,169.24833824885843,164.14932226482082,155.54099138169335
237,3,237,0,7.899999999999975,1.0,69.72087205421343,12.041594578792296,14.142135623730951,18.110770276274835,19.235384061671343,18.110770276274835,44.40720662234904,30.265491900843113,30.0,28.0,38.0,15.0,11.0,5.0,3.0,10.198039027185569,10.44030650891055,10.0,41.0,24.0,38.3275357934736,171.60710940983768,172.58621034138272,167.4873129523547,156.1089363233252
238,3,238,0,7.933333333333309,1.0,68.73136110975832,12.041594578792296,15.132745950421556,18.110770276274835,19.235384061671343,19.1049731745428,47.265209192385896,32.14031735997639,31.5,29.0,39.0,15.0,13.0,4.0,3.0,10.04987562112089,9.219544457292887,9.0,40.0,25.0,38.3275357934736,172.38619434281853,171.2103968805633,165.92166826548,156.70673246545599
239,3,239,0,7.966666666666642,9.055385138137417,69.58448102845921,11.045361017187261,15.132745950421556,18.24828759089466,19.235384061671343,17.029386365926403,52.23983154643591,37.12142238654117,32.5,30.0,39.0,17.5,17.5,0.5,5.5,10.198039027185569,9.219544457292887,9.5,41.0,26.0,37.21558813185679,168.8697723099075,169.49926253526885,164.23458831805192,157.00318468107582
240,3,240,0,7.999999999999975,13.0,70.57619995437555,12.041594578792296,17.11724276862369,21.095023109728988,22.20360331117452,14.142135623730951,56.22277118748239,39.11521443121589,32.5,32.0,41.0,22.5,19.5,0.5,10.5,10.198039027185569,9.219544457292887,9.0,39.0,25.0,38.2099463490856,168.8697723099075,169.49926253526885,166.20770138594662,157.99050604387594
241,3,241,0,8.033333333333308,15.0,71.56814934033156,12.041594578792296,17.11724276862369,20.09975124224178,22.20360331117452,12.041594578792296,56.142675390472796,39.05124837953327,31.5,31.0,40.0,23.5,20.5,1.5,10.5,9.055385138137417,9.219544457292887,9.0,40.0,25.0,38.2099463490856,170.6575518399347,170.31735084835015,166.04818577750254,158.8238017426859
242,3,242,0,8.066666666666642,16.0,72.56031973468694,11.045361017187261,16.0312195418814,21.213203435596427,23.194827009486403,13.038404810405298,56.08029957123981,40.049968789001575,32.0,31.0,40.0,22.5,20.5,1.5,10.5,9.055385138137417,9.219544457292887,8.5,39.0,25.0,37.21558813185679,171.30382365843442,170.1558109498468,165.60495161679194,157.40711546813887
243,3,243,0,8.099999999999975,16.0312195418814,72.56031973468694,11.0,17.029386365926403,22.20360331117452,23.194827009486403,12.041594578792296,56.08029957123981,39.05124837953327,31.0,30.0,39.0,22.5,21.5,2.5,10.5,10.04987562112089,9.055385138137417,9.0,39.0,25.0,37.21558813185679,169.33103672983285,169.1685549976709,163.9176622576103,156.69716015295236
244,3,244,0,8.133333333333308,17.0,72.56031973468694,11.045361017187261,17.11724276862369,21.213203435596427,23.194827009486403,12.041594578792296,57.14017850864661,40.049968789001575,31.5,30.0,39.0,22.5,22.5,2.5,10.5,9.055385138137417,9.219544457292887,9.5,38.0,24.0,36.345563690772494,170.31735084835015,170.1558109498468,165.0605949341029,156.84705926475002
245,3,245,0,8.166666666666641,18.0,73.55270219373317,11.045361017187261,17.11724276862369,21.213203435596427,23.194827009486403,12.041594578792296,58.137767414994535,41.048751503547585,32.0,31.0,40.0,23.5,22.5,3.5,11.5,10.04987562112089,10.198039027185569,9.5,39.0,26.0,37.21558813185679,167.0359242797788,168.02380783686579,162.77899127344412,154.434452114805
246,3,246,0,8.199999999999974,26.019223662515376,72.56031973468694,10.04987562112089,15.132745950421556,21.095023109728988,23.194827009486403,12.041594578792296,63.198101237299845,48.093658625644196,35.0,32.0,41.0,24.5,26.5,8.5,13.5,9.219544457292887,9.055385138137417,9.0,39.0,26.0,38.3275357934736,169.01183390520322,167.87197502859135,162.77899127344412,154.5736070614903
247,3,247,0,8.233333333333308,24.020824298928627,72.69112738154499,11.045361017187261,16.1245154965971,20.223748416156685,23.345235059857504,12.041594578792296,63.198101237299845,47.095647357266465,35.0,32.0,42.0,25.0,26.0,7.0,13.0,10.04987562112089,9.219544457292887,9.5,38.0,24.0,37.12142238654117,169.1685549976709,168.02380783686579,161.78998732925348,154.5736070614903
248,3,248,0,8.26666666666664,22.02271554554524,72.56031973468694,10.0,15.132745950421556,21.213203435596427,22.090722034374522,14.142135623730951,61.204574992397426,46.09772228646444,35.0,33.0,42.0,23.5,23.5,5.5,12.5,10.04987562112089,9.219544457292887,9.5,38.0,25.0,37.33630940518894,170.0,168.86088949191284,162.63455967290594,154.434452114805
249,3,249,0,8.299999999999974,20.024984394500787,73.68174807915459,10.04987562112089,15.132745950421556,21.095023109728988,23.194827009486403,13.152946437965905,58.309518948453004,43.18564576337837,33.0,31.0,41.0,23.0,22.0,4.0,12.0,10.198039027185569,10.198039027185569,10.0,38.0,25.0,37.21558813185679,170.1558109498468,168.02380783686579,162.77899127344412,152.59423318068085
250,3,250,0,8.333333333333307,20.024984394500787,72.69112738154499,10.04987562112089,15.132745950421556,21.213203435596427,22.20360331117452,13.038404810405298,58.215118311311535,43.104524124504614,33.0,31.0,41.0,23.0,22.0,4.0,12.0,9.055385138137417,9.219544457292887,9.0,38.0,25.0,36.22154055254967,167.87197502859135,166.88319268278636,161.64467204334326,153.44380078712857
251,3,251,0,8.36666666666664,21.02379604162864,74.67261881037788,10.04987562112089,15.132745950421556,21.213203435596427,23.194827009486403,14.142135623730951,60.29925372672534,45.17742799230607,34.5,32.0,42.0,23.0,23.0,5.0,12.0,10.198039027185569,9.055385138137417,9.5,38.0,24.0,36.124783736376884,170.31735084835015,168.02380783686579,162.77899127344412,154.434452114805
252,3,252,0,8.399999999999974,22.02271554554524,76.53103945458993,11.180339887498949,16.1245154965971,22.20360331117452,23.194827009486403,13.038404810405298,62.289646009589745,46.17358552246078,35.0,33.0,42.0,24.5,24.5,6.5,12.5,10.04987562112089,9.219544457292887,9.0,37.0,24.0,37.21558813185679,169.33103672983285,167.1944975171133,161.78998732925348,152.74161188098023
253,3,253,0,8.433333333333307,23.021728866442675,76.6550715869472,11.045361017187261,15.132745950421556,21.095023109728988,23.194827009486403,13.152946437965905,62.289646009589745,47.16990566028302,35.5,32.0,42.0,24.0,25.0,7.0,13.0,9.055385138137417,9.219544457292887,9.0,37.0,24.0,37.21558813185679,169.33103672983285,168.1814496310458,161.94134740701648,152.74161188098023
254,3,254,0,8.46666666666664,29.017236257093817,74.54528824815154,10.04987562112089,15.132745950421556,22.090722034374522,24.08318915758459,13.038404810405298,67.1863081289633,52.08646657242167,37.5,34.0,43.0,25.5,28.5,10.5,14.5,9.055385138137417,9.055385138137417,9.5,36.0,24.0,37.21558813185679,170.1558109498468,168.02380783686579,162.63455967290594,151.19854496654392
255,3,255,0,8.499999999999973,31.016124838541646,75.4254598925323,10.04987562112089,15.132745950421556,22.090722034374522,24.08318915758459,13.0,69.1158447825099,54.037024344425184,38.5,36.0,44.0,27.0,29.0,11.0,16.0,10.04987562112089,9.219544457292887,9.0,37.0,25.0,36.22154055254967,169.01183390520322,167.72596698186004,161.64467204334326,151.32745950421557
256,3,256,0,8.533333333333307,24.020824298928627,75.32595834106593,10.04987562112089,17.029386365926403,22.20360331117452,23.08679276123039,14.0,65.06919393998976,48.041648597857254,36.0,35.0,42.0,24.5,26.5,7.5,13.5,10.04987562112089,10.04987562112089,10.0,37.0,26.0,37.21558813185679,167.32304085211933,166.20770138594662,160.90059042775448,151.74320413119
257,3,257,0,8.56666666666664,21.02379604162864,73.33484846919642,10.04987562112089,16.0312195418814,21.095023109728988,23.08679276123039,14.035668847618199,61.1310068623117,45.09988913511872,34.5,34.0,41.0,23.5,23.5,5.5,12.5,9.055385138137417,9.055385138137417,9.0,38.0,28.0,36.124783736376884,168.0773631397161,166.97305171793442,160.79800993793424,151.64761785138597
258,3,258,0,8.599999999999973,17.029386365926403,70.25667228100119,10.04987562112089,16.0312195418814,20.024984394500787,22.090722034374522,14.0,57.07889277132134,41.048751503547585,32.5,32.0,38.0,21.0,22.0,5.0,11.0,10.04987562112089,10.04987562112089,10.0,35.0,26.0,38.118237105091836,168.96153408394468,166.97305171793442,161.69724796668618,152.47294842036735
259,3,259,0,8.633333333333306,17.029386365926403,70.178344238091,9.055385138137417,16.0312195418814,20.024984394500787,22.090722034374522,15.033296378372908,57.0350769263968,41.012193308819754,32.5,32.0,37.0,19.5,22.5,4.5,10.5,10.04987562112089,9.055385138137417,9.5,39.0,29.0,39.11521443121589,168.8579284487406,167.7647161950331,161.60754932861275,152.55490814785344
260,3,260,0,8.66666666666664,17.029386365926403,67.11929677819934,8.0,15.033296378372908,19.1049731745428,20.024984394500787,15.033296378372908,55.08175741568164,40.049968789001575,31.5,31.0,35.0,18.0,22.0,5.0,9.0,10.04987562112089,10.04987562112089,10.5,32.0,25.0,38.118237105091836,170.75128110793196,168.66831356244717,162.60381299342276,152.55490814785344
261,3,261,0,8.699999999999973,15.0,67.11929677819934,8.06225774829855,16.0312195418814,19.1049731745428,20.024984394500787,15.0,54.037024344425184,38.01315561749642,30.5,31.0,35.0,18.0,21.0,4.0,9.0,10.04987562112089,10.04987562112089,10.5,31.0,25.0,36.013886210738214,167.7647161950331,166.67633305301626,160.61133210331082,151.5585695366646
262,3,262,0,8.733333333333306,12.0,68.18357573492314,8.06225774829855,16.1245154965971,18.110770276274835,20.024984394500787,17.0,53.08483775994799,37.013511046643494,31.0,31.0,36.0,16.5,19.5,2.5,7.5,11.045361017187261,11.045361017187261,10.5,30.0,23.0,36.013886210738214,168.96153408394468,166.86821147240718,160.70158679988197,151.5585695366646
263,3,263,0,8.766666666666639,6.0,66.18912297349165,10.04987562112089,15.033296378372908,18.027756377319946,19.026297590440446,20.024984394500787,51.088159097779204,36.05551275463989,33.0,32.0,37.0,14.5,16.5,0.5,5.5,10.04987562112089,9.0,9.5,31.0,22.0,36.05551275463989,166.33099530754933,166.20770138594662,160.01562423713506,151.8453160291749
264,3,264,0,8.799999999999972,2.0,67.26812023536856,10.04987562112089,16.0312195418814,16.0312195418814,18.110770276274835,22.02271554554524,50.08991914547278,34.058772731852805,33.0,31.0,37.0,12.0,16.0,2.0,2.0,11.045361017187261,10.0,10.0,32.0,24.0,36.05551275463989,168.57639217873896,168.31518053936787,162.1172415260018,153.06207890917986
265,3,265,0,8.833333333333306,6.0,66.27216610312357,10.04987562112089,15.132745950421556,16.0312195418814,18.027756377319946,21.02379604162864,52.15361924162119,37.05401462729781,34.0,33.0,39.0,15.0,16.0,1.0,5.0,10.04987562112089,10.04987562112089,10.0,28.0,21.0,35.05709628591621,166.4602054546371,166.0903368652132,161.00931650062986,151.74320413119
266,3,266,0,8.866666666666639,3.0,65.27633568147036,12.041594578792296,16.1245154965971,16.0312195418814,18.110770276274835,22.090722034374522,53.23532661682466,37.12142238654117,35.5,33.0,39.0,14.0,17.0,1.0,2.0,10.04987562112089,10.04987562112089,10.5,41.0,34.0,38.05259518088089,168.31518053936787,168.19334112859522,162.00308639035245,150.8509197850646
267,3,267,0,8.899999999999972,4.0,64.28063471995279,11.045361017187261,17.029386365926403,16.0312195418814,18.027756377319946,21.02379604162864,53.08483775994799,36.05551275463989,34.0,33.0,39.0,15.0,17.0,1.0,4.0,10.04987562112089,10.04987562112089,10.0,33.0,25.0,36.124783736376884,167.5857989210303,167.45148551147582,161.24515496597098,151.07613974417006
268,3,268,0,8.933333333333305,1.0,64.1248781675256,12.041594578792296,16.0312195418814,16.1245154965971,17.11724276862369,23.08679276123039,52.15361924162119,36.124783736376884,35.5,35.0,39.0,14.0,15.0,3.0,2.0,10.04987562112089,9.055385138137417,9.5,40.0,33.0,40.049968789001575,168.19334112859522,168.0773631397161,160.90059042775448,150.9602596712128
269,3,269,0,8.966666666666638,3.1622776601683795,64.19501538281614,10.0,16.0312195418814,15.033296378372908,17.029386365926403,23.021728866442675,52.08646657242167,36.05551275463989,34.5,34.0,39.0,13.5,15.5,2.5,3.5,11.180339887498949,10.04987562112089,10.5,30.0,22.0,36.124783736376884,168.44286865284622,168.19334112859522,161.1241757155021,150.9602596712128
270,3,270,0,8.999999999999972,4.0,63.12685640834652,10.04987562112089,17.029386365926403,16.0312195418814,17.029386365926403,23.0,54.037024344425184,37.013511046643494,35.0,34.0,38.0,13.0,18.0,1.0,3.0,11.045361017187261,10.04987562112089,10.5,31.0,23.0,37.21558813185679,169.30741271426953,168.19334112859522,162.00308639035245,151.8453160291749
271,3,271,0,9.033333333333305,6.0,64.1248781675256,10.0,17.029386365926403,17.0,17.029386365926403,22.0,55.00909015790027,38.0,35.0,34.0,38.0,14.0,19.0,0.0,5.0,11.045361017187261,9.0,10.0,32.0,24.0,37.12142238654117,169.30741271426953,167.08381130438698,162.1172415260018,150.9602596712128
272,3,272,0,9.066666666666638,8.0,66.12110101926616,11.0,17.029386365926403,17.029386365926403,18.027756377319946,21.02379604162864,57.0350769263968,40.01249804748511,36.0,34.0,38.0,15.0,21.0,2.0,4.0,11.045361017187261,10.0,10.5,32.0,24.0,36.124783736376884,167.08381130438698,166.97305171793442,159.70597985047397,150.56227947264878
273,3,273,0,9.099999999999971,4.0,67.11929677819934,11.045361017187261,16.0312195418814,17.029386365926403,17.029386365926403,22.0,53.03772242470448,37.013511046643494,35.0,33.0,37.0,13.0,18.0,0.0,3.0,10.04987562112089,10.0,10.5,30.0,23.0,36.05551275463989,165.97891432347663,165.77394246382633,159.6151621870554,150.56227947264878
274,3,274,0,9.133333333333304,4.0,69.1158447825099,9.0,14.035668847618199,17.029386365926403,17.029386365926403,23.0,50.00999900019995,36.0,34.0,32.0,36.0,11.0,16.0,1.0,2.0,10.04987562112089,9.055385138137417,9.5,28.0,22.0,35.05709628591621,167.08381130438698,166.97305171793442,160.79800993793424,150.74813431681335
275,3,275,0,9.166666666666638,6.0,70.11419257183242,9.0,14.035668847618199,18.0,19.026297590440446,24.0,53.009433122794285,39.0,36.0,33.0,37.0,11.0,18.0,2.0,3.0,6.0,5.0,5.5,28.0,23.0,36.013886210738214,165.59287424282482,165.51132891738862,160.44936896105264,152.3975065412817
276,3,276,0,9.19999999999997,13.0,71.06335201775947,8.0,14.0,19.026297590440446,20.0,23.021728866442675,58.008620049092706,44.01136216933077,37.5,34.0,37.0,12.5,22.5,6.5,4.5,4.0,3.1622776601683795,3.5,25.0,23.0,33.0,163.37074401495514,163.3064603743526,158.2024020045208,150.16324450410627
277,3,277,0,9.233333333333304,8.0,71.00704190430693,8.0,13.0,18.027756377319946,20.0,24.0,53.0,40.0,36.0,35.0,36.0,11.5,17.5,3.5,4.5,3.0,3.0,3.5,24.0,24.0,33.015148038438355,164.14932226482082,164.0762018087937,159.02829936838285,150.0133327407934
278,3,278,0,9.266666666666636,4.123105625617661,72.00694410957877,9.0,12.0,18.0,19.0,24.0,49.01020301937138,37.013511046643494,35.0,34.0,35.0,10.5,14.5,0.5,2.5,6.082762530298219,5.0,5.5,25.0,25.0,34.0,166.02710622064097,167.01197561851666,161.0,152.00328943809077
279,3,279,0,9.29999999999997,3.0,72.00694410957877,9.0,14.0,18.0,19.0,24.020824298928627,50.00999900019995,36.013886210738214,34.5,34.0,35.0,10.5,15.5,0.5,2.5,7.0,7.0,7.5,24.0,24.0,36.0,165.0272704737008,164.01219466856725,159.0,151.00331122197287
280,3,280,0,9.333333333333304,12.0,74.00675644831355,10.04987562112089,16.0,19.0,21.0,22.0,60.00833275470999,44.01136216933077,38.0,36.0,35.0,13.5,24.5,7.5,4.5,7.0710678118654755,7.0,7.5,30.0,30.0,38.0,164.0,165.00303027520434,159.0125781188394,151.02979838429235
281,3,281,0,9.366666666666635,14.0,73.00684899377592,9.0,15.0,19.0,20.024984394500787,22.090722034374522,60.03332407921454,45.044422518220834,38.0,36.0,35.0,13.5,24.5,8.5,5.5,8.06225774829855,7.0,7.5,29.0,30.0,38.0,164.0,165.00303027520434,159.02829936838285,150.02999700059985
282,3,282,0,9.39999999999997,18.027756377319946,74.00675644831355,9.0,16.0,19.026297590440446,21.02379604162864,21.0,64.00781202322104,48.010415536631214,39.0,36.0,35.0,14.5,28.5,11.5,6.5,9.055385138137417,8.06225774829855,8.5,28.0,30.0,38.0,165.00303027520434,164.02743672934722,159.05030650709227,151.08275877809487
283,3,283,0,9.433333333333303,15.0,73.00684899377592,9.0,14.0,18.0,20.0,22.02271554554524,60.00833275470999,46.010868281309364,38.5,36.0,35.0,13.5,24.5,9.5,5.5,9.0,8.0,8.5,28.0,28.0,37.013511046643494,165.01212076693034,164.0,160.0124995117569,150.02999700059985
284,3,284,0,9.466666666666637,6.082762530298219,71.0,8.0,12.0,18.0,19.0,24.020824298928627,50.039984012787215,38.05259518088089,35.0,35.0,35.0,11.0,15.0,2.0,3.0,9.0,8.06225774829855,8.5,30.0,28.0,38.0,165.0272704737008,166.00301202086666,161.0,152.0131573252789
285,3,285,0,9.49999999999997,3.0,71.0,9.0,12.041594578792296,18.0,19.0,22.090722034374522,46.09772228646444,34.058772731852805,32.5,34.0,34.0,12.0,12.0,1.0,3.0,10.0,8.0,8.5,30.0,28.0,40.01249804748511,165.0272704737008,165.00303027520434,160.00312496948303,151.0132444522665
286,3,286,0,9.533333333333305,3.1622776601683795,72.00694410957877,9.0,13.0,18.0,20.0,23.021728866442675,48.041648597857254,35.05709628591621,33.5,35.0,34.0,11.5,13.5,0.5,2.5,10.04987562112089,9.0,9.5,30.0,30.0,39.0,165.01212076693034,165.0,161.00310556011024,152.029602380589
287,3,287,0,9.566666666666636,15.0,73.0,10.0,13.038404810405298,19.026297590440446,20.0,20.024984394500787,58.034472514187634,45.0111097397076,37.5,36.0,36.0,16.0,22.0,8.0,7.0,10.0,9.0,9.0,32.0,33.0,38.05259518088089,165.00303027520434,164.01219466856725,159.02829936838285,151.02979838429235
288,3,288,0,9.59999999999997,25.0,75.02666192761077,10.0,16.0,21.0,23.021728866442675,17.11724276862369,68.0294054067798,52.03844732503075,39.5,39.0,37.0,21.0,30.0,13.0,11.0,10.04987562112089,9.0,9.0,31.0,31.0,38.01315561749642,165.01212076693034,165.0272704737008,160.0281225285106,151.08275877809487
289,3,289,0,9.633333333333304,26.0,76.10519036176179,9.055385138137417,15.0,22.02271554554524,24.08318915758459,16.0312195418814,66.03029607687671,51.03920062069938,38.0,38.0,34.0,20.0,30.0,15.0,12.0,10.04987562112089,9.055385138137417,9.5,30.0,31.0,40.0,165.01212076693034,166.02710622064097,161.07762104029226,152.16109883935513
290,3,290,0,9.666666666666636,24.0,75.1065909225016,9.055385138137417,15.0,21.02379604162864,24.08318915758459,16.1245154965971,64.07027391856539,49.09175083453431,37.0,37.0,33.0,19.0,29.0,13.0,11.0,9.0,9.055385138137417,9.5,27.0,32.0,37.013511046643494,162.15116404145854,163.19620093617377,159.20113064925135,151.21177202850313
291,3,291,0,9.699999999999967,20.024984394500787,72.11102550927978,7.0,13.038404810405298,21.095023109728988,23.08679276123039,15.132745950421556,55.14526271584895,42.1070065428546,32.0,34.0,30.0,17.0,23.0,10.0,11.0,10.0,9.055385138137417,9.5,22.0,28.0,35.05709628591621,164.1097193952875,163.19620093617377,159.25451327984396,151.2679741386127
292,3,292,0,9.733333333333302,16.0,69.1158447825099,8.06225774829855,13.038404810405298,21.095023109728988,22.090722034374522,14.035668847618199,51.088159097779204,38.05259518088089,30.0,33.0,29.0,17.0,20.0,7.0,10.0,10.04987562112089,9.055385138137417,9.5,23.0,29.0,35.05709628591621,163.19620093617377,162.30834852218786,158.25612152457168,150.33296378372907
293,3,293,0,9.766666666666636,14.035668847618199,70.06425622241343,8.0,13.038404810405298,20.024984394500787,21.02379604162864,15.297058540778355,50.24937810560445,37.21558813185679,30.0,33.0,30.0,16.5,18.5,5.5,9.5,10.04987562112089,9.055385138137417,9.5,23.0,28.0,35.05709628591621,163.1502375113196,162.24980739587951,157.25775020646836,150.33296378372907
294,3,294,0,9.799999999999969,16.0,68.0294054067798,8.06225774829855,13.038404810405298,19.026297590440446,20.09975124224178,15.132745950421556,52.15361924162119,39.11521443121589,31.0,34.0,32.0,18.0,19.0,5.0,10.0,10.04987562112089,9.055385138137417,9.5,28.0,32.0,38.01315561749642,165.10905486980417,164.14932226482082,159.20113064925135,150.2131818450032
295,3,295,0,9.833333333333302,15.0,68.0294054067798,8.06225774829855,14.035668847618199,19.026297590440446,20.024984394500787,15.132745950421556,52.15361924162119,38.118237105091836,30.5,34.0,32.0,18.0,19.0,5.0,10.0,10.04987562112089,10.04987562112089,10.5,27.0,31.0,38.01315561749642,165.07574019219177,164.1097193952875,159.15401345866212,151.2679741386127
296,3,296,0,9.866666666666635,19.026297590440446,70.02856560004639,8.0,13.0,20.0,21.02379604162864,15.132745950421556,55.08175741568164,42.1070065428546,32.5,35.0,33.0,19.0,21.0,7.0,11.0,10.04987562112089,9.055385138137417,9.5,29.0,30.0,40.01249804748511,166.0752841334315,165.14841809717706,159.20113064925135,151.33076356114773
297,3,297,0,9.899999999999968,21.0,69.00724599634447,9.055385138137417,15.0,19.0,21.02379604162864,14.035668847618199,59.033888572581766,44.04543109109048,33.5,36.0,35.0,21.5,23.5,7.5,12.5,10.04987562112089,9.055385138137417,9.5,30.0,32.0,39.05124837953327,163.07666908543356,164.14932226482082,159.20113064925135,151.2679741386127
298,3,298,0,9.933333333333302,21.0,70.00714249274856,9.0,14.035668847618199,20.0,21.0,14.142135623730951,58.077534382926416,44.04543109109048,33.5,36.0,35.0,21.5,22.5,7.5,12.5,10.04987562112089,10.0,10.0,30.0,31.0,39.0,165.0272704737008,166.10839834276894,160.11246047700348,152.21038072352357
299,3,299,0,9.966666666666637,19.0,70.00714249274856,8.06225774829855,14.035668847618199,19.0,20.0,15.033296378372908,56.08029957123981,42.04759208325728,32.5,35.0,34.0,19.5,21.5,6.5,11.5,10.04987562112089,9.0,9.5,27.0,29.0,36.013886210738214,165.04847772699995,164.0762018087937,160.11246047700348,151.21177202850313
300,3,300,0,9.999999999999968,16.0312195418814,69.00724599634447,9.0,14.035668847618199,18.027756377319946,20.0,15.132745950421556,54.147945482723536,40.11234224026316,32.0,35.0,34.0,19.5,19.5,4.5,11.5,10.04987562112089,9.055385138137417,9.5,26.0,28.0,37.013511046643494,165.00303027520434,164.01219466856725,160.04999218994044,151.08275877809487
301,3,301,0,10.0333333333333,5.0990195135927845,69.02897942168927,10.0,11.045361017187261,18.0,19.0,20.09975124224178,46.17358552246078,35.12833614050059,32.5,35.0,33.0,14.0,12.0,0.0,5.0,10.04987562112089,9.0,9.0,32.0,31.0,36.013886210738214,163.00306745579974,163.04907236779974,159.05030650709227,150.08331019803634
302,3,302,0,10.066666666666634,3.1622776601683795,68.00735254367721,9.0,9.055385138137417,16.0312195418814,17.029386365926403,22.02271554554524,43.104524124504614,34.058772731852805,32.5,35.0,34.0,12.5,8.5,1.5,4.5,9.055385138137417,8.0,8.5,31.0,31.0,36.05551275463989,163.01226947687098,163.04907236779974,159.07859692617356,151.08275877809487
303,3,303,0,10.099999999999968,2.23606797749979,69.00724599634447,9.0,9.0,16.0312195418814,17.0,23.021728866442675,43.04648650006177,34.058772731852805,33.0,36.0,35.0,12.5,7.5,1.5,4.5,9.055385138137417,8.0,8.0,30.0,30.0,37.013511046643494,163.00306745579974,163.0,158.0,150.00333329629711
304,3,304,0,10.1333333333333,2.23606797749979,70.00714249274856,9.0,9.0,16.0,18.0,24.020824298928627,44.04543109109048,35.05709628591621,34.0,36.0,37.0,12.5,7.5,2.5,4.5,8.06225774829855,7.0710678118654755,7.5,31.0,30.0,36.013886210738214,163.02760502442524,165.01212076693034,159.0125781188394,152.0131573252789
305,3,305,0,10.166666666666634,3.0,74.06078584514209,10.0,11.045361017187261,18.0,19.0,23.021728866442675,47.0,36.013886210738214,34.5,35.0,38.0,13.5,10.5,1.5,4.5,8.0,8.0,8.0,31.0,26.0,38.01315561749642,162.19741058352318,163.11039206623224,159.15401345866212,151.11915828246265
306,3,306,0,10.199999999999967,16.0,75.16648189186454,11.045361017187261,13.038404810405298,21.02379604162864,21.02379604162864,18.0,58.034472514187634,45.0111097397076,37.0,36.0,41.0,20.5,19.5,5.5,9.5,8.0,8.246211251235321,8.0,33.0,27.0,37.05401462729781,163.51758315239374,164.51443705644803,158.45504094221806,151.40013210033868
307,3,307,0,10.2333333333333,23.021728866442675,77.31752712031083,11.045361017187261,14.035668847618199,22.02271554554524,23.08679276123039,15.0,63.071388124885914,49.040799340956916,37.5,36.0,43.0,24.5,23.5,7.5,13.5,8.0,8.246211251235321,8.0,31.0,22.0,38.2099463490856,162.36378906640482,163.22989922192565,158.14550262337528,150.9602596712128
308,3,308,0,10.266666666666634,24.0,76.4198926981712,11.045361017187261,14.142135623730951,21.095023109728988,23.08679276123039,14.0,63.071388124885914,49.01020301937138,37.0,35.0,43.0,25.0,24.0,8.0,13.0,8.0,8.06225774829855,8.0,30.0,20.0,37.21558813185679,163.35544068074378,162.36378906640482,158.14550262337528,151.07613974417006
309,3,309,0,10.299999999999969,25.019992006393608,77.41446893184762,11.045361017187261,14.035668847618199,22.090722034374522,24.186773244895647,14.035668847618199,64.03124237432849,50.00999900019995,37.5,35.0,43.0,25.0,25.0,8.0,13.0,8.06225774829855,8.06225774829855,8.0,30.0,20.0,36.124783736376884,164.47796204963143,163.35544068074378,158.26875876179733,151.07613974417006
310,3,310,0,10.3333333333333,21.0,75.4254598925323,11.045361017187261,15.033296378372908,21.095023109728988,23.08679276123039,12.041594578792296,59.00847396772772,44.0,33.5,33.0,41.0,25.0,22.0,5.0,13.0,8.06225774829855,8.246211251235321,8.0,33.0,22.0,37.21558813185679,164.61470165206995,163.62457028209425,158.39823231336896,152.190669884852
311,3,311,0,10.366666666666632,16.0,72.44308110509934,10.04987562112089,13.038404810405298,20.09975124224178,21.213203435596427,14.035668847618199,53.009433122794285,40.0,32.0,31.0,39.0,21.0,18.0,2.0,10.0,8.06225774829855,7.0710678118654755,7.5,33.0,23.0,36.22154055254967,164.61470165206995,163.48700254148645,159.26079241294764,152.31874474272692
312,3,312,0,10.399999999999968,13.0,70.178344238091,11.045361017187261,14.035668847618199,20.09975124224178,22.090722034374522,12.0,50.039984012787215,36.013886210738214,29.5,30.0,35.0,20.5,17.5,1.5,8.5,8.0,6.082762530298219,6.5,33.0,23.0,36.22154055254967,162.36378906640482,162.2374802565671,158.14550262337528,151.07613974417006
313,3,313,0,10.4333333333333,10.0,69.18092222571191,11.045361017187261,15.033296378372908,19.026297590440446,20.09975124224178,12.041594578792296,48.093658625644196,33.06055050963308,28.0,29.0,34.0,19.5,16.5,0.5,8.5,8.0,7.0710678118654755,7.0,32.0,24.0,36.124783736376884,161.37224048763778,161.1241757155021,156.16017418023074,149.09057649630307
314,3,314,0,10.466666666666631,13.0,69.18092222571191,11.0,14.035668847618199,18.110770276274835,19.1049731745428,13.038404810405298,51.03920062069938,37.013511046643494,30.5,30.0,35.0,19.5,18.5,2.5,7.5,8.0,7.280109889280518,7.5,34.0,25.0,37.12142238654117,161.37224048763778,161.37224048763778,158.14550262337528,152.0690632574555
315,3,315,0,10.499999999999966,14.0,70.25667228100119,11.045361017187261,14.035668847618199,19.026297590440446,20.09975124224178,13.038404810405298,52.08646657242167,38.05259518088089,31.0,30.0,36.0,20.0,19.0,3.0,9.0,9.055385138137417,8.06225774829855,8.0,35.0,26.0,34.132096331752024,160.65490966665163,161.37224048763778,158.26875876179733,151.19854496654392
316,3,316,0,10.5333333333333,15.0,72.24956747275377,11.045361017187261,15.132745950421556,19.1049731745428,21.02379604162864,12.0,53.08483775994799,38.01315561749642,30.5,29.0,35.0,20.0,21.0,4.0,8.0,8.06225774829855,8.06225774829855,8.0,34.0,25.0,36.124783736376884,162.49615380063616,163.48700254148645,159.38946012832844,153.3101431738944
317,3,317,0,10.566666666666633,14.0,73.33484846919642,12.041594578792296,15.033296378372908,19.1049731745428,20.09975124224178,12.041594578792296,53.08483775994799,38.05259518088089,31.0,30.0,37.0,21.5,19.5,2.5,8.5,9.055385138137417,8.246211251235321,8.0,36.0,24.0,37.21558813185679,163.76812876747417,163.76812876747417,160.65490966665163,154.434452114805
318,3,318,0,10.599999999999966,14.035668847618199,74.43117626371358,11.045361017187261,15.033296378372908,21.095023109728988,22.090722034374522,12.041594578792296,52.15361924162119,37.12142238654117,30.0,28.0,36.0,20.0,20.0,3.0,8.0,9.055385138137417,8.06225774829855,8.0,34.0,22.0,37.21558813185679,162.92943257741985,162.92943257741985,159.66527487215245,154.434452114805
319,3,319,0,10.6333333333333,14.0,74.43117626371358,12.041594578792296,14.142135623730951,21.095023109728988,23.194827009486403,12.041594578792296,52.15361924162119,38.05259518088089,31.0,29.0,37.0,21.0,19.0,3.0,9.0,8.0,8.246211251235321,8.0,35.0,23.0,37.12142238654117,163.9176622576103,164.07315441594946,160.80111939908875,154.5736070614903
320,3,320,0,10.666666666666632,14.142135623730951,74.54528824815154,12.041594578792296,15.033296378372908,22.20360331117452,22.090722034374522,12.041594578792296,53.23532661682466,38.2099463490856,31.0,28.0,37.0,20.5,20.5,3.5,7.5,8.0,6.324555320336759,6.0,35.0,24.0,36.22154055254967,163.24827717314508,163.08586695357755,160.80111939908875,154.719100307622
321,3,321,0,10.699999999999966,17.029386365926403,74.54528824815154,10.04987562112089,13.152946437965905,21.095023109728988,23.08679276123039,13.152946437965905,53.33854141237835,40.19950248448356,31.5,28.0,37.0,19.5,20.5,5.5,8.5,4.0,4.47213595499958,4.0,30.0,18.0,35.22782990761707,163.59095329510126,163.24827717314508,159.13830462839547,152.8953890737062
322,3,322,0,10.7333333333333,19.1049731745428,73.68174807915459,10.04987562112089,14.142135623730951,21.095023109728988,23.194827009486403,13.341664064126334,56.568542494923804,42.42640687119285,32.5,29.0,39.0,21.0,22.0,6.0,10.0,1.0,3.1622776601683795,1.0,33.0,19.0,36.345563690772494,164.93938280471406,164.14932226482082,158.8584275384847,151.60804727981954
323,3,323,0,10.766666666666632,19.1049731745428,74.81310045707235,10.198039027185569,13.152946437965905,22.090722034374522,23.194827009486403,13.038404810405298,55.44366510251645,42.2965719651132,32.5,28.0,39.0,20.5,21.5,6.5,9.5,2.0,2.8284271247461903,1.5,32.0,18.0,36.49657518178932,164.93938280471406,163.77118183612157,158.67261893597143,151.25144627407698
324,3,324,0,10.799999999999963,25.079872407968907,73.97972695272672,10.04987562112089,13.152946437965905,21.095023109728988,23.194827009486403,13.341664064126334,61.5223536610881,48.373546489791295,35.5,30.0,42.0,23.0,25.0,10.0,12.0,1.0,2.8284271247461903,1.5,36.0,21.0,35.35533905932738,166.1114083980989,164.14932226482082,158.8584275384847,150.62536307010186
325,3,325,0,10.833333333333298,30.14962686336267,71.84705978674423,10.04987562112089,13.152946437965905,21.213203435596427,23.08679276123039,13.341664064126334,66.61080993352356,53.46026561849464,38.0,33.0,44.0,25.5,27.5,11.5,14.5,6.082762530298219,5.385164807134504,5.0,36.0,21.0,37.21558813185679,163.5726138447387,162.3884232326923,156.31058825300352,147.87156589419075
326,3,326,0,10.866666666666632,29.154759474226502,72.00694410957877,11.045361017187261,15.297058540778355,20.223748416156685,23.194827009486403,12.649110640673518,67.89698078707183,52.61178575186362,37.5,32.0,44.0,26.0,29.0,12.0,14.0,7.0710678118654755,6.324555320336759,6.5,41.0,26.0,37.48332962798263,163.95731151735808,164.75436261295178,159.47727110782904,149.2816130673835
327,3,327,0,10.899999999999965,27.073972741361768,71.02112361825881,11.180339887498949,14.317821063276353,20.223748416156685,22.090722034374522,13.341664064126334,65.76473218982953,51.478150704935004,37.5,32.0,44.0,25.0,27.0,11.0,13.0,7.280109889280518,6.708203932499369,6.0,39.0,22.0,37.48332962798263,165.73774464496614,164.7604321431575,158.26875876179733,148.85227576359054
328,3,328,0,10.933333333333298,24.08318915758459,72.18032973047436,11.180339887498949,14.317821063276353,20.396078054371138,21.37755832643195,12.165525060596439,61.66036003787198,47.38143096192854,35.0,30.0,43.0,24.5,24.5,7.5,11.5,7.0710678118654755,6.708203932499369,6.5,40.0,24.0,36.345563690772494,164.14932226482082,163.95731151735808,159.84054554461454,150.62536307010186
329,3,329,0,10.966666666666631,19.235384061671343,71.19691004531025,11.045361017187261,13.152946437965905,19.4164878389476,21.213203435596427,14.142135623730951,57.55866572463264,44.40720662234904,34.5,30.0,43.0,22.5,20.5,4.5,9.5,8.246211251235321,7.280109889280518,7.5,41.0,24.0,37.33630940518894,163.59095329510126,163.59095329510126,160.29036153181514,150.9205088780183
330,3,330,0,10.999999999999964,12.165525060596439,71.386273190299,10.04987562112089,11.180339887498949,19.4164878389476,20.615528128088304,16.1245154965971,49.49747468305833,38.3275357934736,32.0,28.0,42.0,19.0,14.0,0.0,7.0,7.0710678118654755,7.280109889280518,7.5,41.0,25.0,37.48332962798263,163.41664541900252,164.40194646049662,160.29036153181514,152.2366578718805
331,3,331,0,11.033333333333298,5.385164807134504,74.33034373659252,11.045361017187261,12.165525060596439,19.4164878389476,20.396078054371138,18.110770276274835,46.52956049652737,34.36568055487916,31.5,27.0,41.0,16.0,12.0,3.0,3.0,8.06225774829855,7.280109889280518,7.5,40.0,24.0,36.49657518178932,162.43152403397562,164.23458831805192,161.27616066858735,154.20765220960988
332,3,332,0,11.066666666666633,2.0,75.13321502504735,12.041594578792296,13.152946437965905,19.235384061671343,20.396078054371138,18.110770276274835,45.27692569068709,32.14031735997639,31.0,27.0,40.0,15.5,11.5,4.5,2.5,8.06225774829855,7.280109889280518,7.5,40.0,24.0,36.49657518178932,165.55965692160635,166.20770138594662,162.09873534361705,154.8709139896837
333,3,333,0,11.099999999999964,7.0710678118654755,71.02112361825881,11.045361017187261,12.165525060596439,20.223748416156685,20.396078054371138,17.11724276862369,47.38143096192854,35.22782990761707,31.5,27.0,39.0,16.0,14.0,1.0,4.0,9.055385138137417,7.280109889280518,7.5,39.0,23.0,37.33630940518894,165.73774464496614,167.35889578985635,163.24827717314508,156.01602481796542
334,3,334,0,11.133333333333296,10.198039027185569,75.13321502504735,12.041594578792296,15.132745950421556,20.223748416156685,21.37755832643195,15.132745950421556,52.46903848937962,37.33630940518894,32.0,27.0,40.0,18.5,18.5,0.5,5.5,8.06225774829855,8.246211251235321,8.0,40.0,25.0,37.33630940518894,164.40194646049662,166.20770138594662,162.92943257741985,155.7080601638849
335,3,335,0,11.16666666666663,13.038404810405298,77.27871634544663,12.041594578792296,15.132745950421556,21.213203435596427,23.345235059857504,14.142135623730951,54.3323108288245,39.20459156782532,32.5,27.0,41.0,20.0,20.0,2.0,7.0,8.06225774829855,7.280109889280518,7.5,40.0,23.0,38.47076812334269,166.37307474468338,168.34488409215172,165.0605949341029,157.83535725559088
336,3,336,0,11.199999999999964,17.029386365926403,79.2464510246358,11.045361017187261,14.142135623730951,21.213203435596427,22.360679774997898,15.132745950421556,57.3149195236284,43.18564576337837,34.5,28.0,42.0,20.0,22.0,5.0,8.0,8.06225774829855,8.246211251235321,8.0,39.0,22.0,37.48332962798263,166.7213243709394,168.51409436602032,164.40194646049662,158.97798589741913
337,3,337,0,11.233333333333295,15.033296378372908,79.2464510246358,11.045361017187261,15.132745950421556,22.20360331117452,24.331050121192877,14.035668847618199,55.226805085936306,40.11234224026316,32.5,27.0,41.0,20.0,21.0,3.0,8.0,8.06225774829855,8.06225774829855,8.0,38.0,22.0,37.33630940518894,168.51409436602032,168.34488409215172,166.20770138594662,159.81239000778382
338,3,338,0,11.26666666666663,14.035668847618199,80.23091673413684,12.041594578792296,15.132745950421556,22.360679774997898,23.345235059857504,14.142135623730951,55.326304774492215,40.19950248448356,33.0,27.0,41.0,20.0,21.0,3.0,7.0,9.219544457292887,8.246211251235321,8.0,38.0,22.0,37.33630940518894,169.49926253526885,169.33103672983285,165.22106403240477,159.9656213065795
339,3,339,0,11.299999999999963,14.035668847618199,81.21576201698781,12.041594578792296,15.132745950421556,21.37755832643195,23.345235059857504,14.035668847618199,55.226805085936306,40.11234224026316,33.0,27.0,41.0,20.0,21.0,3.0,7.0,8.06225774829855,8.246211251235321,8.5,36.0,21.0,37.33630940518894,169.49926253526885,170.31735084835015,166.04818577750254,160.80111939908875
340,3,340,0,11.333333333333297,15.033296378372908,79.2464510246358,12.041594578792296,15.132745950421556,22.360679774997898,24.331050121192877,14.142135623730951,56.32051136131489,41.19465984809196,33.5,29.0,43.0,22.0,20.0,2.0,9.0,9.055385138137417,8.246211251235321,8.5,36.0,21.0,38.3275357934736,169.33103672983285,170.31735084835015,166.20770138594662,160.9534094078159
341,3,341,0,11.36666666666663,24.08318915758459,80.4114419718985,12.041594578792296,14.142135623730951,23.345235059857504,25.317977802344327,14.142135623730951,64.38167441127949,50.24937810560445,38.0,32.0,47.0,25.5,24.5,6.5,12.5,8.06225774829855,8.246211251235321,8.5,35.0,19.0,38.3275357934736,171.47011401407536,170.48460341039598,165.22106403240477,157.99050604387594
342,3,342,0,11.399999999999965,28.071337695236398,80.23091673413684,12.165525060596439,16.1245154965971,23.194827009486403,25.317977802344327,13.152946437965905,69.46221994724903,53.33854141237835,39.0,34.0,48.0,28.0,28.0,9.0,15.0,8.06225774829855,8.246211251235321,8.5,35.0,19.0,37.33630940518894,171.81967291320282,170.6575518399347,165.38742394752995,156.1793840428371
343,3,343,0,11.433333333333296,32.0624390837628,79.2464510246358,12.165525060596439,16.278820596099706,22.20360331117452,24.331050121192877,15.132745950421556,75.53806987208503,59.30430001273095,43.0,38.0,52.0,30.0,30.0,11.0,17.0,8.246211251235321,9.486832980505138,9.0,37.0,21.0,37.33630940518894,169.33103672983285,170.48460341039598,165.38742394752995,157.33403954643762
344,3,344,0,11.46666666666663,35.12833614050059,80.23091673413684,12.041594578792296,15.132745950421556,23.194827009486403,25.317977802344327,14.317821063276353,76.53103945458993,61.40032573203501,43.5,38.0,52.0,31.0,31.0,13.0,18.0,9.055385138137417,9.219544457292887,9.0,38.0,23.0,37.33630940518894,170.48460341039598,170.31735084835015,165.22106403240477,156.01602481796542
345,3,345,0,11.499999999999964,36.05551275463989,79.2464510246358,12.041594578792296,15.297058540778355,22.20360331117452,25.317977802344327,13.341664064126334,76.53103945458993,61.29437168288782,43.0,38.0,52.0,32.0,31.0,13.0,19.0,9.055385138137417,9.219544457292887,9.0,38.0,23.0,37.33630940518894,172.6267650163207,172.6267650163207,166.37307474468338,156.01602481796542
346,3,346,0,11.533333333333296,36.124783736376884,78.44743462982075,11.045361017187261,16.278820596099706,22.20360331117452,24.515301344262525,14.142135623730951,77.52418977325722,61.29437168288782,43.0,38.0,53.0,31.5,31.5,12.5,18.5,9.219544457292887,9.219544457292887,9.0,39.0,23.0,37.33630940518894,171.30382365843442,170.48460341039598,164.40194646049662,155.0290295396317
347,3,347,0,11.56666666666663,28.071337695236398,76.11832893594026,11.045361017187261,15.297058540778355,21.213203435596427,23.345235059857504,14.317821063276353,68.59300255857006,53.33854141237835,39.0,36.0,49.0,28.5,25.5,7.5,15.5,9.055385138137417,9.219544457292887,9.0,38.0,23.0,36.345563690772494,170.48460341039598,170.48460341039598,164.40194646049662,155.0290295396317
348,3,348,0,11.599999999999962,17.11724276862369,75.31268153505093,11.045361017187261,11.180339887498949,19.4164878389476,21.37755832643195,15.297058540778355,54.589376255824725,43.41658669218482,34.5,32.0,46.0,24.0,15.0,1.0,11.0,9.055385138137417,9.219544457292887,9.0,38.0,21.0,36.345563690772494,170.03823099526764,169.6732153287607,164.57521077003062,156.1793840428371
349,3,349,0,11.633333333333296,1.0,72.18032973047436,13.038404810405298,12.36931687685298,19.235384061671343,19.235384061671343,15.297058540778355,40.792156108742276,28.442925306655784,28.0,29.0,42.0,20.5,4.5,9.5,6.5,9.055385138137417,8.54400374531753,8.5,37.0,20.0,36.345563690772494,171.40595088852663,171.0204666114556,164.93938280471406,155.54099138169335
350,3,350,0,11.666666666666629,1.4142135623730951,72.00694410957877,12.041594578792296,11.180339887498949,19.4164878389476,20.396078054371138,16.278820596099706,40.607881008493905,29.427877939124322,28.5,29.0,41.0,19.0,5.0,8.0,5.0,9.055385138137417,9.219544457292887,9.0,37.0,24.0,35.35533905932738,170.55790805471318,170.69563556224864,166.59531806146293,156.55350523063993
351,3,351,0,11.699999999999962,2.23606797749979,73.824115301167,13.038404810405298,11.180339887498949,18.24828759089466,19.4164878389476,16.1245154965971,41.593268686170845,30.4138126514911,29.5,30.0,41.0,19.5,5.5,7.5,5.5,9.055385138137417,9.219544457292887,9.0,35.0,21.0,36.22154055254967,169.49926253526885,169.33103672983285,164.07315441594946,155.8589105569521
352,3,352,0,11.733333333333295,13.038404810405298,72.99315036357864,12.041594578792296,13.152946437965905,19.235384061671343,21.37755832643195,17.11724276862369,55.326304774492215,42.190046219457976,35.5,32.0,44.0,21.0,17.0,1.0,8.0,8.06225774829855,8.246211251235321,8.0,35.0,22.0,36.22154055254967,168.86088949191284,168.71573726241425,162.77899127344412,154.434452114805
353,3,353,0,11.766666666666628,14.035668847618199,74.96665925596525,13.038404810405298,14.142135623730951,19.1049731745428,21.37755832643195,16.1245154965971,57.3149195236284,43.18564576337837,36.0,32.0,44.0,22.0,19.0,3.0,9.0,9.055385138137417,8.06225774829855,8.5,36.0,23.0,37.21558813185679,167.72596698186004,167.5857989210303,161.50541786577935,154.30165261590687
354,3,354,0,11.799999999999962,12.041594578792296,73.68174807915459,12.041594578792296,12.165525060596439,19.1049731745428,19.235384061671343,17.26267650163207,53.46026561849464,41.30375285612676,35.0,32.0,42.0,20.0,16.0,1.0,8.0,9.055385138137417,9.219544457292887,9.0,36.0,24.0,37.21558813185679,168.02380783686579,168.86088949191284,163.9176622576103,154.5736070614903
355,3,355,0,11.833333333333297,2.23606797749979,74.54528824815154,12.041594578792296,11.045361017187261,18.24828759089466,19.235384061671343,18.110770276274835,43.289721643826724,32.2490309931942,31.0,31.0,40.0,17.5,7.5,5.5,4.5,9.055385138137417,9.219544457292887,9.0,35.0,22.0,38.2099463490856,169.01183390520322,169.7056274847714,163.62457028209425,155.42522317822161
356,3,356,0,11.866666666666628,1.0,73.55270219373317,12.0,12.165525060596439,18.24828759089466,19.235384061671343,17.11724276862369,41.30375285612676,29.154759474226502,29.0,30.0,39.0,17.5,6.5,7.5,4.5,9.055385138137417,9.219544457292887,9.0,34.0,23.0,37.21558813185679,170.69563556224864,169.5670958647343,163.48700254148645,156.28499608087785
357,3,357,0,11.89999999999996,2.23606797749979,74.54528824815154,12.041594578792296,13.038404810405298,18.110770276274835,19.1049731745428,17.029386365926403,44.181444068749045,31.144823004794873,30.0,30.0,39.0,17.5,9.5,5.5,5.5,9.055385138137417,9.219544457292887,9.0,35.0,25.0,37.12142238654117,169.1862878604528,169.07099100673656,162.9969324864735,153.9415473483361
358,3,358,0,11.933333333333294,11.045361017187261,74.43117626371358,12.0,15.033296378372908,19.1049731745428,20.223748416156685,15.033296378372908,53.08483775994799,38.05259518088089,32.5,32.0,40.0,21.0,17.0,1.0,8.0,8.06225774829855,9.055385138137417,9.0,33.0,24.0,38.118237105091836,170.75128110793196,168.7601848778319,163.68872899500442,154.5477272560163
359,3,359,0,11.966666666666628,18.0,76.4198926981712,11.0,15.033296378372908,22.090722034374522,23.194827009486403,14.035668847618199,58.034472514187634,43.01162633521314,34.0,33.0,41.0,23.0,21.0,4.0,11.0,9.0,9.055385138137417,9.0,34.0,25.0,37.12142238654117,168.58232410309213,167.5857989210303,162.5207679036744,154.39235732380018
360,3,360,0,11.99999999999996,22.0,76.4198926981712,11.0,15.033296378372908,22.090722034374522,24.186773244895647,13.0,61.00819617067857,46.0,35.0,34.0,42.0,25.0,23.0,6.0,13.0,10.0,9.0,9.0,33.0,25.0,36.05551275463989,169.49926253526885,167.50522379914005,161.4465855941215,154.39235732380018
361,3,361,0,12.033333333333294,22.0,77.23341245859851,10.0,13.0,22.090722034374522,23.08679276123039,14.0,59.0,46.0,35.0,33.0,39.0,22.0,23.0,8.0,11.0,8.0,8.06225774829855,8.5,35.0,28.0,36.05551275463989,166.30093204789924,166.24379687675568,162.24980739587951,156.20499351813308
362,3,362,0,12.066666666666627,20.0,75.1065909225016,11.0,14.0,21.02379604162864,23.021728866442675,13.038404810405298,58.008620049092706,44.01136216933077,34.0,33.0,37.0,22.0,23.0,7.0,11.0,10.0,9.0,9.0,34.0,30.0,37.0,165.19382555047267,166.14752480852673,162.15116404145854,156.08010763707205
363,3,363,0,12.09999999999996,16.0,75.05997601918082,11.0,14.0,22.02271554554524,23.021728866442675,12.041594578792296,53.009433122794285,39.01281840626232,31.0,31.0,34.0,20.5,20.5,4.5,9.5,9.0,9.0,9.0,32.0,29.0,34.0,163.07666908543356,163.04907236779974,159.05030650709227,154.02921800749363
364,3,364,0,12.133333333333294,14.0,72.06247289678588,11.0,13.0,21.0,22.0,11.0,49.0,36.0,29.0,30.0,33.0,20.5,17.5,2.5,10.5,9.0,9.055385138137417,9.0,32.0,27.0,34.0147027033899,164.24676556937126,164.19500601419034,159.20113064925135,153.16004700965587
365,3,365,0,12.166666666666629,7.0,69.1158447825099,10.04987562112089,13.0,21.02379604162864,22.02271554554524,12.0,42.01190307520001,29.017236257093817,25.5,29.0,33.0,19.0,11.0,4.0,9.0,9.0,8.06225774829855,8.0,33.0,27.0,36.05551275463989,162.4438364481706,164.3684884641822,159.45218719101973,152.3975065412817
366,3,366,0,12.19999999999996,5.0990195135927845,69.1158447825099,11.045361017187261,15.033296378372908,21.02379604162864,22.02271554554524,11.0,42.01190307520001,27.0,24.5,29.0,33.0,20.0,11.0,5.0,9.0,8.0,8.06225774829855,8.0,32.0,26.0,35.05709628591621,159.53056133543816,160.44936896105264,156.3873396410336,150.4027925272666
367,3,367,0,12.233333333333292,11.045361017187261,71.11258679024411,11.0,13.038404810405298,19.1049731745428,21.02379604162864,10.04987562112089,45.09988913511872,32.0624390837628,26.5,30.0,34.0,22.0,13.0,2.0,10.0,8.0,8.06225774829855,8.5,32.0,24.0,36.013886210738214,162.88953311984167,161.89502771858065,157.71493271088823,151.74320413119
