,video_id,frame_seq,time_seconds,m1,m3,m4,m5,m6,m7,m8,m9,m10,m11,m12,m13,m14,m15,m16,m17,e1,e2,e3,b1,b2,b3
0,67,0,0.0,8.631719009319275,151.1830814065939,16.92819371706495,28.827675128514638,36.62128226871899,39.482993292331436,41.8095542835261,81.29058926203156,52.99362864269891,53.86518256759257,79.00226776580246,50.27417039641978,23.940081141152177,14.364048684691397,11.970040570576089,11.970040570576089,33.516113597613185,31.940052025317996,31.12210548349799,52.66817851053503,81.39627587991777,73.24256453743797
1,67,1,0.0333333333333333,3.3602768982250772,148.70886335700214,12.115650656307672,29.3904194203657,38.67969183355437,42.10414885425181,41.496358599203,81.27425537743164,51.89425217314292,51.085603500088496,78.41046118618226,45.14541704658973,21.38467123259511,16.632522069796323,7.128223744198294,14.256447488396702,33.349795981765894,34.02021068947674,32.07700684889272,42.76934246519028,85.53868493038055,63.9777660743962
2,67,2,0.0666666666666666,12.906004677798986,159.87215339548624,12.220233187186967,22.09542106034655,36.6606995615611,41.85455596950435,40.1740836193094,87.23700726992246,65.19415776398158,56.31974522422456,76.6907169010716,40.741943353694296,20.370971676847034,25.164141483164144,3.5948773547378323,13.181216967371597,24.440466374373923,25.021080963602305,23.965849031584867,43.13852825685274,91.07022632002247,66.84710716314285
3,67,3,0.0999999999999999,17.98229615314373,146.79546535898046,13.694908742479214,19.36752567907612,41.94156153113715,44.41299525060381,45.063504997051055,95.72934090330793,76.50405117640884,64.84855811108298,83.9216634378721,48.3185334945324,22.887726392146874,25.43080710238553,10.172322840954166,17.80156497166979,14.828581286110015,13.694908742479214,12.715403551192708,35.60312994333964,83.92166343787204,53.886914134653594
4,67,4,0.1333333333333332,14.752866122334698,140.6079237998135,8.744746321951974,20.722252886833502,37.65165413130654,42.357025946811206,44.7213595499958,88.2843001164919,67.6496163199415,58.20855000871984,77.61140001162653,41.231056256176544,15.7648156273616,25.466240628814944,10.914103126635041,13.33945937699832,16.26978433639918,15.339299776947414,14.55213750217996,36.38034375544993,94.58889376416982,71.33186731130513
5,67,5,0.1666666666666665,5.259425900568428,151.85083827840572,14.875902877759897,24.556506785733678,41.679083704708404,43.94060700637924,43.940607006379345,87.02721038857335,62.496498985654085,57.62612579783922,75.26677655227968,32.929214741622445,11.760433836293714,28.225041207104823,9.408347069034903,7.056260301776206,21.29905155584451,22.313854316639972,21.168780905328617,37.63338827613984,96.4355574576083,77.04655052918183
6,67,6,0.1999999999999998,6.6151858447577805,150.35911428265072,12.594938611699481,24.418012127102344,39.20579060666951,43.69278921126262,43.69278921126259,86.5363912382935,62.144029012289934,56.13171323564984,74.84228431419979,35.08232077228115,12.863517616503032,26.896445925415605,8.185874846865659,8.185874846865545,21.178928408845664,22.18800784900919,21.04939246336869,39.75996354191864,95.89167677756853,74.32890638766524
7,67,7,0.2333333333333331,7.154129900493264,144.19609805646564,11.311672581136214,20.857693649625354,39.26633336362206,44.17349355539097,49.69417446792555,87.98416427551733,67.20694875810017,60.704805193538846,78.41037337498778,40.469870129025935,11.382150973788498,24.028985389109152,6.323417207660327,8.852784090724413,15.997120777366781,15.997120777366852,16.440884739916783,40.469870129025935,96.11594155643661,68.10528761504199
8,67,8,0.2666666666666664,2.4323413767988313,157.52110176217604,13.098559181274553,27.732958632779127,44.85015891742101,44.85015891742079,43.10119900898844,84.60912677529805,56.93965179171551,53.51151028957588,68.10555855036932,31.620437898385717,8.513194818796137,30.4042672099863,6.080853441997192,3.6485120651983607,15.383477595508788,18.52416004170509,17.02638963759233,46.2144861591791,99.72599644875493,72.56371869072244
9,67,9,0.2999999999999997,4.879409602759324,150.88740887122492,12.44010238964104,27.816914590294893,37.8744035439226,42.607612617370584,46.29014394485106,87.96480758370141,60.25626362382424,56.113210431732796,70.75143924001088,34.15586721931561,8.538966804828874,30.49631001724606,6.099262003449212,3.65955720206955,15.430047981616985,14.225801334468073,13.418376407588198,34.15586721931555,90.26907765104829,68.70271099217948
10,67,10,0.333333333333333,4.599752626205827,157.90623165653346,14.545694972151844,30.250149960189834,35.70368166440098,40.1656130533257,42.407623829855275,88.14859171101601,58.18277988860734,55.19703151447118,64.39653676688306,29.89839207033856,5.749690782757398,37.947959166198984,8.049567095860425,1.1499381565515705,23.454228398723618,22.6511547694702,21.848824974478134,41.397773635853355,94.29492883722156,71.40736332880174
11,67,11,0.3666666666666663,4.599752626205827,157.90623165653346,14.545694972151844,30.68417715846111,35.18134259808567,39.70202078686278,40.75391209994008,87.27416983291107,56.802754721043065,52.897155201368264,64.39653676688306,29.89839207033856,8.049567095860311,35.64808285309596,8.049567095860425,1.1499381565515705,23.11347089064682,24.01141364137805,22.99876313102959,39.097897322750384,94.2949288372215,68.61190595996565
12,67,12,0.3999999999999997,2.410513482009492,157.92083130450837,12.981012370440768,32.1602610990178,36.873765847634424,39.24031651811191,45.03210811393748,90.73910471746657,58.699839194337066,55.44181008621797,67.49437749626532,33.74718874813266,7.231540446028475,36.15770223014215,7.231540446028362,0.0,21.8281279602684,22.868138801079745,21.694621338085312,38.568215712151584,94.01002579836955,76.60731687912681
13,67,13,0.433333333333333,5.415204359369067,159.19227223352658,15.316510896083283,34.24875954175844,39.940573869223485,41.80593881163659,48.25308692038398,101.13537493330864,67.46223252293717,61.75470180397235,70.230837345694,33.90454216688681,6.0543825298012734,44.802430720528946,10.897888553642133,1.2108765059601865,24.33831655487566,23.85150104547621,21.79577710728438,48.435060238409676,101.71362650066033,68.19718401108328
14,67,14,0.4666666666666663,2.2905059878610246,155.02851155203282,16.675135293683894,32.392646327299715,37.775992496244314,40.001967358248905,45.00130247720661,94.43998124061069,62.308499287949495,59.553155684388685,66.4246736479721,32.06708383005548,5.726264969652902,42.37436077543043,12.597782933235976,3.435758981791537,18.466649648157475,20.486908366911,19.46930089681939,38.93860179363884,93.91074550230536,71.11643019677096
15,67,15,0.4999999999999996,5.237738199233437,158.54002807722162,17.05284009493178,33.5378884128395,38.63164814679509,42.7445649896104,43.1914956695438,89.77794965447652,56.31482049063783,56.21730557679973,63.24446877389971,28.108652788399922,3.5135815985499903,40.99178531641644,10.540744795649857,5.855969330916537,18.884933644792575,23.06984369275087,19.91029572511661,42.162979182599884,96.03789702703301,69.88014351001428
16,67,16,0.533333333333333,3.350537372435933,159.8455665853451,14.984058651840947,31.608906353811925,38.56758147255281,40.89852077923464,44.26007873212368,89.18347568175456,57.693490558578866,55.67591087170899,61.59888011338023,28.43025236002154,2.3691876966685186,40.276190843363906,9.476750786673847,7.107563090005328,26.168533427181554,23.333792730252718,22.507283118350472,42.64537854003248,99.50588326007579,72.984825646164
17,67,17,0.5666666666666663,10.735595763046327,164.31073942010244,14.601988916477891,29.203977832956006,39.078158440935695,41.92384166449864,42.53789319282692,78.19317437832349,49.48865120646534,50.41159600077356,57.61325257231272,24.00552190513031,0.0,33.60773066718241,7.201656571539047,7.201656571539047,19.353870498158695,23.642697170153063,21.60496971461737,40.80938723872151,93.62153543000818,68.74135343364351
18,67,18,0.5999999999999996,7.557535235953595,163.581798338922,15.11507047190719,24.372318805642454,38.90479378342754,41.73785254061052,42.34917991720921,75.57535235953596,51.48007500286264,51.38290341157153,59.74756210647854,26.288927326850512,2.389902484259096,28.678829811109722,7.169707452777402,7.169707452777402,23.89902484259136,25.74003750143132,23.899024842591416,47.79804968518283,95.59609937036566,70.77501618864578
19,67,19,0.633333333333333,10.846522890932684,169.42810378724414,17.656860023298417,24.73387769603367,40.00000000000011,42.357025946810985,41.44450577366711,76.11910172262169,52.0746071121267,50.93248125762989,63.059262509446626,24.25356250363336,4.850712500726672,26.67891875399664,4.850712500726672,4.850712500726672,21.962534944228796,20.722252886833555,20.61552812808833,43.65641250653994,97.01425001453316,67.08203932499381
20,67,20,0.6666666666666663,10.115005417061028,160.08273204304004,13.211151045341436,27.97134405100261,38.78927508443651,40.46002166824411,47.380111117129225,80.21036850743995,52.67349330304849,51.51823238252848,66.23772734896511,24.532491610727902,1.2266245805363951,28.212365352336974,3.6798737416091853,3.6798737416091853,19.77872705736602,20.960570020402958,19.625993288582208,44.15848489931011,98.12996644291127,73.18745785454524
21,67,21,0.6999999999999996,10.055607472235867,159.14268456967986,13.133571727435887,27.807089037572712,38.561494363984885,40.22242988894374,47.10188277123105,79.7393523441699,52.36418083904533,51.21570391137425,65.8487621717668,24.388430433987764,1.2194215216993598,28.046694999085958,3.658264565098193,3.658264565098193,19.662581223525795,20.83748409704072,19.51074434719021,43.89917478117786,99.99256477934955,72.75768205074813
22,67,22,0.733333333333333,6.95021816154119,150.21558463022794,13.23282113863832,18.714035122719636,38.14713837697629,40.00150951940721,52.06868551414232,90.35283610003675,71.6412090028023,63.88910310577273,71.26092269490027,31.94455155288631,2.4572731963758088,31.944551552886423,14.743639178255307,2.4572731963759225,19.811169867167774,18.714035122719636,18.42954897281902,46.68819073114156,98.29092785503485,65.56822699965758
23,67,23,0.7666666666666663,10.400843542618384,144.41825004319682,9.589103943451692,17.711998321879744,33.86269321567725,37.85964196573764,50.097096487063986,87.66991885236185,69.96451939741075,60.468182280049405,65.11958091697625,27.90839182156128,0.0,34.88548977695143,18.605594547707483,2.325699318463421,18.750387350494485,20.80168708523667,18.605594547707483,44.188287050805286,93.02797273853741,69.38228026457585
24,67,24,0.7999999999999996,2.3446401061314646,145.59441042977494,10.485549320164958,15.728323980247337,36.398602607443685,38.167975650135666,46.716623157398374,73.58584897160135,57.90833885237191,53.926722441025504,63.3052828655517,25.79104116744702,1.1368683772161603e-13,23.446401061315328,11.723200530657664,2.3446401061314646,18.903092862630583,20.971098640329767,17.584800795986553,42.20352191036778,93.78560424526171,69.43460771348123
25,67,25,0.8333333333333329,5.4471450653353335,153.0250322173702,10.894290130670667,25.432976391079293,37.81746907564404,40.17615687614602,41.62702414042972,77.41847745394504,52.30393961501163,47.50272793263002,56.02885858720458,19.488298639027676,1.2180186649392226,32.88650395335924,10.962167984453117,3.654055994817668,19.63996083795712,20.81351207021494,19.488298639027676,43.84867193781224,92.56941853538149,67.94753994702647
26,67,26,0.8666666666666663,4.864592815943297,151.03757740175587,8.769769416069067,23.074789781510475,40.11446001151154,41.98794604689776,41.563099238865725,75.08668805367097,52.22361861536448,46.213631751463026,58.37511379132172,19.45837126377387,1.1368683772161603e-13,29.187556895660805,9.729185631886821,1.1368683772161603e-13,15.38319318767358,16.316340328960113,15.809926651816284,43.781335343491264,92.42726350292594,67.27399459982767
27,67,27,0.8999999999999996,3.4289003388686736,152.90358222144025,8.74201486902836,23.87952764176605,40.6436801177273,42.34379557761514,41.43156043342512,77.05495152562604,53.17560048463544,47.27967429172543,58.190368359046715,19.396789453015572,0.0,31.519782861150247,9.698394726507786,0.0,15.33450849156516,18.465193432047567,18.18449011220207,41.21817758765809,92.13474990182397,67.62848571929499
28,67,28,0.9333333333333328,5.275502546465132,157.38336994360643,12.705092572783775,22.38206174863415,40.72742633924306,43.50290845458116,40.315333852979045,79.30819332587066,57.01449190648223,50.72444393028741,54.26335862309827,18.874211694990663,1.1796382309369164,36.56878515904452,15.335297002180027,5.898191154684582,14.350918460900706,15.826507639395244,14.155658771242997,44.826252775602825,92.01178201307954,65.25436268187141
29,67,29,0.9666666666666662,10.10940858530524,146.8089724062947,7.535108269687415,21.96842692149917,39.29831676416691,41.61399557114552,41.61399557114552,80.09929962152017,58.609387699179116,48.84761432377434,52.421830006001755,19.062483638546155,2.382810454818241,38.12496727709208,19.06248363854604,2.382810454818241,14.494070151371348,15.984378463412487,15.48826795631868,47.65620909636522,92.92960773791219,63.08825366244836
