,video_id,frame_seq,time_seconds,m1,m3,m4,m5,m6,m7,m8,m9,m10,m11,m12,m13,m14,m15,m16,m17,e1,e2,e3,b1,b2,b3
0,44,0,0.0,4.822887916497754,47.15954706029646,3.9539773751168763,7.8717072496271285,11.78938140118845,13.099312667987164,12.233819881938667,28.831716462359164,20.963448147810713,18.557359612981827,12.662668912387602,13.099312667987178,0.6549656333993568,15.9374970793844,7.204621967392953,2.401540655797646,6.986300089593158,6.1285871579759394,6.331334456193801,16.59246271278375,20.08561275758033,17.229455789620364
1,44,1,0.0333666666666666,2.0824477582623473,42.49009994556496,3.7714732962232813,6.2612108684872245,10.004422342583522,10.42056525309123,12.522421736974422,24.629291962721013,18.368086405676195,17.284316393577456,12.91117610122653,13.744155204531467,0.8329791033049503,11.245217894616658,3.7484059648722052,2.4989373099148082,6.663832826439503,5.890051725336109,5.830853723134567,17.076071617751225,21.240967134275913,18.02971675859757
2,44,2,0.0667333333333332,2.9703814746468273,44.529971372333776,3.8039443229465357,6.734320587803575,10.501884417168355,11.3498116782573,11.373109297733926,24.816466189281897,18.082769031553873,16.592977379126012,11.76211054722856,12.182185923915299,0.6301130650300877,12.812298988945415,5.250942208584192,2.310414571777045,6.721206026987751,6.773511921124115,6.721206026987758,17.223090444156107,20.583693457649986,18.559536759743658
3,44,3,0.1000999999999998,1.3260570359740498,42.352941463795304,3.797249472155008,7.177877039614785,10.064065298327591,10.902737406521567,11.808610499489046,23.993938521919784,16.820551315619692,16.144438082733842,12.999417677006477,12.999417677006477,1.258008162290949,10.902737406521567,2.516016324581898,2.0966802704849243,5.03203264916381,5.049474755706384,5.032032649163796,16.35410610978235,21.386138758946146,16.546513977136787
4,44,4,0.1334666666666664,3.796251996822491,43.44804262735826,3.8196137680723043,7.639227536144611,10.975058864954985,11.810561767892153,12.348179525161768,27.57590554588484,19.936738308536384,17.926745540550627,13.075979100166336,13.497784877591059,1.0545144435617857,14.130493543728136,5.6943779952337366,2.3199317758359683,5.9203262099455145,5.965234511213673,5.694377995233722,18.13764842926298,21.933900426085465,17.840938420145193
5,44,5,0.166833333333333,4.202615173193743,50.606188086279936,3.786743280749655,7.956337964545501,12.96345101975254,13.799802698446229,11.000488833161272,26.922860735492815,18.984446218320823,16.72703357387425,10.872571823018262,11.708923501711979,0.4181758393468584,15.472506055833676,6.272637590202834,2.5090550360811363,6.286561331176149,5.8544617508559895,5.8544617508559895,17.981561091914813,18.817912770608523,13.82512345863495
6,44,6,0.2001999999999996,4.924950540683819,51.81804041071305,3.643455966378255,8.106683207641739,13.365470900167734,14.174777508466708,10.3211405941549,26.914241834339737,18.8364894226701,16.193137628347827,10.120711017717397,10.120711017717397,0.0,16.59796606905654,7.286911932756524,2.428970644252175,5.667598169921746,5.278317088725132,5.262769729213041,17.40762295047393,19.431765154017405,14.663509781955472
7,44,7,0.2335666666666662,6.718314852810618,54.17119563217804,3.7498697984479605,8.343453799481123,13.749522594309184,14.999479193791842,9.726843543180896,28.482071324213326,20.15494455843185,16.66608799310204,9.999652795861223,9.166348396206118,0.0,18.74934899223979,9.166348396206118,2.916565398792855,5.432480046497499,5.017156870685315,5.208152497844381,14.999479193791828,18.74934899223979,13.023297483427585
8,44,8,0.2669333333333328,8.254316165573147,53.889668336603975,3.6959524215354693,8.580855336861758,14.693387983566708,15.509687315987094,9.126503986398253,29.615470279816876,21.070170616851968,16.734136314617643,10.611891321464839,9.38744232283429,1.0203741655254674,19.387109144983853,9.591517155939385,1.8366734979458386,5.728653555192081,5.3216205712802145,5.3059456607324265,14.693387983566716,18.77488464566858,14.378227018103152
9,44,9,0.3002999999999994,8.674709116593895,50.41692021787899,3.355107500170809,7.240765261549386,12.964574232978318,13.749605727858143,9.714506000366093,28.880419716866285,21.640505725360136,16.88548212381231,12.173254554376328,8.246398246512996,0.7853712615726778,18.06353901617129,10.20982640044464,1.570742523145313,3.6203826307747002,4.477305060121304,4.319541938649664,11.780568923589982,23.561137847179964,16.403734272185538
10,44,10,0.333666666666666,8.598118048936842,53.41916015589639,3.286094710598179,8.598118048936842,13.049243366333458,14.673235869505675,9.022386720767607,29.34930208783781,20.78308778504417,16.09980046792984,10.189747131601152,8.559387590544972,0.8151797705280899,19.564314492674228,10.189747131601166,1.6303595410561798,4.8910786231685535,4.8910786231685535,4.687283680536524,19.564314492674214,23.232623460050633,19.22597643599065
11,44,11,0.3670333333333326,8.408396565749884,51.09655357704415,3.2869086705743666,8.408396565749884,12.77996716472616,13.956560925127729,8.823303551542923,28.770806908502692,20.40641390066416,15.744550864888197,10.363501835116281,7.573328264123447,0.5978943366413176,19.33191688473616,10.164203722902514,1.7936830099239671,4.783154693130598,4.799734135193862,4.98245280534438,17.538233874812185,25.111562138935625,17.825765067895244
12,44,12,0.4003999999999992,7.658092333596369,51.08584764345204,3.6705335594693,8.12019393440909,12.795872293719263,13.985478055809068,8.370104323017122,27.620253938786483,19.5243811229516,14.929697353020316,10.749382094174635,7.166254729449747,1.3934384196152223,17.71657419225079,8.957818411812198,1.3934384196152365,5.19091834094707,5.31165351101529,4.97656578434011,16.323135772635545,24.683766290326922,15.212344929786445
13,44,13,0.4337666666666658,8.045072871222514,53.140210511998944,3.3950035155279705,8.09998868191561,13.481725575589868,14.744457062893568,8.390325382493572,27.83393267080361,19.73779247588534,15.370090139194815,10.106360639470566,7.158672119624981,0.6316475399669201,18.738877019018332,9.474713099503646,1.894942619900732,6.316475399669102,6.330496449995139,6.316475399669102,19.370524558985252,23.581508158764656,17.392942588649156
14,44,14,0.4671333333333324,7.763106987533579,50.11338584251724,3.2760145167076877,7.763106987533593,12.196958179067705,13.415361753722525,7.847721007158175,26.45891721780164,18.731329624073048,14.425055483703247,9.75215018616558,6.095093866353494,0.6095093866353523,18.082111803515346,9.548980390620457,1.8285281599060426,5.68875427526325,5.703247940219088,5.485584479718142,16.25358364360929,21.12965873669208,17.702607619202375
15,44,15,0.5004999999999991,8.76458935890605,52.09997742476784,3.3053336373322253,7.861032677446984,13.640759919119176,14.466735840747505,8.365988142260855,28.05277180860104,20.25781254063171,15.493751424994798,9.916000911996676,7.850167388664033,1.0329167616663142,18.799085062327038,9.709417559663422,1.4460834663328512,5.371167160664868,5.387034749623375,5.1645838083316065,15.287168072661544,19.41883511932683,16.65528233018349
16,44,16,0.5338666666666656,9.399966830503445,55.35804556376958,3.853215834388431,8.552775897702466,14.048490401652375,15.324502987801477,8.360072860301724,30.088560611259346,21.54643485053452,16.595143690603862,11.063429127069242,8.93584660263285,1.9148242719927566,19.786517477258457,10.425154369738323,1.0637912622181886,5.972408751793758,5.548056444229136,5.744472815978256,15.318594175942017,21.275825244363922,17.153118692781888
17,44,17,0.5672333333333321,8.679242366805589,53.50086118126969,3.7257073353200814,7.860465083667144,13.988808589419989,14.400244136167629,8.591026433413246,28.74754074630777,20.90238356643011,16.251704096532038,9.874453121943517,8.640146481700583,1.0285888668691143,19.131752923765575,10.080170895317352,1.8514599603644086,5.76009765446706,5.364463211886258,5.34866210771942,14.811679682915283,20.571777337382336,16.641537973776575
18,44,18,0.6005999999999987,9.618745548701781,53.33079460707677,3.749707065577809,7.499414131155618,14.165560025516129,15.004613731480006,8.589132386945638,29.309847485874,21.86039159418895,16.873681795100126,9.99921884154081,9.582584723143285,1.4582194143913654,19.37348650548533,10.624170019137111,1.4582194143913654,5.832877657565476,5.432244293493376,5.416243539167944,15.415462380708753,19.165169446286562,17.127665945942095
19,44,19,0.6339666666666652,9.239018035442236,53.953380714622455,3.371883663513003,7.946383210120942,14.638074334433327,15.480186459403884,8.53026590545111,29.006040036166176,21.115473354222683,16.310997115511412,9.201075295929513,9.619305991199042,1.045576738173807,19.447727330032833,10.24665203410332,1.4638074334433213,5.436999038503799,5.453061109061301,5.227883690869035,14.63807433443332,17.983919896589505,15.148960089026067
20,44,20,0.6673333333333318,9.577521038079048,53.93030326157441,3.318787893019959,7.882121245922406,13.69000005870737,14.525622229936749,8.552320644963997,29.18422984551593,21.355632914324424,16.38651522178607,9.126666705804894,9.126666705804894,0.8296969732549826,19.91272735811978,10.786060652314887,1.6593939465099936,5.822675980239086,5.408962503633296,5.393030326157444,14.104848545334846,17.838484924982303,15.438830415452973
21,44,21,0.7006999999999983,9.723038152648032,53.02557406631965,3.2634033998027716,7.70137673350945,14.167138109322053,14.982157797391883,7.786009788215719,28.438170837323476,20.742516498576347,15.786239607530277,8.905058240145294,8.905058240145294,1.2143261236561784,19.429217978498798,10.119384363801458,1.2143261236561642,5.277625190693161,5.262079869176759,5.262079869176759,15.381464232978225,17.405341105738515,14.219085418661747
22,44,22,0.7340666666666649,9.8680878341446,53.267505812650455,3.2780003577015577,8.205238251017725,13.931501520231649,15.166287806336019,7.65476254370948,28.86920975955466,20.687305472513835,15.570501699082428,9.014500983679298,9.014500983679298,1.6390001788507789,19.66800214620939,10.243751117817382,0.8195000894253894,4.9340439170723,5.3267505812650455,5.3267505812650455,13.931501520231656,18.02900196735861,14.393837304252715
23,44,23,0.7674333333333314,10.511766624552733,53.61334386357555,3.6502968212637015,8.474857191710633,14.108774700940927,15.339299776947408,7.3560279513688265,29.96314494923085,21.50118467611582,16.124313943932492,9.271480517761177,9.271480517761177,2.015539242991551,20.558500278513932,10.480804063556121,0.8062156971966346,4.452471716630022,4.452471716630029,4.43418633458144,15.318098246735872,18.139853186924057,14.562183853050197
24,44,24,0.800799999999998,10.234749789961375,52.43670088940778,2.8742040903948536,8.13963231411619,13.826086843573277,15.045023987978318,8.290472179253557,29.493871835288616,21.385314613619855,16.055716702375236,10.16184601416154,9.755372173595077,1.8291322825490823,19.307507426906923,9.958609093878309,0.20323692028323137,4.877686086797546,4.877686086797539,4.877686086797539,15.446005941525542,18.69779666605723,13.873804282551692
25,44,27,0.9008999999999976,3.779315535759009,50.919091465102014,3.7793155357590233,6.729656551682692,12.54846032272477,13.779056328764664,10.433889553306118,24.638122930739932,17.926867634187044,15.650834329959181,11.268600717570607,10.851245135438361,1.043388955330613,13.14670083716571,5.634300358785296,1.8781001195951035,5.441651029722562,5.0082669855869355,4.799589194520813,20.450423524479987,24.623979345802436,19.2708036648596
26,44,28,0.934266666666664,0.41180168419904817,46.947198111684365,3.796623935061052,4.604082795589691,11.942248841771914,12.360911981943426,12.005979053904158,20.328993783879735,15.73492025970809,15.648463999563205,12.354050525970962,11.942248841771928,0.20590084209950987,8.030132841881127,2.2649092630946797,2.6767109472937136,5.00978370911914,5.00978370911914,5.147521052487903,16.883869052160307,27.59071284133513,18.011322540552683
27,44,29,0.9676333333333308,1.2986891298603354,50.2159796879329,3.4901221666158535,5.6276528960614485,12.986891298603325,13.426768059401724,11.696216021017202,22.094685014287695,16.472830574795243,15.80071774663405,11.688202168743004,11.688202168743004,0.0,10.389513038882669,3.896067389581006,2.5973782597206707,6.49344564930167,6.507859530853872,6.276997460991623,13.419787675223446,19.480336947905002,14.876778592291405
28,44,30,1.0009999999999972,0.0,48.73021835959923,3.416180242340407,5.102324779311978,12.28802528036013,13.135475299695315,12.31721302998535,20.831590198245124,15.729275059611874,15.677825357700854,11.440575261024946,11.864300270692539,0.6355875145013954,9.11008770785321,3.1779375725069485,3.1779375725069485,5.508425125678684,5.573232356584405,5.508425125678677,15.677825357700861,19.91507545437677,17.50143307827011
29,44,31,1.0343666666666638,0.0,45.615704930523115,3.536043949056153,5.701699545320437,12.280583636074766,12.726735597963637,11.874435236110783,21.093507039894742,15.40701678462735,15.350729545093472,13.157768181508686,12.719175908791726,1.0964806817923858,8.113957045263703,1.5350729545093458,1.5350729545093458,4.385922727169557,4.824514999886517,4.605218863528037,16.666506363244345,20.613836817696956,14.14417579622461
30,44,32,1.0677333333333303,0.6095691487792975,42.68072418986244,3.90314699094005,6.479808934468497,11.21507843075926,11.645802235457431,11.70944097282014,22.5622944220357,16.093087315957558,15.732612472694342,14.224005797230504,13.361944839822598,2.1551523935197707,8.620609574079097,1.724121914815825,0.43103047870395983,4.3103047870395415,4.741335265743508,4.525820026391536,15.948127712046329,19.396371541677965,14.386348485941157
31,44,33,1.1010999999999969,1.769755588743152,46.906870262585926,3.5670564269847977,6.209925846205129,12.38828912120212,12.830728018387902,12.838354008968087,24.37031200604935,18.1615643460831,17.25511699024578,13.715605812759463,14.60048360713104,1.3273166915573569,10.17609463527316,3.0970722803005373,1.7697555887431662,4.446455886663077,4.8868973474632345,4.866827869043675,15.92780029868841,19.90975037336051,17.83528213492398
32,44,34,1.1344666666666634,0.0,44.22893476353212,4.004299605482269,5.765594554177377,11.49722382365212,11.939424739946418,12.507330662344508,22.268669141693167,16.51015023002249,16.361433902889544,14.592630237712285,13.708228405123663,1.768803665177245,7.959616493297617,1.3266027488829337,1.3266027488829337,5.32480415638658,5.3796063289971565,5.306410995531742,12.823826572535047,20.341242149538353,19.582062618084144
33,44,35,1.16783333333333,1.309706550920282,44.09345388098308,3.1782692044700815,5.742166704569219,10.477652407362314,11.359182560218848,12.780362022527019,22.96866681827684,17.22650011370762,16.37133188650361,13.533634359509648,13.533634359509648,0.8731377006135119,9.167945856442032,2.1828442515338224,1.7462754012270523,4.387462645638714,4.557912609445292,4.365688503067624,9.604514706748787,18.33589171288404,14.64296439217279
34,44,36,1.2011999999999965,1.7858210623277415,45.547190272924865,3.599437424206645,6.3138309157885475,11.170307176072354,11.607836905130313,13.954851886351982,25.639129453609126,19.32692417346269,18.304665888859333,15.179479029785782,14.286568498621918,0.8929105311638779,10.714926373966435,3.571642124655483,1.7858210623277415,5.376033305704696,5.872202195147027,5.803918452565156,9.822015842802564,19.644031685605135,22.926249498889046
35,44,37,1.234566666666663,5.64498939974771,49.80159567386664,3.460164590635808,6.920329181271637,12.453634769503491,13.31151896349515,12.475800853082308,28.48479088643275,21.566058075875432,18.669355953600345,12.87541789903473,14.162959688938201,1.0729514915862381,14.806730583889916,6.652299247834591,1.9313126848552002,5.150167159613886,5.150167159613886,5.150167159613886,14.162959688938187,18.883946251917585,13.053018259696566
36,44,38,1.2679333333333296,6.014446004783139,48.10428963016282,3.851124498795806,6.857523530239427,12.786887602732824,13.6157812414608,11.187516264828554,27.907288704351924,21.050561016740982,17.861993331262482,14.459708887212486,12.333281109681238,2.33907055528438,14.247066109459354,7.017211665853111,0.21264277775311768,5.953997777087501,5.545045232708574,5.5287122215812445,14.034423331706243,19.988421108793737,15.26887680865858
